Device,Device,Device,Device,Device,Device,Device,Device,Device,Device,Device,Device
ECG Vx-RL,ECG Vx-RL,ECG LA-RA,ECG LA-RA,ExG2 CH1,ExG2 CH1,EXG1 Status,ECG LL-RA,ECG LL-RA,Timestamp,Timestamp,EXG2 Status
CAL,RAW,CAL,RAW,RAW,CAL,RAW,CAL,RAW,CAL,RAW,RAW
mV,No Units,mV,No Units,No Units,mV,No Units,mV,No Units,mSecs,No Units,No Units
5.280529294,73217,-13.65745648,-189367,8186,0.590387653,0,16.9810375,235450,6001.953125,64,0
-14.1790401,-196599,-13.54206187,-187767,511,0.036854152,0,17.0494088,236398,6003.90625,128,0
5.280529294,73217,-14.5245027,-201389,8186,0.590387653,128,18.24879149,253028,6005.859375,192,0
-0.037503247,-520,-14.38162975,-199408,14463,1.043095117,128,18.32343737,254063,6007.8125,256,128
-0.221557644,-3072,-14.39598196,-199607,8136,0.586781572,128,18.21907737,252616,6009.765625,320,128
-0.277235541,-3844,-14.38307218,-199428,5631,0.406116892,128,18.11608769,251188,6011.71875,384,128
-0.073636183,-1021,-14.25072899,-197593,8032,0.579280922,128,18.11926104,251232,6013.671875,448,128
-0.004615784,-64,-14.18430497,-196672,7169,0.517039957,128,18.16794314,251907,6015.625,512,128
-0.040892964,-567,-14.22981372,-197303,4987,0.359670563,128,18.06351102,250459,6017.578125,576,128
-4.724543658,-65508,-14.16836609,-196451,6268,0.452058369,128,18.02672899,249949,6019.53125,640,128
-4.689708911,-65025,-14.14442171,-196119,3198,0.230644969,128,17.96304559,249066,6021.484375,704,128
18.37024431,254712,17.85277162,247537,0,0,153,-302.5000361,-4194304,6023.4375,768,128
302.4722692,4193919,425.3349978,5897468,1016,0.073275575,147,0.069741615,967,6025.390625,832,0
0,0,2.16E-04,3,0,0,146,5.848198634,81088,6027.34375,896,128
17.74213704,246003,17.87166749,247799,0,0,154,-302.5000361,-4194304,6029.296875,960,152
-2.363281532,-32768,17.87166749,247799,0,0,154,-302.5000361,-4194304,6031.25,1024,128
0,0,2.16E-04,3,240,0.017309191,139,48.60882385,673984,6033.203125,1088,0
-4.7086769,-65288,60.99758875,845760,16127,1.163105507,0,-289.0406256,-4007683,6035.15625,1152,128
-4.726563063,-65536,-302.5000361,-4194304,2048,0.147705096,7,-13.96217036,-193592,6037.109375,1216,0
4.135742681,57344,-13.94457268,-193348,8,5.77E-04,128,17.72756847,245801,6039.0625,1280,128
0.006923676,96,-13.87764381,-192420,240,0.017309191,128,17.73744914,245938,6041.015625,1344,128
-2.362993045,-32764,64.80099497,898496,15871,1.14464237,0,-301.6509481,-4182531,6042.96875,1408,0
-0.590820383,-8192,-14.01878584,-194377,15423,1.112331881,128,17.61419327,244229,6044.921875,1472,128
-2.33443288,-32368,-13.98222017,-193870,15135,1.091560852,128,17.63287278,244488,6046.875,1536,128
-2.358160896,-32697,-13.91666161,-192961,16380,1.181352279,128,17.64657589,244678,6048.828125,1600,128
-4.468079146,-61952,-13.90166031,-192753,15920,1.14817633,128,17.63352187,244497,6050.78125,1664,128
-4.138627546,-57384,-13.83047626,-191766,15375,1.108870042,128,17.64816256,244700,6052.734375,1728,128
-4.433244399,-61469,-13.77443776,-190989,16141,1.16411521,128,17.64873953,244708,6054.6875,1792,128
-1.172697684,-16260,-13.8082628,-191458,15551,1.121563449,128,17.57784397,243725,6056.640625,1856,128
-1.910429825,-26489,-13.89942454,-192722,12803,0.923373213,128,17.49281257,242546,6058.59375,1920,128
-2.102633965,-29154,-13.84944425,-192029,12344,0.890269386,128,17.50882357,242768,6060.546875,1984,128
-0.623202994,-8641,-13.74465153,-190576,14369,1.036315684,128,17.57229061,243648,6062.5,2048,128
-0.812955,-11272,-13.78374145,-191118,15884,1.145579951,128,17.57373304,243668,6064.453125,2112,128
-2.358737869,-32705,-13.78900633,-191191,13324,0.960948582,128,17.52454609,242986,6066.40625,2176,128
-2.215648558,-30721,-13.84821818,-192012,12919,0.931739322,128,17.44831353,241929,6068.359375,2240,128
-0.85370372,-11837,-13.85030971,-192041,16321,1.177097103,128,17.40496843,241328,6070.3125,2304,128
-2.363065167,-32765,-13.81973014,-191617,16359,1.179837725,128,17.40222781,241290,6072.265625,2368,128
-4.157739777,-57649,-13.75308976,-190693,16383,1.181568644,128,17.45473235,242018,6074.21875,2432,128
-1.174212238,-16281,-13.7275587,-190339,13218,0.953303689,128,17.45328992,241998,6076.171875,2496,128
-1.790996407,-24833,-13.69726762,-189919,14337,1.034007792,128,17.45696812,242049,6078.125,2560,128
-4.145551222,-57480,-13.67635234,-189629,12318,0.888394223,128,17.44968384,241948,6080.078125,2624,128
-0.950851554,-13184,-13.7965791,-191296,12542,0.904549468,128,17.39775627,241228,6082.03125,2688,128
0.073780426,1023,-13.84692,-191994,12164,0.877287492,128,17.31770126,240118,6083.984375,2752,128
-0.293102299,-4064,-13.81648467,-191572,14640,1.055860645,128,17.29375688,239786,6085.9375,2816,128
-0.060005195,-832,-13.70347008,-190005,15996,1.153657574,128,17.44276016,241852,6087.890625,2880,128
-0.655513484,-9089,-13.62601145,-188931,14463,1.043095117,128,17.45307356,241995,6089.84375,2944,128
-0.710830773,-9856,-13.72914538,-190361,16380,1.181352279,128,17.39422231,241179,6091.796875,3008,128
-4.20613339,-58320,-13.62399204,-188903,16145,1.164403697,128,17.42364793,241587,6093.75,3072,128
-0.895173656,-12412,-13.64707096,-189223,16255,1.172337076,128,17.36912398,240831,6095.703125,3136,128
-0.147488731,-2045,-13.74104544,-190526,14344,1.034512643,128,17.29822842,239848,6097.65625,3200,128
-0.646281915,-8961,-13.69034394,-189823,16383,1.181568644,128,17.3595318,240698,6099.609375,3264,128
-0.020771029,-288,-13.63228603,-189018,16380,1.181352279,128,17.37135975,240862,6101.5625,3328,128
-18.8330488,-261129,-13.69135364,-189837,12785,0.922075024,128,17.28438107,239656,6103.515625,3392,128
-0.072842845,-1010,-13.60538466,-188645,16135,1.16368248,128,17.42191701,241563,6105.46875,3456,128
-18.90257405,-262093,-13.64548429,-189201,16383,1.181568644,128,17.37359552,240893,6107.421875,3520,128
-0.129602567,-1797,-13.67180868,-189566,16338,1.178323171,128,17.42948978,241668,6109.375,3584,128
-0.018463137,-256,-13.6901997,-189821,15880,1.145291465,128,17.3725137,240878,6111.328125,3648,128
-1.154234547,-16004,-13.60444708,-188632,16272,1.173563143,128,17.43244677,241709,6113.28125,3712,128
-0.048537856,-673,-13.63437756,-189047,12480,0.900077927,128,17.41441636,241459,6115.234375,3776,128
0.294977462,4090,-13.59853311,-188550,16344,1.178755901,128,17.40266054,241296,6117.1875,3840,128
-1.786380623,-24769,-13.60336525,-188617,16262,1.172841927,128,17.40309327,241302,6119.140625,3904,128
-2.88E-04,-4,-13.5905276,-188439,16128,1.163177629,128,17.39602535,241204,6121.09375,3968,128
1.171832224,16248,-13.61411138,-188766,12772,0.921137443,128,17.41492121,241466,6123.046875,4032,128
-18.38834684,-254963,-13.69892641,-189942,16151,1.164836426,128,17.35087721,240578,6125,4096,128
-18.68455037,-259070,-13.63170905,-189010,16143,1.164259453,128,17.34979538,240563,6126.953125,4160,128
0.590748261,8191,-13.65010007,-189265,15110,1.089757811,128,17.35455541,240629,6128.90625,4224,128
0.595364046,8255,-13.51501626,-187392,16256,1.172409197,128,17.43417769,241733,6130.859375,4288,128
-0.518193903,-7185,-13.51595384,-187405,14336,1.03393567,128,17.44283228,241853,6132.8125,4352,128
-0.036926274,-512,-13.50535196,-187258,16382,1.181496523,128,17.40900724,241384,6134.765625,4416,128
-18.90625225,-262144,-13.65038856,-189269,15519,1.119255557,128,17.31539337,240086,6136.71875,4480,128
-18.32004766,-254016,-13.47383481,-186821,15873,1.144786614,128,17.41362302,241448,6138.671875,4544,128
-18.90625225,-262144,-13.55641407,-187966,16383,1.181568644,128,17.36155121,240726,6140.625,4608,128
-18.33396713,-254209,-13.65370615,-189315,14563,1.05030728,128,17.31553761,240088,6142.578125,4672,128
-18.36108486,-254585,-13.5771851,-188254,15399,1.110600962,128,17.37871616,240964,6144.53125,4736,128
-18.90603589,-262141,-13.55533225,-187951,15875,1.144930857,128,17.40006416,241260,6146.484375,4800,128
-17.72475573,-245762,-13.56535716,-188090,15863,1.144065397,128,17.37525432,240916,6148.4375,4864,128
-18.01879561,-249839,-13.600841,-188582,15105,1.089397203,128,17.31647519,240101,6150.390625,4928,128
0.604739857,8385,-13.51299685,-187364,16376,1.181063793,128,17.39241927,241154,6152.34375,4992,128
0.00930369,129,-13.5354988,-187676,15932,1.14904179,128,17.36501305,240774,6154.296875,5056,128
1.181568644,16383,-13.54444188,-187800,16380,1.181352279,128,17.3541948,240624,6156.25,5120,128
-18.28081349,-253472,-13.5611741,-188032,16113,1.162095804,128,17.33147649,240309,6158.203125,5184,128
0.620822981,8608,-13.55785651,-187986,16334,1.178034684,128,17.3702058,240846,6160.15625,5248,128
0.925176254,12828,-13.54992313,-187876,14606,1.05340851,128,17.34597294,240510,6162.109375,5312,128
0.572573611,7939,-13.68644937,-189769,8252,0.595147681,128,17.10645701,237189,6164.0625,5376,128
0.280336771,3887,-13.5424946,-187773,13828,0.997297883,128,17.28625623,239682,6166.015625,5440,128
0.586204599,8128,-13.59413369,-188489,13276,0.957486744,128,17.29736296,239836,6167.96875,5504,128
-17.99463487,-249504,-13.55309648,-187920,16321,1.177097103,128,17.29180959,239759,6169.921875,5568,128
1.035161738,14353,-13.57192022,-188181,15764,1.136925356,128,17.3008248,239884,6171.875,5632,128
0.922002902,12784,-13.50585681,-187265,16326,1.177457711,128,17.34698264,240524,6173.828125,5696,128
0.056471235,783,-13.58172877,-188317,15904,1.147022384,128,17.26137427,239337,6175.78125,5760,128
0.010313393,143,-13.58605606,-188377,15416,1.111827029,128,17.24096385,239054,6177.734375,5824,128
0.587358545,8144,-13.59788401,-188541,12302,0.887240277,128,17.2478154,239149,6179.6875,5888,128
0.035772328,496,-13.6408685,-189137,12640,0.911617388,128,17.26685551,239413,6181.640625,5952,128
0.522016349,7238,-13.68392511,-189734,12384,0.893154251,128,17.15239849,237826,6183.59375,6016,128
0.016732218,232,-13.63892122,-189110,12508,0.902097333,128,17.26072517,239328,6185.546875,6080,128
-18.83247183,-261121,-13.58987851,-188430,15361,1.10786034,128,17.21968796,238759,6187.5,6144,128
0.553894109,7680,-13.67692932,-189637,12680,0.914502253,128,17.21730795,238726,6189.453125,6208,128
0.590748261,8191,-13.58742637,-188396,13824,0.997009396,128,17.32080249,240161,6191.40625,6272,128
0.037359004,518,-13.51263625,-187359,14560,1.050090915,128,17.27154342,239478,6193.359375,6336,128
-17.90823315,-248306,-13.50030345,-187188,14335,1.033863549,128,17.28055862,239603,6195.3125,6400,128
-18.36613338,-254655,-13.63957031,-189119,13249,0.95553946,128,17.20439818,238547,6197.265625,6464,128
0.036637787,508,-13.5568468,-187972,13700,0.988066314,128,17.22639528,238852,6199.21875,6528,128
0.223793414,3103,-13.63971456,-189121,12290,0.886374818,128,17.24471417,239106,6201.171875,6592,128
-18.61300571,-258078,-13.67584749,-189622,12803,0.923373213,128,17.17122223,238087,6203.125,6656,128
0.075511345,1047,-13.64079638,-189136,12412,0.895173656,128,17.2461566,239126,6205.078125,6720,128
-18.35134844,-254450,-13.5771851,-188254,14335,1.033863549,128,17.24795964,239151,6207.03125,6784,128
0.590892505,8193,-13.58165664,-188316,13824,0.997009396,128,17.2391608,239029,6208.984375,6848,128
0.141935365,1968,-13.61079378,-188720,13710,0.988787531,128,17.26476398,239384,6210.9375,6912,128
0.904116738,12536,-13.55324072,-187922,14408,1.039128427,128,17.29555992,239811,6212.890625,6976,128
0.016155245,224,-13.53679699,-187694,16156,1.165197035,128,17.31568185,240090,6214.84375,7040,128
0.033320192,462,-13.61764534,-188815,15580,1.123654976,128,17.20670607,238579,6216.796875,7104,128
0.221774008,3075,-13.70484039,-190024,12300,0.887096034,128,17.14201297,237682,6218.75,7168,128
-18.83196698,-261114,-13.51602596,-187406,14367,1.036171441,128,17.22653952,238854,6220.703125,7232,128
-18.01454044,-249780,-13.6985658,-189937,12543,0.90462159,128,17.14424874,237713,6222.65625,7296,128
-18.74982044,-259975,-13.66748138,-189506,12671,0.913853158,128,17.16689493,238027,6224.609375,7360,128
-18.84833859,-261341,-13.60689921,-188666,12769,0.920921078,128,17.17475619,238136,6226.5625,7424,128
-17.73853096,-245953,-13.57285781,-188194,13057,0.941692107,128,17.22718861,238863,6228.515625,7488,128
-18.35098783,-254445,-13.63798364,-189097,13261,0.956404919,128,17.20382121,238539,6230.46875,7552,128
-18.31031124,-253881,-13.57300205,-188196,14321,1.032853846,128,17.22574618,238843,6232.421875,7616,128
0.016155245,224,-13.54263884,-187775,15872,1.144714492,128,17.24803176,239152,6234.375,7680,128
-18.90625225,-262144,-13.62024172,-188851,13307,0.959722514,128,17.19343569,238395,6236.328125,7744,128
1.10786034,15361,-13.58677728,-188387,13920,1.003933073,128,17.25207058,239208,6238.28125,7808,128
0.128953472,1788,-13.61021681,-188712,13456,0.970468637,128,17.23699716,238999,6240.234375,7872,128
0.191627168,2657,-13.6922191,-189849,8060,0.581300328,128,17.12427105,237436,6242.1875,7936,128
0.128953472,1788,-13.70181128,-189982,13456,0.970468637,128,17.16487553,237999,6244.140625,8000,0
0.536512796,7439,-13.57848329,-188272,14208,1.024704102,128,17.2494742,239172,6246.09375,8064,128
0.145902055,2023,-13.6992149,-189946,12702,0.916088929,128,17.1291032,237503,6248.046875,8128,128
-18.31658582,-253968,-13.73779997,-190481,3969,0.286250745,128,17.13314201,237559,6250,8192,128
-18.75393137,-260032,-13.7035422,-190006,13199,0.951933378,128,17.14374389,237706,6251.953125,8256,128
0.588584612,8161,-13.58800335,-188404,7278,0.524901214,128,17.12484802,237444,6253.90625,8320,128
-18.89103459,-261933,-13.54040307,-187744,8191,0.590748261,128,17.1291032,237503,6255.859375,8384,128
-18.90538679,-262132,-13.53636426,-187688,14367,1.036171441,128,17.18196835,238236,6257.8125,8448,128
0.004615784,64,-13.3510838,-185119,448,0.03231049,128,17.2761592,239542,6259.765625,8512,128
0.27896646,3868,-13.48306638,-186949,14336,1.03393567,128,17.27630344,239544,6261.71875,8576,128
-17.75721046,-246212,-13.45522743,-186563,16351,1.179260752,128,17.31373457,240063,6263.671875,8640,128
-18.83268819,-261124,-13.36485903,-185310,15855,1.143488424,128,17.45069354,241962,6265.625,8704,128
0.812450148,11265,-13.30470959,-184476,16112,1.162023683,128,17.51026601,242788,6267.578125,8768,128
0.109841241,1523,-13.3344237,-184888,14360,1.035666589,128,17.78115484,246544,6269.53125,8832,128
-17.72576543,-245776,-13.28300098,-184175,1159,0.083588968,128,17.81923506,247072,6271.484375,8896,128
1.144714492,15872,-13.24932018,-183708,16384,1.181640766,128,17.7800009,246528,6273.4375,8960,128
-18.89817463,-262032,-13.24946442,-183710,255,0.018391015,128,17.74055037,245981,6275.390625,9024,128
-18.72140452,-259581,-13.40286713,-185837,15875,1.144930857,128,17.6532832,244771,6277.34375,9088,128
-18.76143202,-260136,-13.50903016,-187309,12407,0.894813048,128,17.44470745,241879,6279.296875,9152,128
1.115505232,15467,-13.43575459,-186293,15116,1.090190541,128,17.34005896,240428,6281.25,9216,128
0.003678203,51,-13.58144028,-188313,8642,0.623275116,128,17.15730276,237894,6283.203125,9280,128
0.516895713,7167,-13.65803345,-189375,3584,0.258483918,128,17.09037388,236966,6285.15625,9344,128
0.149508136,2073,-13.7125574,-190131,2588,0.186650775,128,17.05705369,236504,6287.109375,9408,128
-18.46313697,-256000,-13.71580287,-190176,3135,0.226101306,128,16.97086835,235309,6289.0625,9472,128
-18.3158646,-253958,-13.72301504,-190276,403,0.029065016,128,16.98291266,235476,6291.015625,9536,128
-18.34831933,-254408,-13.59059973,-188440,7169,0.517039957,128,17.06967498,236679,6292.96875,9600,128
0.129241959,1792,-13.66502925,-189472,7688,0.554471082,128,17.09138359,236980,6294.921875,9664,128
0.055389411,768,-13.66495713,-189471,7998,0.576828787,128,17.05366398,236457,6296.875,9728,128
-18.76208112,-260145,-13.62702115,-188945,7361,0.530887309,128,17.00866008,235833,6298.828125,9792,128
-18.31788401,-253986,-13.60639436,-188659,8183,0.590171288,128,16.9937309,235626,6300.78125,9856,128
-18.34262172,-254329,-13.66394742,-189457,6243,0.450255328,128,17.02676261,236084,6302.734375,9920,128
0.500668347,6942,-13.62226112,-188879,8128,0.586204599,128,17.08539749,236897,6304.6875,9984,128
-18.7597011,-260112,-13.56636686,-188104,12303,0.887312399,128,17.17771318,238177,6306.640625,10048,128
0.650681335,9022,-13.54545159,-187814,14592,1.052398807,128,17.19963815,238481,6308.59375,10112,128
-18.90618013,-262143,-13.57033355,-188159,14319,1.032709602,128,17.23411229,238959,6310.546875,10176,128
-18.8843994,-261841,-13.5301618,-187602,15423,1.112331881,128,17.21204307,238653,6312.5,10240,128
-18.78162608,-260416,-13.50059193,-187192,16001,1.154018182,128,17.25618151,239265,6314.453125,10304,128
0.597167086,8280,-13.58295483,-188334,14304,1.031627778,128,17.23331895,238948,6316.40625,10368,128
0.587358545,8144,-13.59189792,-188458,14328,1.033358697,128,17.26728824,239419,6318.359375,10432,128
0.590748261,8191,-13.60798104,-188681,12540,0.904405225,128,17.18290593,238249,6320.3125,10496,128
0.004687906,65,-13.54725463,-187839,15858,1.143704789,128,17.3081812,239986,6322.265625,10560,128
-18.89932858,-262048,-13.57264144,-188191,16135,1.16368248,128,17.2478154,239149,6324.21875,10624,128
-17.78411183,-246585,-13.47477239,-186834,14543,1.048864847,128,17.30507997,239943,6326.171875,10688,128
-18.88778912,-261888,-13.5221563,-187491,14343,1.034440522,128,17.30572907,239952,6328.125,10752,128
0.576900909,7999,-13.57466085,-188219,14366,1.036099319,128,17.34957902,240560,6330.078125,10816,128
0.069236764,960,-13.52835876,-187577,16064,1.158561845,128,17.32354311,240199,6332.03125,10880,128
0.072049507,999,-13.5768245,-188249,16354,1.179477117,128,17.23944929,239033,6333.984375,10944,128
0.145325082,2015,-13.53730184,-187701,13324,0.960948582,128,17.26779309,239426,6335.9375,11008,128
0.083011995,1151,-13.52093023,-187474,16356,1.17962136,128,17.30003146,239873,6337.890625,11072,128
1.107716096,15359,-13.51804537,-187434,14332,1.033647184,128,17.2948387,239801,6339.84375,11136,128
0.029930476,415,-13.58793123,-188403,13848,0.998740315,128,17.25387362,239233,6341.796875,11200,128
0.129458324,1795,-13.6028604,-188610,12856,0.92719566,128,17.29354051,239783,6343.75,11264,128
-18.90596377,-262140,-13.54025883,-187742,15487,1.116947665,128,17.28337136,239642,6345.703125,11328,128
0.064620979,896,-13.52309388,-187504,14008,1.010279776,128,17.29137686,239753,6347.65625,11392,128
0.660057147,9152,-13.52309388,-187504,16320,1.177024982,128,17.31553761,240088,6349.609375,11456,128
0.594859194,8248,-13.52078599,-187472,15410,1.111394299,128,17.3638591,240758,6351.5625,11520,128
-17.90462707,-248256,-13.47296935,-186809,15503,1.118101611,128,17.36638336,240793,6353.515625,11584,128
0.658326227,9128,-13.54891343,-187862,14304,1.031627778,128,17.26101366,239332,6355.46875,11648,128
-18.90603589,-262141,-13.51451141,-187385,14323,1.032998089,128,17.27853921,239575,6357.421875,11712,128
0.036349301,504,-13.56348199,-188064,15504,1.118173733,128,17.29209808,239763,6359.375,11776,128
0.00396669,55,-13.58028633,-188297,13250,0.955611581,128,17.2591385,239306,6361.328125,11840,128
-14.16584184,-196416,-13.5564862,-187967,16327,1.177529833,128,17.31431154,240071,6363.28125,11904,128
4.726563063,65536,-13.49604827,-187129,14384,1.037397508,128,17.32563464,240228,6365.234375,11968,128
-18.9057474,-262137,-13.46215111,-186659,15247,1.099638474,128,17.28546289,239671,6367.1875,12032,128
4.80034349,66559,-13.53160423,-187622,14332,1.033647184,128,17.33255831,240324,6369.140625,12096,128
-18.87141751,-261661,-13.53109938,-187615,16159,1.165413399,128,17.36429183,240764,6371.09375,12160,128
-18.83239971,-261120,-13.47758513,-186873,16369,1.180558941,128,17.36082999,240716,6373.046875,12224,128
-17.74091098,-245986,-13.50376529,-187236,15367,1.108293069,128,17.33904926,240414,6375,12288,128
-18.01547802,-249793,-13.48234516,-186939,15865,1.144209641,128,17.34662203,240519,6376.953125,12352,128
0.733909694,10176,-13.45551592,-186567,15360,1.107788218,128,17.35469965,240631,6378.90625,12416,128
-18.31088821,-253889,-13.57098264,-188168,15103,1.089252959,128,17.27998165,239595,6380.859375,12480,128
4.747261971,65823,-13.59687431,-188527,13232,0.954313392,128,17.27990952,239594,6382.8125,12544,128
-17.98360026,-249351,-13.47902757,-186893,16351,1.179260752,128,17.35513238,240637,6384.765625,12608,128
0.019544961,271,-13.46719962,-186729,15484,1.1167313,128,17.38145678,241002,6386.71875,12672,128
4.728582469,65564,-13.54790372,-187848,15350,1.107067002,128,17.35231964,240598,6388.671875,12736,128
0.904765833,12545,-13.56456382,-188079,16380,1.181352279,128,17.34438626,240488,6390.625,12800,128
0.145325082,2015,-13.49518281,-187117,14360,1.035666589,128,17.30169026,239896,6392.578125,12864,128
4.785414313,66352,-13.52965695,-187595,16380,1.181352279,128,17.35361783,240616,6394.53125,12928,128
-18.09308089,-250869,-13.44037037,-186357,16143,1.164259453,128,17.34604506,240511,6396.484375,12992,128
1.177169225,16322,-13.44505828,-186422,16350,1.17918863,128,17.34828083,240542,6398.4375,13056,128
-18.6806558,-259016,-13.64079638,-189136,15377,1.109014286,128,17.36609487,240789,6400.390625,13120,128
-17.79853616,-246785,-13.53427273,-187659,16379,1.181280158,128,17.34575657,240507,6402.34375,13184,128
-14.03378714,-194585,-13.47996515,-186906,14591,1.052326685,128,17.34842507,240544,6404.296875,13248,128
5.315075554,73696,-13.59059973,-188440,15358,1.107643975,128,17.32534615,240224,6406.25,13312,128
0.678520284,9408,-13.43272548,-186251,15496,1.11759676,128,17.39184229,241146,6408.203125,13376,128
-13.57076628,-188165,-13.41375749,-185988,16353,1.179404995,128,17.4425438,241849,6410.15625,13440,128
-17.72489997,-245764,-13.39688103,-185754,14339,1.034152035,128,17.45509296,242023,6412.109375,13504,128
-17.87210022,-247805,-13.48667246,-186999,16337,1.178251049,128,17.38145678,241002,6414.0625,13568,128
-13.52944059,-187592,-13.46518021,-186701,16335,1.178106806,128,17.36876337,240826,6416.015625,13632,128
4.767960878,66110,-13.48515791,-186978,15878,1.145147222,128,17.39090471,241133,6417.96875,13696,128
-14.17687645,-196569,-13.47808999,-186880,14391,1.03790236,128,17.42307096,241579,6419.921875,13760,128
4.763417216,66047,-13.49828404,-187160,16348,1.179044387,128,17.43345647,241723,6421.875,13824,128
4.735073416,65654,-13.51912719,-187449,15870,1.144570249,128,17.4028769,241299,6423.828125,13888,128
4.726779428,65539,-13.46417051,-186687,14390,1.037830238,128,17.41225271,241429,6425.78125,13952,128
5.449149662,75555,-13.47066146,-186777,16256,1.172409197,128,17.42292671,241577,6427.734375,14016,128
-14.10598089,-195586,-13.44505828,-186422,16319,1.17695286,128,17.42271035,241574,6429.6875,14080,128
-17.72554907,-245773,-13.44181281,-186377,14351,1.035017495,128,17.44283228,241853,6431.640625,14144,128
-18.27901045,-253447,-13.44743829,-186455,12815,0.924238673,128,17.46951729,242223,6433.59375,14208,128
5.84358285,81024,-13.43157154,-186235,14336,1.03393567,128,17.48011917,242370,6435.546875,14272,128
4.943504923,68544,-13.38981311,-185656,16256,1.172409197,128,17.52231032,242955,6437.5,14336,128
-13.40430956,-185857,-13.40690594,-185893,15423,1.112331881,128,17.51495391,242853,6439.453125,14400,128
-13.01607883,-180474,-13.42226784,-186106,13827,0.997225761,128,17.50471264,242711,6441.40625,14464,128
-14.17283764,-196513,-13.56369836,-188067,15567,1.122717395,128,17.37027793,240847,6443.359375,14528,128
-13.45017892,-186493,-13.44960194,-186485,14735,1.0627122,128,17.45783358,242061,6445.3125,14592,128
-13.95928549,-193552,-13.35454564,-185167,16355,1.179549239,128,17.54380256,243253,6447.265625,14656,128
4.763272972,66045,-13.38599067,-185603,14460,1.042878752,128,17.52353639,242972,6449.21875,14720,128
-17.81671081,-247037,-13.39594345,-185741,15879,1.145219343,128,17.52209395,242952,6451.171875,14784,128
5.02089143,69617,-13.3681045,-185355,15872,1.144714492,128,17.57142515,243636,6453.125,14848,128
-14.11997248,-195780,-13.45977109,-186626,16159,1.165413399,128,17.53262371,243098,6455.078125,14912,128
-14.17867949,-196594,-13.3991168,-185785,12419,0.895678508,128,17.57207424,243645,6457.03125,14976,128
-13.884279,-192512,-13.28350583,-184182,16383,1.181568644,128,17.56962211,243611,6458.984375,15040,128
7.089844595,98304,-13.37740819,-185484,15372,1.108653678,128,17.55779416,243447,6460.9375,15104,128
-13.50708288,-187282,-13.28494826,-184202,16135,1.16368248,128,17.56767482,243584,6462.890625,15168,128
5.889235841,81657,-13.41296415,-185977,16136,1.163754602,128,17.61491449,244239,6464.84375,15232,128
5.871782407,81415,-13.40394895,-185852,16240,1.171255251,128,17.58498401,243824,6466.796875,15296,128
5.575867364,77312,-13.33038489,-184832,14428,1.04057086,128,17.62053998,244317,6468.75,15360,128
5.481243787,76000,-13.40625684,-185884,16240,1.171255251,128,17.67737182,245105,6470.703125,15424,128
-13.90036212,-192735,-13.30463747,-184475,15115,1.090118419,128,17.61577995,244251,6472.65625,15488,128
5.617048814,77883,-13.28920344,-184261,14844,1.070573458,128,17.61354418,244220,6474.609375,15552,128
5.611639692,77808,-13.37416272,-185439,16114,1.162167926,128,17.6312861,244466,6476.5625,15616,128
5.83781312,80944,-13.35432927,-185164,16376,1.181063793,128,17.65018197,244728,6478.515625,15680,128
-13.89358269,-192641,-13.36031537,-185247,14375,1.036748414,128,17.6216218,244332,6480.46875,15744,128
5.835433106,80911,-13.35014622,-185106,15872,1.144714492,128,17.65104743,244740,6482.421875,15808,128
5.004952551,69396,-13.3450977,-185036,14574,1.051100618,128,17.64931651,244716,6484.375,15872,128
-13.14337351,-182239,-13.27261547,-184031,16333,1.177962563,128,17.68371852,245193,6486.328125,15936,128
-13.01680005,-180484,-13.36045961,-185249,14359,1.035594468,128,17.65544685,244801,6488.28125,16000,128
-13.88889478,-192576,-13.33247642,-184861,16263,1.172914049,128,17.67967971,245137,6490.234375,16064,128
-13.88600992,-192536,-13.34351103,-185014,16367,1.180414698,128,17.67744394,245106,6492.1875,16128,128
-14.10929848,-195632,-13.37365787,-185432,16383,1.181568644,128,17.65054258,244733,6494.140625,16192,128
4.800487733,66561,-13.31285933,-184589,14588,1.052110321,128,17.66792389,244974,6496.09375,16256,128
5.334620516,73967,-13.27903429,-184120,14526,1.04763878,128,17.6659766,244947,6498.046875,16320,128
-13.81504224,-191552,-13.32822124,-184802,3,2.16E-04,128,17.65573533,244805,6500,16384,128
5.871277555,81408,-13.36334447,-185289,15872,1.144714492,128,17.56868453,243598,6501.953125,16448,128
-13.0349747,-180736,-13.40337198,-185844,14887,1.073674688,128,17.61664541,244263,6503.90625,16512,128
5.761003585,79879,-13.40373259,-185849,15360,1.107788218,128,17.60287018,244072,6505.859375,16576,128
4.730024902,65584,-13.39125554,-185676,14316,1.032493238,128,17.57084818,243628,6507.8125,16640,128
4.800271368,66558,-13.370773,-185392,16380,1.181352279,128,17.62746365,244413,6509.765625,16704,128
4.836404304,67059,-13.18563678,-182825,230,0.016587975,128,17.74119946,245990,6511.71875,16768,128
-13.00266421,-180288,-13.37524454,-185454,15363,1.108004583,128,17.58866222,243875,6513.671875,16832,128
-14.1740637,-196530,-13.39904468,-185784,13305,0.959578271,128,17.5002411,242649,6515.625,16896,128
5.670418819,78623,-13.45277529,-186529,13416,0.967583772,128,17.51985818,242921,6517.578125,16960,128
-14.11506821,-195712,-13.37654273,-185472,13855,0.999245167,128,17.54214377,243230,6519.53125,17024,128
-14.03090227,-194545,-13.44029825,-186356,12791,0.922507754,128,17.52548367,242999,6521.484375,17088,128
4.871888145,67551,-13.50419802,-187242,16344,1.178755901,128,17.42170065,241560,6523.4375,17152,128
-13.55425043,-187936,-13.44772678,-186459,13249,0.95553946,128,17.49966413,242641,6525.390625,17216,128
-13.03454197,-180730,-13.43842309,-186330,13071,0.94270181,128,17.4692288,242219,6527.34375,17280,128
-14.17052974,-196481,-13.55432255,-187937,12259,0.884139047,128,17.41456061,241461,6529.296875,17344,128
-13.52417571,-187519,-13.35937778,-185234,14623,1.054634578,128,17.5579384,243449,6531.25,17408,128
-17.76269171,-246288,-13.34452073,-185028,15873,1.144786614,128,17.54589409,243282,6533.203125,17472,128
5.498697221,76242,-13.47845059,-186885,14078,1.01532829,128,17.50132293,242664,6535.15625,17536,128
-13.20914843,-183151,-13.41101687,-185950,16375,1.180991671,128,17.41831093,241513,6537.109375,17600,128
4.735650389,65662,-13.464459,-186691,12318,0.888394223,128,17.36876337,240826,6539.0625,17664,128
-13.29122285,-184289,-13.47369057,-186819,15351,1.107139123,128,17.3965302,241211,6541.015625,17728,128
4.833880047,67024,-13.48616761,-186992,15364,1.108076705,128,17.38044708,240988,6542.96875,17792,128
4.744954079,65791,-13.48047,-186913,15416,1.111827029,128,17.36861913,240824,6544.921875,17856,128
-13.22660187,-183393,-13.52201206,-187489,16351,1.179260752,128,17.41282969,241437,6546.875,17920,128
4.727428523,65548,-13.56290502,-188056,16376,1.181063793,128,17.41434424,241458,6548.828125,17984,128
-13.58670516,-188386,-13.51328534,-187368,16129,1.163249751,128,17.30666665,239965,6550.78125,18048,128
0.737948506,10232,-13.44159644,-186374,16240,1.171255251,128,17.38073556,240992,6552.734375,18112,128
4.870517834,67532,-13.59168155,-188455,14336,1.03393567,128,17.30947939,240004,6554.6875,18176,128
-14.15718724,-196296,-13.56737656,-188118,14111,1.017708304,128,17.26671127,239411,6556.640625,18240,128
4.761253567,66017,-13.48263365,-186943,14336,1.03393567,128,17.32549039,240226,6558.59375,18304,128
-13.07146824,-181242,-13.58266635,-188330,15423,1.112331881,128,17.28553501,239672,6560.546875,18368,128
-13.22054365,-183309,-13.52056962,-187469,16179,1.166855832,128,17.30241147,239906,6562.5,18432,128
-14.17096247,-196487,-13.47325784,-186813,15841,1.142478721,128,17.38340406,241029,6564.453125,18496,128
5.317888298,73735,-13.54739887,-187841,15420,1.112115516,128,17.30370966,239924,6566.40625,18560,128
-13.27384153,-184048,-13.56925172,-188144,13839,0.998091221,128,17.25603727,239263,6568.359375,18624,128
5.33346657,73951,-13.50917441,-187311,15998,1.153801817,128,17.25502756,239249,6570.3125,18688,128
0.69741615,9670,-13.46301657,-186671,16128,1.163177629,128,17.32794253,240260,6572.265625,18752,128
-13.58836396,-188409,-13.54833645,-187854,16287,1.174644968,128,17.28279439,239634,6574.21875,18816,128
4.799333787,66545,-13.49374038,-187097,16312,1.176448009,128,17.28805927,239707,6576.171875,18880,128
4.874196038,67583,-13.55605347,-187961,14464,1.043167239,128,17.27551011,239533,6578.125,18944,128
4.804742909,66620,-13.66207226,-189431,12336,0.889692413,128,17.19343569,238395,6580.078125,19008,128
-13.88435112,-192513,-13.59831674,-188547,13315,0.960299487,128,17.22170737,238787,6582.03125,19072,128
4.80034349,66559,-13.51768476,-187429,16380,1.181352279,128,17.28099135,239609,6583.984375,19136,128
4.865541442,67463,-13.46453112,-186692,16128,1.163177629,128,17.35729603,240667,6585.9375,19200,128
-13.28429917,-184193,-13.50931865,-187313,16383,1.181568644,128,17.29058353,239742,6587.890625,19264,128
4.763272972,66045,-13.5521589,-187907,16096,1.160869737,128,17.29822842,239848,6589.84375,19328,128
-18.31449429,-253939,-13.52821452,-187575,14335,1.033863549,128,17.27666405,239549,6591.796875,19392,128
5.658374507,78456,-13.53463334,-187664,13880,1.001048207,128,17.25221482,239210,6593.75,19456,128
4.804382301,66615,-13.51104957,-187337,15872,1.144714492,128,17.26094154,239331,6595.703125,19520,128
1.164259453,16143,-13.49431735,-187105,14416,1.0397054,128,17.33356802,240338,6597.65625,19584,128
4.768177243,66113,-13.54523522,-187811,13936,1.005087019,128,17.25264755,239216,6599.609375,19648,128
4.763272972,66045,-13.5671602,-188115,14080,1.015472533,128,17.22899165,238888,6601.5625,19712,128
-18.76294658,-260157,-13.46373778,-186681,16375,1.180991671,128,17.3108497,240023,6603.515625,19776,128
5.317888298,73735,-13.56824202,-188130,14332,1.033647184,128,17.24168506,239064,6605.46875,19840,128
-14.16302909,-196377,-13.54004246,-187739,14335,1.033863549,128,17.25733546,239281,6607.421875,19904,128
-13.29223255,-184303,-13.55374557,-187929,13425,0.968232866,128,17.30709938,239971,6609.375,19968,128
1.181568644,16383,-13.53780669,-187708,16320,1.177024982,128,17.25156572,239201,6611.328125,20032,128
-17.98381662,-249354,-13.4778015,-186876,15227,1.098196041,128,17.3441699,240485,6613.28125,20096,128
-18.90625225,-262144,-13.56312139,-188059,15613,1.12603499,128,17.25928274,239308,6615.234375,20160,128
0.662365039,9184,-13.46352142,-186678,14338,1.034079913,128,17.34842507,240544,6617.1875,20224,128
-14.10129298,-195521,-13.52359873,-187511,14723,1.06184674,128,17.28207317,239624,6619.140625,20288,128
5.321710744,73788,-13.53521032,-187672,14332,1.033647184,128,17.27601496,239540,6621.09375,20352,128
0.018463137,256,-13.60379798,-188623,13342,0.962246771,128,17.23750201,239006,6623.046875,20416,128
1.180991671,16375,-13.53643638,-187689,15566,1.122645274,128,17.22221222,238794,6625,20480,128
-18.27857772,-253441,-13.5531686,-187921,14081,1.015544655,128,17.26959613,239451,6626.953125,20544,128
0.035123233,487,-13.5308109,-187611,14582,1.051677591,128,17.31409518,240068,6628.90625,20608,128
1.171255251,16240,-13.56463594,-188080,16128,1.163177629,128,17.28207317,239624,6630.859375,20672,128
-18.75912413,-260104,-13.44397646,-186407,15369,1.108437313,128,17.35599784,240649,6632.8125,20736,128
-18.30396453,-253793,-13.48508578,-186977,14351,1.035017495,128,17.30544058,239948,6634.765625,20800,128
0.018391015,255,-13.49835616,-187161,14340,1.034224157,128,17.29967085,239868,6636.71875,20864,128
-17.98727846,-249402,-13.55612559,-187962,16135,1.16368248,128,17.30327693,239918,6638.671875,20928,128
-18.90589165,-262139,-13.51927144,-187451,14479,1.044249063,128,17.29180959,239759,6640.625,20992,128
-18.88786124,-261889,-13.51869446,-187443,14399,1.038479333,128,17.30277208,239911,6642.578125,21056,128
1.163033386,16126,-13.46554082,-186706,14836,1.069996485,128,17.31524912,240084,6644.53125,21120,128
-17.7313188,-245853,-13.55807287,-187989,14327,1.033286575,128,17.28077498,239606,6646.484375,21184,128
0.010313393,143,-13.57545418,-188230,15872,1.144714492,128,17.29231445,239766,6648.4375,21248,128
-17.7869967,-246625,-13.47859484,-186887,16369,1.180558941,128,17.35138206,240585,6650.390625,21312,128
0.007428528,103,-13.47628694,-186855,15296,1.103172434,128,17.36277728,240743,6652.34375,21376,128
-18.89846312,-262036,-13.523166,-187505,16383,1.181568644,128,17.30890242,239996,6654.296875,21440,128
0.047167545,654,-13.54047519,-187745,14064,1.014318587,128,17.2504839,239186,6656.25,21504,128
-18.18734386,-252176,-13.53939337,-187730,14819,1.068770417,128,17.26901916,239443,6658.203125,21568,128
-18.25081089,-253056,-13.53960973,-187733,16243,1.171471616,128,17.2874823,239699,6660.15625,21632,128
0.006923676,96,-13.56578989,-188096,15884,1.145579951,128,17.32044188,240156,6662.109375,21696,128
-18.90452133,-262120,-13.53225333,-187631,14465,1.04323936,128,17.31012849,240013,6664.0625,21760,128
0.595436167,8256,-13.47260874,-186804,15054,1.085719,128,17.32866375,240270,6666.015625,21824,128
1.172481319,16257,-13.53023392,-187603,16280,1.174140116,128,17.27406767,239513,6667.96875,21888,128
-18.01994956,-249855,-13.56658322,-188107,16131,1.163393994,128,17.28798715,239706,6669.921875,21952,128
0.082507143,1144,-13.48905247,-187032,14704,1.06047643,128,17.30724362,239973,6671.875,22016,128
0,0,-13.46828144,-186744,15872,1.144714492,128,17.3248413,240217,6673.828125,22080,128
0.648012835,8985,-13.4024344,-185831,16382,1.181496523,128,17.35448329,240628,6675.78125,22144,128
0.145469325,2017,-13.48941308,-187037,14384,1.037397508,128,17.32188431,240176,6677.734375,22208,128
-18.27937106,-253452,-13.55280799,-187916,16015,1.155027885,128,17.32837526,240266,6679.6875,22272,128
0.591830086,8206,-13.57646389,-188244,14274,1.029464129,128,17.26346579,239366,6681.640625,22336,128
-0.534349148,-7409,-13.53268606,-187637,14385,1.03746963,128,17.33162073,240311,6683.59375,22400,128
-7.21E-05,-1,-13.58922942,-188421,15744,1.135482923,128,17.30010358,239874,6685.546875,22464,128
-0.480041561,-6656,-13.51465565,-187387,14385,1.03746963,128,17.31301335,240053,6687.5,22528,128
-0.139411108,-1933,-13.54595644,-187821,15888,1.145868438,128,17.25033966,239184,6689.453125,22592,128
-1.699113452,-23559,-13.48126334,-186924,15984,1.152792114,128,17.30435876,239933,6691.40625,22656,128
-0.44369226,-6152,-13.49099976,-187059,16382,1.181496523,128,17.29397324,239789,6693.359375,22720,128
-0.240020781,-3328,-13.49936587,-187175,14590,1.052254564,128,17.35772876,240673,6695.3125,22784,128
-2.287193213,-31713,-13.48285001,-186946,15336,1.106057299,128,17.35376207,240618,6697.265625,22848,128
-0.130468026,-1809,-13.52121872,-187478,14784,1.06624616,128,17.315177,240083,6699.21875,22912,128
-0.077963481,-1081,-13.51746839,-187426,14348,1.03480113,128,17.35390632,240620,6701.171875,22976,128
-1.246405989,-17282,-13.50722712,-187284,14847,1.070789822,128,17.3398426,240425,6703.125,23040,128
-2.215720679,-30722,-13.50564045,-187262,14623,1.054634578,128,17.34301595,240469,6705.078125,23104,128
-1.754935593,-24333,-13.55980379,-188013,14064,1.014318587,128,17.26187912,239344,6707.03125,23168,128
-2.28971747,-31748,-13.53030604,-187604,15361,1.10786034,128,17.36595063,240787,6708.984375,23232,128
-4.725697604,-65524,-13.51645869,-187412,15548,1.121347084,128,17.3675373,240809,6710.9375,23296,128
-4.694036209,-65085,-13.44354373,-186401,15423,1.112331881,128,17.36429183,240764,6712.890625,23360,128
-4.582968901,-63545,-13.51357383,-187372,14592,1.052398807,128,17.30226723,239904,6714.84375,23424,128
-1.361007257,-18871,-13.47268086,-186805,14464,1.043167239,128,17.29404536,239790,6716.796875,23488,128
-3.580838869,-49650,-13.55093283,-187890,15984,1.152792114,128,17.33587591,240370,6718.75,23552,128
-2.358665747,-32704,-13.53722972,-187700,15481,1.116514935,128,17.23425653,238961,6720.703125,23616,128
-4.468079146,-61952,-13.6105053,-188716,14023,1.0113616,128,17.26065305,239327,6722.65625,23680,128
-4.130694167,-57274,-13.50073618,-187194,15359,1.107716096,128,17.35015599,240568,6724.609375,23744,128
-4.136391775,-57353,-13.59088821,-188444,13824,0.997009396,128,17.25567666,239258,6726.5625,23808,128
-4.468151268,-61953,-13.41382961,-185989,5,3.61E-04,128,17.35109357,240581,6728.515625,23872,128
-4.579218576,-63493,-13.46229535,-186661,15487,1.116947665,128,17.37316279,240887,6730.46875,23936,128
-0.042119031,-584,-13.47260874,-186804,16135,1.16368248,128,17.33940987,240419,6732.421875,24000,128
-2.326499501,-32258,-13.47534936,-186842,16352,1.179332874,128,17.36876337,240826,6734.375,24064,128
-4.723029104,-65487,-13.49301916,-187087,14456,1.042590266,128,17.31553761,240088,6736.328125,24128,128
-4.579218576,-63493,-13.45082801,-186502,14820,1.068842538,128,17.30544058,239948,6738.28125,24192,128
-4.135814802,-57345,-13.60480769,-188637,12785,0.922075024,128,17.2391608,239029,6740.234375,24256,128
-2.328158299,-32281,-13.55605347,-187961,16255,1.172337076,128,17.28762654,239701,6742.1875,24320,128
-4.606696916,-63874,-13.49770707,-187152,14841,1.070357093,128,17.30695514,239969,6744.140625,24384,128
-4.726058212,-65529,-13.49258643,-187081,14463,1.043095117,128,17.30767635,239979,6746.09375,24448,128
-4.029579643,-55872,-13.48198455,-186934,15262,1.100720298,128,17.34770386,240534,6748.046875,24512,128
-0.480185804,-6658,-13.48155182,-186928,15344,1.106634272,128,17.35231964,240598,6750,24576,128
-0.03231049,-448,-13.53809518,-187712,14529,1.047855144,128,17.35080509,240577,6751.953125,24640,128
-0.032454733,-450,-13.43856733,-186332,16287,1.174644968,128,17.32238916,240183,6753.90625,24704,128
-4.135742681,-57344,-13.4718154,-186793,14975,1.080021391,128,17.32700495,240247,6755.859375,24768,128
-4.717836346,-65415,-13.54552371,-187815,15990,1.153224844,128,17.32462493,240214,6757.8125,24832,128
-4.7086769,-65288,-13.5398261,-187736,16255,1.172337076,128,17.28979019,239731,6759.765625,24896,128
-0.516967835,-7168,-13.51321322,-187367,14354,1.035233859,128,17.32202856,240178,6761.71875,24960,128
-4.579074333,-63491,-13.48811489,-187019,14336,1.03393567,128,17.31438366,240072,6763.671875,25024,128
-0.025458935,-353,-13.39103918,-185673,15614,1.126107112,128,17.44203895,241842,6765.625,25088,128
-1.763157459,-24447,-13.464459,-186691,15487,1.116947665,128,17.36421971,240763,6767.578125,25152,128
-2.340779584,-32456,-13.49251431,-187080,14513,1.046701198,128,17.44095712,241827,6769.53125,25216,128
-1.262489112,-17505,-13.51984841,-187459,16383,1.181568644,128,17.37258582,240879,6771.484375,25280,128
-1.44E-04,-2,-13.44505828,-186422,15371,1.108581556,128,17.36414759,240762,6773.4375,25344,128
-1.479430971,-20513,-13.40676169,-185891,16143,1.164259453,128,17.41405575,241454,6775.390625,25408,128
-0.516967835,-7168,-13.50463075,-187248,16382,1.181496523,128,17.36587851,240786,6777.34375,25472,128
-4.726563063,-65536,-13.52006477,-187462,16097,1.160941858,128,17.36926822,240833,6779.296875,25536,128
-4.719711509,-65441,-13.57278568,-188193,14558,1.049946672,128,17.2975072,239838,6781.25,25600,128
-0.016299488,-226,-13.47635907,-186856,15799,1.139449613,128,17.37777858,240951,6783.203125,25664,128
-2.361983342,-32750,-13.5044865,-187246,14399,1.038479333,128,17.33111588,240304,6785.15625,25728,128
-1.216403391,-16866,-13.47159904,-186790,16353,1.179404995,128,17.42696553,241633,6787.109375,25792,128
-2.336163799,-32392,-13.41397386,-185991,16060,1.158273358,128,17.47968644,242364,6789.0625,25856,128
-0.581733058,-8066,-13.43222063,-186244,16382,1.181496523,128,17.3702058,240846,6791.015625,25920,128
-3.546725338,-49177,-13.40553563,-185874,16320,1.177024982,128,17.42602794,241620,6792.96875,25984,128
-0.223504928,-3099,-13.44541889,-186427,16128,1.163177629,128,17.41456061,241461,6794.921875,26048,128
-2.290366565,-31757,-13.44210129,-186381,15984,1.152792114,128,17.37172036,240867,6796.875,26112,128
-4.709325994,-65297,-13.48162395,-186929,16352,1.179332874,128,17.35361783,240616,6798.828125,26176,128
-0.572357246,-7936,-13.49150461,-187066,16158,1.165341278,128,17.37828343,240958,6800.78125,26240,128
-0.294256245,-4080,-13.47462815,-186832,14337,1.034007792,128,17.33811168,240401,6802.734375,26304,128
-2.082295666,-28872,-13.43351882,-186262,16259,1.172625562,128,17.42047458,241543,6804.6875,26368,128
-0.555408663,-7701,-13.48429245,-186966,16188,1.167504927,128,17.36429183,240764,6806.640625,26432,128
-2.077102909,-28800,-13.43186002,-186239,16380,1.181352279,128,17.38160102,241004,6808.59375,26496,128
-2.328374663,-32284,-13.45868927,-186611,15822,1.14110841,128,17.38376467,241034,6810.546875,26560,128
-1.209407593,-16769,-13.42587393,-186156,16144,1.164331575,128,17.41218059,241428,6812.5,26624,128
-1.744694322,-24191,-13.44830375,-186467,15600,1.125097409,128,17.37265794,240880,6814.453125,26688,128
-1.744694322,-24191,-13.52208418,-187490,15600,1.125097409,128,17.32073037,240160,6816.40625,26752,128
-1.663845976,-23070,-13.47967666,-186902,14756,1.064226754,128,17.34929053,240556,6818.359375,26816,128
-0.111932768,-1552,-13.44981831,-186488,15367,1.108293069,128,17.33162073,240311,6820.3125,26880,128
-0.18463137,-2560,-13.47765726,-186874,16376,1.181063793,128,17.37402825,240899,6822.265625,26944,128
-2.298660552,-31872,-13.45075589,-186501,15860,1.143849032,128,17.28769866,239702,6824.21875,27008,128
-2.326066771,-32252,-13.53896064,-187724,16003,1.154162425,128,17.32787041,240259,6826.171875,27072,128
-2.326066771,-32252,-13.43496125,-186282,16003,1.154162425,128,17.3371741,240388,6828.125,27136,128
-3.99005699,-55324,-13.3531032,-185147,15935,1.149258155,128,17.41037755,241403,6830.078125,27200,128
-1.50770265,-20905,-13.43488913,-186281,14371,1.036459927,128,17.3215237,240171,6832.03125,27264,128
-0.600917411,-8332,-13.60011978,-188572,14584,1.051821834,128,17.29209808,239763,6833.984375,27328,128
-0.470882114,-6529,-13.46950751,-186761,14399,1.038479333,128,17.32282189,240189,6835.9375,27392,128
-2.254305751,-31257,-13.48472518,-186972,16249,1.171904346,128,17.30767635,239979,6837.890625,27456,128
-0.290866529,-4033,-13.51141018,-187342,15994,1.153513331,128,17.29721872,239834,6839.84375,27520,128
-1.467026051,-20341,-13.48652822,-186997,16128,1.163177629,128,17.33688561,240384,6841.796875,27584,128
-2.326499501,-32258,-13.52900786,-187586,14327,1.033286575,128,17.27738527,239559,6843.75,27648,128
-9.01181388,-124953,-13.46200686,-186657,8129,0.58627672,128,17.34142927,240447,6845.703125,27712,128
0.00223577,31,-13.46200686,-186657,0,0,128,17.34142927,240447,6847.65625,27776,152
-7.163769265,-99329,-395.055958,-5477635,3,2.16E-04,10,2.16E-04,3,6849.609375,27840,128
0.064837344,899,0.067433723,935,0,0,11,-530.5567039,-7356416,6851.5625,27904,128
18.44705384,255777,0.067433723,935,0,0,11,-530.5567039,-7356416,6853.515625,27968,128
0.036854152,511,0.067073115,930,0,0,155,159.5215034,2211840,6855.46875,28032,0
4.135742681,57344,0.067073115,930,12288,0.886230574,155,159.5215034,2211840,6857.421875,28096,128
-4.726563063,-65536,-302.5000361,-4194304,0,0,7,-13.55655832,-187968,6859.375,28160,0
-9.453126127,-131072,-13.55554861,-187954,13368,0.964121933,128,17.21240368,238658,6861.328125,28224,0
4.578857968,63488,282.412143,3915776,16256,1.172409197,0,-174.9359149,-2425568,6863.28125,28288,0
-4.710407819,-65312,-13.55893833,-188001,13935,1.005014897,128,17.2594991,239311,6865.234375,28352,128
-1.181640766,-16384,-13.50362104,-187234,14315,1.032421116,128,17.27363494,239507,6867.1875,28416,128
-0.267715486,-3712,-13.53694123,-187696,14335,1.033863549,128,17.26137427,239337,6869.140625,28480,128
-3.810618378,-52836,-13.50369316,-187235,14272,1.029319886,128,17.24233416,239073,6871.09375,28544,128
-0.242472916,-3362,-13.57660813,-188246,12408,0.89488517,128,17.1997824,238483,6873.046875,28608,128
-0.548989838,-7612,-13.49337977,-187092,15376,1.108942164,128,17.29159323,239756,6875,28672,128
-0.147705096,-2048,-13.41801267,-186047,15335,1.105985177,128,17.33955411,240421,6876.953125,28736,128
-4.652710516,-64512,-13.53773457,-187707,14077,1.015256168,128,17.23706928,239000,6878.90625,28800,128
-4.578930089,-63489,-13.64122911,-189142,8672,0.625438765,128,17.14987423,237791,6880.859375,28864,128
-0.588584612,-8161,-13.48753792,-187011,14350,1.034945373,128,17.26692763,239414,6882.8125,28928,128
-0.590820383,-8192,-13.47289723,-186808,14545,1.049009091,128,17.32787041,240259,6884.765625,28992,128
-0.034257774,-475,-13.48919672,-187034,16250,1.171976468,128,17.34207837,240456,6886.71875,29056,128
-0.562548704,-7800,-13.5328303,-187639,15423,1.112331881,128,17.28438107,239656,6888.671875,29120,128
-0.572429368,-7937,-13.48220092,-186937,16380,1.181352279,128,17.28099135,239609,6890.625,29184,128
-0.517112078,-7170,-13.5151605,-187394,13422,0.968016501,128,17.23404017,238958,6892.578125,29248,128
-4.662086327,-64642,-13.57264144,-188191,12766,0.920704713,128,17.22682801,238858,6894.53125,29312,128
-0.064765223,-898,-13.53268606,-187637,13432,0.968737718,128,17.28034225,239600,6896.484375,29376,128
-4.722452131,-65479,-13.55598134,-187960,15611,1.125890747,128,17.2675046,239422,6898.4375,29440,128
-3.8390343,-53230,-13.59968705,-188566,12931,0.932604782,128,17.19220962,238378,6900.390625,29504,128
-4.722019401,-65473,-13.5718481,-188180,13343,0.962318893,128,17.23411229,238959,6902.34375,29568,128
-0.007140041,-99,-13.61894353,-188833,12528,0.903539765,128,17.21766856,238731,6904.296875,29632,128
-4.136031167,-57348,-13.63538726,-189061,12350,0.890702115,128,17.1717992,238095,6906.25,29696,128
-0.021203759,-294,-13.62889631,-188971,12599,0.908660401,128,17.15874519,237914,6908.203125,29760,128
-2.104292763,-29177,-13.6382,-189100,12312,0.887961493,128,17.16227915,237963,6910.15625,29824,128
-4.606624795,-63873,-13.56319351,-188060,12408,0.89488517,128,17.12506439,237447,6912.109375,29888,128
-4.432595305,-61460,-13.54372067,-187790,8114,0.585194896,128,17.16321673,237976,6914.0625,29952,128
-4.052947051,-56196,-13.51241988,-187356,14528,1.047783023,128,17.17338588,238117,6916.015625,30016,128
-4.719927874,-65444,-13.57494933,-188223,12807,0.9236617,128,17.16523614,238004,6917.96875,30080,128
-4.141512411,-57424,-13.5151605,-187394,8160,0.588512491,128,17.13912811,237642,6919.921875,30144,128
-4.523468557,-62720,-13.28934768,-184263,561,0.040460234,128,17.41290181,241438,6921.875,30208,128
-4.61527939,-63993,-13.2910786,-184287,15,0.001081824,128,17.42018609,241539,6923.828125,30272,128
-4.421704939,-61309,-13.21217754,-183193,136,0.009808542,128,17.55635173,243427,6925.78125,30336,128
-4.140502708,-57410,-13.12015034,-181917,14,0.001009703,128,17.72720787,245796,6927.734375,30400,128
-4.32037405,-59904,-13.17085185,-182620,124,0.008943082,128,17.76016745,246253,6929.6875,30464,128
-4.376051948,-60676,-13.16623606,-182556,2044,0.147416609,128,17.83971761,247356,6931.640625,30528,128
-4.430936507,-61437,-13.25631598,-183805,16320,1.177024982,128,17.71083626,245569,6933.59375,30592,128
-4.426537088,-61376,-13.29944471,-184403,16134,1.163610359,128,17.66265901,244901,6935.546875,30656,128
-4.726202455,-65531,-13.27593306,-184077,15906,1.147166627,128,17.67549666,245079,6937.5,30720,128
-2.149729389,-29807,-13.43640368,-186302,16358,1.179765604,128,17.40345387,241307,6939.453125,30784,128
-2.072054395,-28730,-13.4408031,-186363,15404,1.11096157,128,17.34604506,240511,6941.40625,30848,128
-3.876826033,-53754,-13.40899747,-185922,14579,1.051461226,128,17.2664949,239408,6943.359375,30912,128
-3.762152643,-52164,-13.57999785,-188293,8957,0.645993429,128,17.11958314,237371,6945.3125,30976,128
-4.151609439,-57564,-13.60588951,-188652,4094,0.295265948,128,17.08748902,236926,6947.265625,31040,128
-4.135814802,-57345,-13.57819481,-188268,3900,0.281274352,128,17.05705369,236504,6949.21875,31104,128
-3.689237677,-51153,-13.56492443,-188084,6627,0.477950034,128,17.03844631,236246,6951.171875,31168,128
-2.108836425,-29240,-13.66293772,-189443,3232,0.233097104,128,17.03246022,236163,6953.125,31232,128
-4.486614405,-62209,-13.62572296,-188927,4094,0.295265948,128,17.1937963,238400,6955.078125,31296,128
-2.361911221,-32749,-13.57011718,-188156,12288,0.886230574,128,17.11193825,237265,6957.03125,31360,128
-0.894236075,-12399,-13.67743417,-189644,4071,0.293607151,128,17.00202489,235741,6958.984375,31424,128
-2.068448313,-28680,-13.60278828,-188609,6655,0.47996944,128,17.03346992,236177,6960.9375,31488,128
-4.653648097,-64525,-13.56355412,-188065,8160,0.588512491,128,17.06491495,236613,6962.890625,31552,128
-1.765537472,-24480,-13.60437496,-188631,7120,0.513505997,128,17.05251003,236441,6964.84375,31616,128
-4.724327293,-65505,-13.47794574,-186878,8169,0.589161585,128,17.27291373,239497,6966.796875,31680,128
-3.841486435,-53264,-13.36839299,-185359,16131,1.163393994,128,17.34546809,240503,6968.75,31744,128
-4.58073313,-63514,-13.44303887,-186394,16381,1.181424401,128,17.27810648,239569,6970.703125,31808,128
-3.721476045,-51600,-13.47001236,-186768,15879,1.145219343,128,17.25596514,239262,6972.65625,31872,128
-3.580189774,-49641,-13.46005958,-186630,16127,1.163105507,128,17.28603986,239679,6974.609375,31936,128
-3.544994419,-49153,-13.45421773,-186549,14704,1.06047643,128,17.33775107,240396,6976.5625,32000,128
-2.21665826,-30735,-13.51285261,-187362,15872,1.144714492,128,17.2621676,239348,6978.515625,32064,128
-1.475320038,-20456,-13.59175367,-188456,14351,1.035017495,128,17.26526883,239391,6980.46875,32128,128
-1.774841163,-24609,-13.55828924,-187992,12784,0.922002902,128,17.2981563,239847,6982.421875,32192,128
-2.363281532,-32768,-13.49085551,-187057,14456,1.042590266,128,17.31553761,240088,6984.375,32256,128
-2.362271829,-32754,-13.55691893,-187973,14209,1.024776223,128,17.27774588,239564,6986.328125,32320,128
-3.992148518,-55353,-13.39803498,-185770,15412,1.111538543,128,17.41441636,241459,6988.28125,32384,128
-2.211104895,-30658,-13.45883351,-186613,14791,1.066751011,128,17.30544058,239948,6990.234375,32448,128
-2.358737869,-32705,-13.54797584,-187849,15392,1.11009611,128,17.27298585,239498,6992.1875,32512,128
-3.766552063,-52225,-13.55785651,-187986,14843,1.070501336,128,17.28365985,239646,6994.140625,32576,128
-2.361045761,-32737,-13.47744089,-186871,14336,1.03393567,128,17.38174526,241006,6996.09375,32640,128
-0.477805791,-6625,-13.57956512,-188287,15247,1.099638474,128,17.27608708,239541,6998.046875,32704,128
-0.295193827,-4093,-13.46489173,-186697,16316,1.176736495,128,17.28106347,239610,7000,32768,128
-0.554110474,-7683,-13.46741598,-186732,16257,1.172481319,128,17.31863884,240131,7001.953125,32832,128
-0.500668347,-6942,-13.48977369,-187042,16368,1.18048682,128,17.31791762,240121,7003.90625,32896,128
-0.554543204,-7689,-13.51025623,-187326,16323,1.177241347,128,17.34510748,240498,7005.859375,32960,128
-1.707840169,-23680,-13.46575719,-186709,15811,1.140315073,128,17.3878756,241091,7007.8125,33024,128
-2.18341019,-30274,-13.4094302,-185928,15884,1.145579951,128,17.40590601,241341,7009.765625,33088,128
-0.512640537,-7108,-13.50232285,-187216,14816,1.068554052,128,17.30933515,240002,7011.71875,33152,128
-2.250266939,-31201,-13.49958223,-187178,14367,1.036171441,128,17.34373717,240479,7013.671875,33216,128
-0.52338666,-7257,-13.48306638,-186949,16351,1.179260752,128,17.32549039,240226,7015.625,33280,128
-0.586493085,-8132,-13.44404858,-186408,14574,1.051100618,128,17.35037236,240571,7017.578125,33344,128
-18.61149116,-258057,-13.47520512,-186840,16263,1.172914049,128,17.35628633,240653,7019.53125,33408,128
-0.223793414,-3103,-13.46265596,-186666,15610,1.125818625,128,17.3595318,240698,7021.484375,33472,128
-0.361257239,-5009,-13.49388462,-187099,16335,1.178106806,128,17.32174007,240174,7023.4375,33536,128
-0.589089464,-8168,-13.54992313,-187876,13311,0.960011001,128,17.33926563,240417,7025.390625,33600,128
-1.773326608,-24588,-13.51393444,-187377,15336,1.106057299,128,17.39328473,241166,7027.34375,33664,128
-0.004038811,-56,-13.28076521,-184144,127,0.009159447,128,17.46216088,242121,7029.296875,33728,128
0.013847353,192,-13.45659774,-186582,12364,0.891711818,128,17.35982029,240702,7031.25,33792,128
-0.281562839,-3904,-13.57105477,-188169,15416,1.111827029,128,17.36169545,240728,7033.203125,33856,128
-0.223649171,-3101,-13.46049231,-186636,16383,1.181568644,128,17.33832804,240404,7035.15625,33920,128
-18.72169301,-259585,-13.46359354,-186679,16383,1.181568644,128,17.3078206,239981,7037.109375,33984,128
5.05E-04,7,-13.53066665,-187609,12824,0.924887767,128,17.28200105,239623,7039.0625,34048,128
0.895390021,12415,-13.45515531,-186562,16128,1.163177629,128,17.33630864,240376,7041.015625,34112,128
0.816921689,11327,-13.47470027,-186833,16256,1.172409197,128,17.38982289,241118,7042.96875,34176,128
0.609355642,8449,-13.5308109,-187611,15168,1.093940865,128,17.34207837,240456,7044.921875,34240,128
0.002019406,28,-13.51328534,-187368,16064,1.158561845,128,17.36991732,240842,7046.875,34304,128
-18.76063869,-260125,-13.44527464,-186425,16163,1.165701886,128,17.41780608,241506,7048.828125,34368,128
-18.28312138,-253504,-13.41794055,-186046,16141,1.16411521,128,17.35974817,240701,7050.78125,34432,128
-0.004327298,-60,-13.55973167,-188012,14348,1.03480113,128,17.28928534,239724,7052.734375,34496,128
-17.72670302,-245789,-13.46171838,-186653,15365,1.108148826,128,17.35744028,240669,7054.6875,34560,128
-17.86784504,-247746,-13.42868667,-186195,16383,1.181568644,128,17.40193932,241286,7056.640625,34624,128
0.028704408,398,-13.4681372,-186742,15872,1.144714492,128,17.35506026,240636,7058.59375,34688,128
0.620750859,8607,-13.47044509,-186774,16366,1.180342577,128,17.4158588,241479,7060.546875,34752,128
-18.20357122,-252401,-13.42075329,-186085,16319,1.17695286,128,17.42328732,241582,7062.5,34816,128
0.00223577,31,-13.44476979,-186418,15986,1.152936358,128,17.41989761,241535,7064.453125,34880,128
0.900077927,12480,-13.46337717,-186676,12408,0.89488517,128,17.39934294,241250,7066.40625,34944,128
0.816705324,11324,-13.38036518,-185525,15744,1.135482923,128,17.44160622,241836,7068.359375,35008,128
0.832572083,11544,-13.47210389,-186797,12356,0.891134845,128,17.40381448,241312,7070.3125,35072,128
1.024055007,14199,-13.47772938,-186875,12288,0.886230574,128,17.41946488,241529,7072.265625,35136,128
-18.23501625,-252837,-13.41757994,-186041,16319,1.17695286,128,17.4318698,241701,7074.21875,35200,128
-18.29812268,-253712,-13.37120573,-185398,15345,1.106706394,128,17.48870164,242489,7076.171875,35264,128
-18.74073312,-259849,-13.4671275,-186728,16383,1.181568644,128,17.39104895,241135,7078.125,35328,128
0.106163038,1472,-13.4661178,-186714,16270,1.1734189,128,17.37684099,240938,7080.078125,35392,128
-18.30165664,-253761,-13.52633936,-187549,16369,1.180558941,128,17.35275237,240604,7082.03125,35456,128
-18.89882373,-262041,-13.52561814,-187539,14847,1.070789822,128,17.35167055,240589,7083.984375,35520,128
0.702681029,9743,-13.46799296,-186740,15870,1.144570249,128,17.38910167,241108,7085.9375,35584,128
0.210234548,2915,-13.37834577,-185497,15296,1.103172434,128,17.49901503,242632,7087.890625,35648,128
-18.62007363,-258176,-13.35649292,-185194,16355,1.179549239,128,17.51567513,242863,7089.84375,35712,128
0.129241959,1792,-13.36731116,-185344,14304,1.031627778,128,17.54776925,243308,7091.796875,35776,128
-17.8703693,-247781,-13.43460064,-186277,14209,1.024776223,128,17.51322299,242829,7093.75,35840,128
0.004255176,59,-13.35382442,-185157,15576,1.12336649,128,17.51416058,242842,7095.703125,35904,128
0.626159981,8682,-13.37437908,-185442,14426,1.040426617,128,17.46627181,242178,7097.65625,35968,128
1.073097715,14879,-13.42407089,-186131,12336,0.889692413,128,17.43172555,241699,7099.609375,36032,128
-18.31305186,-253919,-13.42169087,-186098,12799,0.923084727,128,17.52916187,243050,7101.5625,36096,128
-18.87047993,-261648,-13.44008189,-186353,13315,0.960299487,128,17.50305384,242688,7103.515625,36160,128
-17.7890161,-246653,-13.35317532,-185148,16355,1.179549239,128,17.58267612,243792,7105.46875,36224,128
-17.79824767,-246781,-13.30636839,-184499,14465,1.04323936,128,17.59464831,243958,7107.421875,36288,128
0.888466345,12319,-13.29879562,-184394,14360,1.035666589,128,17.57575245,243696,7109.375,36352,128
1.149330276,15936,-13.37041239,-185387,14178,1.022540453,128,17.58080096,243766,7111.328125,36416,128
4.726635185,65537,-13.46431475,-186689,13056,0.941619985,128,17.54762501,243306,7113.28125,36480,128
-14.17860737,-196593,-13.31531147,-184623,16159,1.165413399,128,17.60387988,244086,7115.234375,36544,128
-13.8799517,-192452,-13.31877331,-184671,15887,1.145796316,128,17.64448436,244649,7117.1875,36608,128
4.744954079,65791,-13.39493375,-185727,14208,1.024704102,128,17.56774695,243585,7119.140625,36672,128
4.871383294,67544,-13.27802459,-184106,15134,1.09148873,128,17.61844845,244288,7121.09375,36736,128
-14.05044723,-194816,-13.31076781,-184560,14463,1.043095117,128,17.58548887,243831,7123.046875,36800,128
5.90380441,81859,-13.301392,-184430,14464,1.043167239,128,17.64397951,244642,7125,36864,128
-13.2937471,-184324,-13.29490105,-184340,14561,1.050163037,128,17.63106974,244463,7126.953125,36928,128
-13.86379646,-192228,-13.26836029,-183972,16353,1.179404995,128,17.71833691,245673,7128.90625,36992,128
5.899477112,81799,-13.31891755,-184673,16248,1.171832224,128,17.6596299,244859,7130.859375,37056,128
-13.94889998,-193408,-13.33961646,-184960,16335,1.178106806,128,17.65645655,244815,7132.8125,37120,128
5.907554735,81911,-13.28026036,-184137,15872,1.144714492,128,17.69792649,245390,7134.765625,37184,128
5.460472758,75712,-13.28992466,-184271,15992,1.153369087,128,17.68306943,245184,7136.71875,37248,128
5.880437002,81535,-13.29280952,-184311,16326,1.177457711,128,17.64354678,244636,7138.671875,37312,128
5.456938798,75663,-13.36305599,-185285,16240,1.171255251,128,17.65934141,244855,7140.625,37376,128
-13.00215936,-180281,-13.37005179,-185382,16351,1.179260752,128,17.70679745,245513,7142.578125,37440,128
-13.96036732,-193567,-13.34827105,-185080,3,2.16E-04,128,17.66806813,244976,7144.53125,37504,128
5.889884936,81666,-13.29194406,-184299,16260,1.172697684,128,17.67239543,245036,7146.484375,37568,128
-14.17968919,-196608,-13.2297031,-183436,16127,1.163105507,128,17.74761829,246079,7148.4375,37632,128
-13.01211214,-180419,-13.30932537,-184540,255,0.018391015,128,17.72417876,245754,7150.390625,37696,128
7.126698747,98815,-13.24859896,-183698,15456,1.114711894,128,17.724323,245756,7152.34375,37760,128
-13.23698738,-183537,-13.25292626,-183758,19,0.001370311,128,17.73708853,245933,7154.296875,37824,128
-13.14452745,-182255,-13.40113621,-185813,16275,1.173779508,128,17.63691159,244544,7156.25,37888,128
-10.63556023,-147467,-13.28393856,-184188,16371,1.180703185,128,17.70723018,245519,7158.203125,37952,128
7.590512942,105246,-13.21838,-183279,16254,1.172264954,128,17.71689447,245653,7160.15625,38016,128
-11.66899105,-161796,-13.29425195,-184331,1,7.21E-05,128,17.7259818,245779,7162.109375,38080,128
7.107947124,98555,-13.36767177,-185349,16332,1.177890441,128,17.62941094,244440,7164.0625,38144,128
5.903660167,81857,-13.28761676,-184239,16372,1.180775306,128,17.65450926,244788,7166.015625,38208,128
5.438259296,75404,-13.32021574,-184691,15804,1.139810221,128,17.68220397,245172,7167.96875,38272,128
-13.00619817,-180337,-13.29865137,-184392,16263,1.172914049,128,17.67874213,245124,7169.921875,38336,128
-11.68723782,-162049,-13.31898967,-184674,15887,1.145796316,128,17.68992098,245279,7171.875,38400,128
7.957900519,110340,-13.34394376,-185020,15484,1.1167313,128,17.59248466,243928,7173.828125,38464,128
-10.66599556,-147889,-13.39897256,-185783,14847,1.070789822,128,17.59976895,244029,7175.78125,38528,128
-10.03009916,-139072,-13.38519733,-185592,13103,0.945009702,128,17.56017417,243480,7177.734375,38592,128
-9.896241414,-137216,-13.43871158,-186334,12411,0.895101535,128,17.54315347,243244,7179.6875,38656,128
-10.03514767,-139142,-13.40957444,-185930,12687,0.915007104,128,17.52699823,243020,7181.640625,38720,128
7.094388258,98367,-13.45039528,-186496,13310,0.959938879,128,17.49677926,242601,7183.59375,38784,128
9.226952699,127936,-13.3970974,-185757,12414,0.8953179,128,17.50153929,242667,7185.546875,38848,128
5.585026811,77439,-13.37120573,-185398,15872,1.144714492,128,17.54841835,243317,7187.5,38912,128
7.320561686,101503,-13.36940269,-185373,15480,1.116442813,128,17.45343416,242000,7189.453125,38976,128
-11.70454701,-162289,-13.4894852,-187038,15879,1.145219343,128,17.42083519,241548,7191.40625,39040,128
-11.21635571,-155520,-13.49619251,-187131,16263,1.172914049,128,17.42610007,241621,7193.359375,39104,128
7.155331034,99212,-13.42017632,-186077,12504,0.901808846,128,17.46237725,242124,7195.3125,39168,128
8.864902123,122916,-13.47816211,-186881,16320,1.177024982,128,17.3541948,240624,7197.265625,39232,128
9.305925883,129031,-13.52619511,-187547,14592,1.052398807,128,17.34640567,240516,7199.21875,39296,128
-11.1426474,-154498,-13.47852272,-186886,16369,1.180558941,128,17.38426952,241041,7201.171875,39360,128
7.828297952,108543,-13.44181281,-186377,16240,1.171255251,128,17.39927082,241249,7203.125,39424,128
-11.17019786,-154880,-13.53319091,-187644,15343,1.10656215,128,17.34489111,240495,7205.078125,39488,128
-11.79801664,-163585,-13.49676949,-187139,14351,1.035017495,128,17.35181479,240591,7207.03125,39552,128
5.33346657,73951,-13.38873129,-185641,14448,1.042013293,128,17.46396392,242146,7208.984375,39616,128
-11.09584047,-153849,-13.49316341,-187089,15415,1.111754908,128,17.35931544,240695,7210.9375,39680,128
-10.84262143,-150338,-13.50131315,-187202,16355,1.179549239,128,17.35123782,240583,7212.890625,39744,128
-11.21159568,-155454,-13.57891602,-188278,16355,1.179549239,128,17.30306057,239915,7214.84375,39808,128
8.991187095,124667,-13.46633416,-186717,15872,1.144714492,128,17.31878308,240133,7216.796875,39872,128
8.880119786,123127,-13.66062983,-189411,14336,1.03393567,128,17.25243118,239213,7218.75,39936,128
-11.52546901,-159806,-13.50419802,-187242,14209,1.024776223,128,17.28257803,239631,7220.703125,40000,128
8.047619825,111584,-13.5308109,-187611,15378,1.109086407,128,17.27175978,239481,7222.65625,40064,128
-9.984446166,-138439,-13.44974619,-186487,14589,1.052182442,128,17.36133484,240723,7224.609375,40128,128
7.237477569,100351,-13.51970417,-187457,16352,1.179332874,128,17.36155121,240726,7226.5625,40192,128
5.904092896,81863,-13.47671967,-186861,16352,1.179332874,128,17.35520451,240638,7228.515625,40256,128
7.763172121,107640,-13.52633936,-187549,16048,1.157407899,128,17.34481899,240494,7230.46875,40320,128
-10.78304896,-149512,-13.42284482,-186114,15879,1.145219343,128,17.36407547,240761,7232.421875,40384,128
7.236900596,100343,-13.47729665,-186869,14392,1.037974481,128,17.27579859,239537,7234.375,40448,128
9.277942691,128643,-13.48703307,-187004,14332,1.033647184,128,17.29123262,239751,7236.328125,40512,128
0.073780426,1023,-13.52475268,-187527,13308,0.959794636,128,17.27197615,239484,7238.28125,40576,128
-10.02577186,-139012,-13.55251951,-187912,15361,1.10786034,128,17.29541568,239809,7240.234375,40640,128
-11.11574604,-154125,-13.48825914,-187021,16369,1.180558941,128,17.2958484,239815,7242.1875,40704,128
-11.11271693,-154083,-13.47138267,-186787,14471,1.04367209,128,17.33046679,240295,7244.140625,40768,128
-11.811864,-163777,-13.47015661,-186770,16159,1.165413399,128,17.33861653,240408,7246.09375,40832,128
-10.04380227,-139262,-13.53304667,-187642,16135,1.16368248,128,17.26584581,239399,7248.046875,40896,128
8.123780265,112640,-13.44109159,-186367,16352,1.179332874,128,17.30745999,239976,7250,40960,128
8.89490472,123332,-13.55569286,-187956,13438,0.969170447,128,17.23519412,238974,7251.953125,41024,128
-10.66830345,-147921,-13.58093543,-188306,12799,0.923084727,128,17.24103597,239055,7253.90625,41088,128
-9.665307959,-134014,-13.50477499,-187250,14339,1.034152035,128,17.32988981,240287,7255.859375,41152,128
-9.744497507,-135112,-13.54775948,-187846,12687,0.915007104,128,17.23858383,239021,7257.8125,41216,128
8.86922942,122976,-13.50758773,-187289,13630,0.9830178,128,17.31878308,240133,7259.765625,41280,128
-10.04336954,-139256,-13.5151605,-187394,16263,1.172914049,128,17.29974297,239869,7261.71875,41344,128
-9.968146678,-138213,-13.48400396,-186962,14343,1.034440522,128,17.29043928,239740,7263.671875,41408,128
8.236578493,114204,-13.46849781,-186747,16096,1.160869737,128,17.30255572,239908,7265.625,41472,128
-11.81633554,-163839,-13.48768216,-187013,14577,1.051316983,128,17.27630344,239544,7267.578125,41536,128
-11.79844937,-163591,-13.49035066,-187050,15875,1.144930857,128,17.2745004,239519,7269.53125,41600,128
8.049350744,111608,-13.50059193,-187192,14086,1.015905263,128,17.24017051,239043,7271.484375,41664,128
-10.99508655,-152452,-13.45234256,-186523,14831,1.069635876,128,17.31647519,240101,7273.4375,41728,128
-10.04178286,-139234,-13.49258643,-187081,14215,1.025208953,128,17.28712169,239694,7275.390625,41792,128
-10.02555549,-139009,-13.57206447,-188183,12515,0.902602184,128,17.25856152,239298,7277.34375,41856,128
-10.92981648,-151547,-13.5885082,-188411,12351,0.890774237,128,17.21175459,238649,7279.296875,41920,128
8.896996247,123361,-13.48032576,-186911,16376,1.181063793,128,17.25221482,239210,7281.25,41984,128
-11.18981495,-155152,-13.47909969,-186894,14365,1.036027197,128,17.30839757,239989,7283.203125,42048,128
7.09006096,98307,-13.56095774,-188029,15612,1.125962868,128,17.29858903,239853,7285.15625,42112,128
7.094171893,98364,-13.45731896,-186592,15902,1.146878141,128,17.36212818,240734,7287.109375,42176,128
-11.15202321,-154628,-13.45118862,-186507,14401,1.038623576,128,17.29743508,239837,7289.0625,42240,128
8.918776979,123663,-13.52778179,-187569,15934,1.149186033,128,17.28466955,239660,7291.015625,42304,128
-11.19327679,-155200,-13.4814797,-186927,14423,1.040210252,128,17.31532124,240085,7292.96875,42368,128
8.932768575,123857,-13.44916921,-186479,16320,1.177024982,128,17.27803436,239568,7294.921875,42432,128
-10.04293681,-139250,-13.54977888,-187874,13823,0.996937275,128,17.24435356,239101,7296.875,42496,128
8.932768575,123857,-13.52294964,-187502,16320,1.177024982,128,17.26454762,239381,7298.828125,42560,0
9.162259598,127039,-13.51818961,-187436,16382,1.181496523,128,17.26988462,239455,7300.78125,42624,128
9.453054005,131071,-13.62081869,-188859,12896,0.930080525,128,17.19444539,238409,7302.734375,42688,128
-11.24318495,-155892,-13.63509877,-189057,13057,0.941692107,128,17.1741071,238127,7304.6875,42752,128
7.094388258,98367,-13.46900266,-186754,16256,1.172409197,128,17.30277208,239911,7306.640625,42816,128
-11.18894949,-155140,-13.370773,-185392,16159,1.165413399,128,17.3371741,240388,7308.59375,42880,128
-10.76638887,-149281,-13.4547947,-186557,16375,1.180991671,128,17.27579859,239537,7310.546875,42944,128
-13.22422185,-183360,-13.53932125,-187729,14367,1.036171441,128,17.28438107,239656,7312.5,43008,128
-10.92671525,-151504,-13.50131315,-187202,16375,1.180991671,128,17.2691634,239445,7314.453125,43072,128
8.866777285,122942,-13.54862494,-187858,14304,1.031627778,128,17.23166016,238925,7316.40625,43136,128
9.173149964,127190,-13.57357902,-188204,12798,0.923012605,128,17.23404017,238958,7318.359375,43200,128
-9.675837717,-134160,-13.51818961,-187436,15391,1.110023988,128,17.21153822,238646,7320.3125,43264,128
-11.23272732,-155747,-13.64274366,-189163,12549,0.90505432,128,17.22762134,238869,7322.265625,43328,128
7.680664978,106496,-13.58511848,-188364,14304,1.031627778,128,17.20995154,238624,7324.21875,43392,128
8.936879508,123914,-13.49583191,-187126,16256,1.172409197,128,17.32772616,240257,7326.171875,43456,128
5.903515923,81855,-13.42796545,-186185,15774,1.137646572,128,17.3852071,241054,7328.125,43520,128
-11.17950155,-155009,-13.54393703,-187793,14087,1.015977385,128,17.26397064,239373,7330.078125,43584,128
-11.16911604,-154865,-13.53059453,-187608,14323,1.032998089,128,17.26555732,239395,7332.03125,43648,128
8.263335617,114575,-13.50362104,-187234,14400,1.038551454,128,17.30464724,239937,7333.984375,43712,128
8.93565344,123897,-13.51768476,-187429,16382,1.181496523,128,17.29130474,239752,7335.9375,43776,128
-11.15180685,-154625,-13.51537687,-187397,14335,1.033863549,128,17.27846709,239574,7337.890625,43840,128
-10.00673175,-138748,-13.49309128,-187088,15373,1.108725799,128,17.25264755,239216,7339.84375,43904,128
-10.64392634,-147583,-13.5718481,-188180,14351,1.035017495,128,17.24557963,239118,7341.796875,43968,128
7.346381229,101861,-13.6028604,-188610,12288,0.886230574,128,17.23209289,238931,7343.75,44032,128
-11.20741263,-155396,-13.38260095,-185556,255,0.018391015,128,17.34864144,240547,7345.703125,44096,128
5.843510728,81023,-13.46503597,-186699,14336,1.03393567,128,17.35938756,240696,7347.65625,44160,128
-11.75243577,-162953,-13.47996515,-186906,16343,1.178683779,128,17.35599784,240649,7349.609375,44224,128
-13.02112735,-180544,-13.53708548,-187698,14359,1.035594468,128,17.31575397,240091,7351.5625,44288,128
5.905968059,81889,-13.57386751,-188208,15486,1.116875543,128,17.22437587,238824,7353.515625,44352,128
-11.22421696,-155629,-13.57141537,-188174,13311,0.960011001,128,17.20735517,238588,7355.46875,44416,128
9.340039413,129504,-13.51732415,-187424,14552,1.049513942,128,17.32960133,240283,7357.421875,44480,128
7.71751913,107007,-13.51739627,-187425,14568,1.050667888,128,17.29130474,239752,7359.375,44544,128
7.689968668,106625,-13.52273327,-187499,16326,1.177457711,128,17.27370706,239508,7361.328125,44608,128
-11.78647718,-163425,-13.52201206,-187489,14543,1.048864847,128,17.29757932,239839,7363.28125,44672,128
-11.81619129,-163837,-13.4681372,-186742,14823,1.069058903,128,17.30277208,239911,7365.234375,44736,128
5.648493844,78319,-13.44282251,-186391,16132,1.163466115,128,17.32332675,240196,7367.1875,44800,128
-11.64079149,-161405,-13.42017632,-186077,14395,1.038190846,128,17.29902176,239859,7369.140625,44864,128
-11.8155422,-163828,-13.58829183,-188408,14081,1.015544655,128,17.24536326,239115,7371.09375,44928,128
-10.01134753,-138812,-13.49626464,-187132,16307,1.1760874,128,17.26555732,239395,7373.046875,44992,128
-11.81568644,-163830,-13.42082541,-186086,15935,1.149258155,128,17.32296614,240191,7375,45056,128
9.259551675,128388,-13.49511069,-187116,16286,1.174572846,128,17.27413979,239514,7376.953125,45120,128
-13.18267979,-182784,-13.50975138,-187319,16159,1.165413399,128,17.26988462,239455,7378.90625,45184,128
-11.78178928,-163360,-13.54855282,-187857,14079,1.015400412,128,17.25358513,239229,7380.859375,45248,128
-11.74262723,-162817,-13.55872197,-187998,16383,1.181568644,128,17.2771689,239556,7382.8125,45312,128
-13.58894093,-188417,-13.55028374,-187881,13951,1.006168843,128,17.27276948,239495,7384.765625,45376,128
7.090277325,98310,-13.44606798,-186436,15608,1.125674382,128,17.29664174,239826,7386.71875,45440,128
-13.51970417,-187457,-13.45421773,-186549,15423,1.112331881,128,17.29678599,239828,7388.671875,45504,128
-11.80890701,-163736,-13.48169607,-186930,14591,1.052326685,128,17.28438107,239656,7390.625,45568,128
-11.67771777,-161917,-13.51710779,-187421,15887,1.145796316,128,17.2848138,239662,7392.578125,45632,128
-9.720841613,-134784,-13.5221563,-187491,14399,1.038479333,128,17.29332415,239780,7394.53125,45696,128
-10.92419099,-151469,-13.54566795,-187817,14093,1.016410114,128,17.24666145,239133,7396.484375,45760,128
-10.8608682,-150591,-13.54263884,-187775,15391,1.110023988,128,17.23238137,238935,7398.4375,45824,128
-11.22537091,-155645,-13.54220611,-187769,14283,1.030113224,128,17.21298065,238666,7400.390625,45888,128
-11.23481884,-155776,-13.59802825,-188543,12409,0.894957291,128,17.20656183,238577,7402.34375,45952,128
7.680881343,106499,-13.57920451,-188282,15360,1.107788218,128,17.23764625,239008,7404.296875,46016,128
-13.14690747,-182288,-13.47801786,-186879,15555,1.121851936,128,17.29087201,239746,7406.25,46080,128
5.852742297,81151,-13.49691373,-187141,14720,1.061630376,128,17.30976788,240008,7408.203125,46144,128
7.150931615,99151,-13.47260874,-186804,16352,1.179332874,128,17.25243118,239213,7410.15625,46208,128
-11.11574604,-154125,-13.48825914,-187021,14561,1.050163037,128,17.29555992,239811,7412.109375,46272,128
7.146315831,99087,-13.53030604,-187604,15488,1.117019786,128,17.21701946,238722,7414.0625,46336,128
-11.67101046,-161824,-13.50102466,-187198,15987,1.153008479,128,17.25279179,239218,7416.015625,46400,128
9.227746037,127947,-13.51883871,-187445,15420,1.112115516,128,17.22415951,238821,7417.96875,46464,128
5.760715098,79875,-13.5574959,-187981,14332,1.033647184,128,17.23512199,238973,7419.921875,46528,128
-11.811864,-163777,-13.58403666,-188349,13187,0.951067919,128,17.17785742,238179,7421.875,46592,128
-13.44123583,-186369,-13.44664496,-186444,15903,1.146950262,128,17.33400075,240344,7423.828125,46656,128
7.098787677,98428,-13.5621838,-188046,14128,1.018934371,128,17.31236426,240044,7425.78125,46720,128
4.860925658,67399,-13.43849521,-186331,16368,1.18048682,128,17.29678599,239828,7427.734375,46784,128
-13.22083214,-183313,-13.48486942,-186974,16191,1.167721292,128,17.29866115,239854,7429.6875,46848,128
7.093667042,98357,-13.50773198,-187291,14854,1.071294674,128,17.32404796,240206,7431.640625,46912,128
-11.73743448,-162745,-13.50989562,-187321,16261,1.172769806,128,17.27320221,239501,7433.59375,46976,128
-10.80006967,-149748,-13.4771524,-186867,14361,1.035738711,128,17.28272227,239633,7435.546875,47040,128
-10.08779646,-139872,-13.64195033,-189152,12867,0.927988997,128,17.17554953,238147,7437.5,47104,128
7.162543197,99312,-13.52078599,-187472,16320,1.177024982,128,17.2538015,239232,7439.453125,47168,128
-11.21628359,-155519,-13.42926364,-186203,16323,1.177241347,128,17.33847229,240406,7441.40625,47232,128
7.145810979,99080,-13.53052241,-187607,14272,1.029319886,128,17.24204567,239069,7443.359375,47296,128
-11.76109037,-163073,-13.45984321,-186627,15903,1.146950262,128,17.32931284,240279,7445.3125,47360,128
5.317383446,73728,-13.47693604,-186864,15216,1.097402703,128,17.34265534,240464,7447.265625,47424,128
5.908131708,81919,-13.46215111,-186659,14846,1.070717701,128,17.31813399,240124,7449.21875,47488,128
-11.811864,-163777,-13.54761524,-187844,14431,1.040787225,128,17.28820351,239709,7451.171875,47552,128
-11.80890701,-163736,-13.43359094,-186263,16371,1.180703185,128,17.35469965,240631,7453.125,47616,128
9.413964082,130529,-13.4794603,-186899,15044,1.084997783,128,17.33428923,240348,7455.078125,47680,128
7.159730453,99273,-13.5328303,-187639,16320,1.177024982,128,17.30976788,240008,7457.03125,47744,128
7.238054542,100359,-13.42241209,-186108,16352,1.179332874,128,17.40857451,241378,7458.984375,47808,128
8.898655045,123384,-13.44217341,-186382,15416,1.111827029,128,17.28957382,239728,7460.9375,47872,128
-13.14488806,-182260,-13.42774909,-186182,16159,1.165413399,128,17.37648039,240933,7462.890625,47936,128
7.238126664,100360,-13.42421513,-186133,15494,1.117452516,128,17.36335425,240751,7464.84375,48000,128
5.612721516,77823,-13.41505568,-186006,16252,1.172120711,128,17.36696033,240801,7466.796875,48064,128
7.126626626,98814,-13.48097485,-186920,14798,1.067255863,128,17.33378438,240341,7468.75,48128,128
7.200262809,99835,-13.47967666,-186902,14876,1.07288135,128,17.32880799,240272,7470.703125,48192,128
-11.79715118,-163573,-13.49583191,-187126,14791,1.066751011,128,17.3055127,239949,7472.65625,48256,128
-11.63206478,-161284,-13.4094302,-185928,15897,1.146517533,128,17.4028769,241299,7474.609375,48320,128
7.821230033,108445,-13.50455862,-187247,16382,1.181496523,128,17.38145678,241002,7476.5625,48384,128
-11.13774313,-154430,-13.49958223,-187178,15487,1.116947665,128,17.38066344,240991,7478.515625,48448,128
-11.6844972,-162011,-13.49330765,-187091,15487,1.116947665,128,17.38816409,241095,7480.46875,48512,128
5.326038042,73848,-13.50960714,-187317,14562,1.050235158,128,17.33241407,240322,7482.421875,48576,128
5.903588045,81856,-13.51501626,-187392,16380,1.181352279,128,17.26274458,239356,7484.375,48640,128
-10.77331254,-149377,-13.41613751,-186021,16131,1.163393994,128,17.30334905,239919,7486.328125,48704,128
-13.5885082,-188411,-13.45926624,-186619,16145,1.164403697,128,17.35657482,240657,7488.28125,48768,128
-11.16803422,-154850,-13.45328015,-186536,15373,1.108725799,128,17.3055127,239949,7490.234375,48832,128
7.108235611,98559,-13.38829856,-185635,16348,1.179044387,128,17.26937977,239448,7492.1875,48896,128
-13.07175673,-181246,-13.44015401,-186354,15119,1.090406905,128,17.32130734,240168,7494.140625,48960,128
-9.59982152,-133106,-13.52439207,-187522,14307,1.031844143,128,17.25170997,239203,7496.09375,49024,128
7.230049042,100248,-13.45789593,-186600,14848,1.070861944,128,17.32087461,240162,7498.046875,49088,128
-11.74269935,-162818,-13.5151605,-187394,16377,1.181135914,128,17.30810908,239985,7500,49152,128
5.326975623,73861,-13.52453631,-187524,16134,1.163610359,128,17.28697744,239692,7501.953125,49216,128
7.163913508,99331,-13.46756023,-186734,14336,1.03393567,128,17.30255572,239908,7503.90625,49280,128
-11.75993642,-163057,-13.4334467,-186261,14587,1.052038199,128,17.27370706,239508,7505.859375,49344,128
-13.4227727,-186113,-13.43669217,-186306,15903,1.146950262,128,17.29671386,239827,7507.8125,49408,128
7.726750699,107135,-13.47152692,-186789,16380,1.181352279,128,17.27168766,239480,7509.765625,49472,128
-11.77032194,-163201,-13.47058934,-186776,16383,1.181568644,128,17.27103856,239471,7511.71875,49536,128
-11.21181204,-155457,-13.48285001,-186946,16259,1.172625562,128,17.26324943,239363,7513.671875,49600,128
-11.77976987,-163332,-13.52244479,-187495,15375,1.108870042,128,17.22329405,238809,7515.625,49664,128
8.386807845,116287,-13.60747619,-188674,12540,0.904405225,128,17.18196835,238236,7517.578125,49728,128
-11.24296859,-155889,-13.60653861,-188661,12347,0.89048575,128,17.16516401,238003,7519.53125,49792,128
7.356406135,102000,-13.60963984,-188704,12786,0.922147146,128,17.15384092,237846,7521.484375,49856,128
-11.81438825,-163812,-13.50838107,-187300,16377,1.181135914,128,17.28041438,239601,7523.4375,49920,128
-13.57047779,-188161,-13.46792084,-186739,16351,1.179260752,128,17.25033966,239184,7525.390625,49984,128
-13.5724972,-188189,-13.42948001,-186206,131,0.009447933,128,17.31229214,240043,7527.34375,50048,128
7.979753373,110643,-13.46518021,-186701,15630,1.127261058,128,17.30053631,239880,7529.296875,50112,128
-13.22011092,-183303,-13.52633936,-187549,16329,1.177674076,128,17.27752951,239561,7531.25,50176,128
7.126698747,98815,-13.47866696,-186888,16350,1.17918863,128,17.27817861,239570,7533.203125,50240,128
-10.76545128,-149268,-13.51876658,-187444,14367,1.036171441,128,17.28603986,239679,7535.15625,50304,128
-10.03500343,-139140,-13.52504117,-187531,16129,1.163249751,128,17.26656702,239409,7537.109375,50368,128
7.126842991,98817,-13.53571517,-187679,14432,1.040859346,128,17.17843439,238187,7539.0625,50432,128
-14.17918434,-196601,-13.50023133,-187187,15375,1.108870042,128,17.24218991,239071,7541.015625,50496,128
7.978599427,110627,-13.53773457,-187707,15324,1.105191839,128,17.23656443,238993,7542.96875,50560,128
5.612865759,77825,-13.45955473,-186623,15424,1.112404002,128,17.30984,240009,7544.921875,50624,128
-14.17507341,-196544,-13.50095254,-187197,15613,1.12603499,128,17.24031475,239045,7546.875,50688,128
-11.67793413,-161920,-13.48616761,-186992,16377,1.181135914,128,17.28099135,239609,7548.828125,50752,128
8.866921528,122944,-13.48256153,-186942,15422,1.112259759,128,17.23057833,238910,7550.78125,50816,128
-11.70562884,-162304,-13.47794574,-186878,15489,1.117091908,128,17.21824553,238739,7552.734375,50880,128
5.317311325,73727,-13.59471066,-188497,12802,0.923301092,128,17.17663135,238162,7554.6875,50944,128
8.862233622,122879,-13.59038336,-188437,7168,0.516967835,128,17.07436288,236744,7556.640625,51008,128
-9.896746266,-137223,-13.453785,-186543,15909,1.147382992,128,17.28474167,239661,7558.59375,51072,128
-13.58144028,-188313,-13.53701336,-187697,16271,1.173491022,128,17.26599005,239401,7560.546875,51136,128
5.686574064,78847,-13.53513819,-187671,15872,1.144714492,128,17.24731055,239142,7562.5,51200,128
-11.7471709,-162880,-13.52395934,-187516,16355,1.179549239,128,17.22401526,238819,7564.453125,51264,128
-14.11492397,-195710,-13.45919412,-186618,16287,1.174644968,128,17.35066084,240575,7566.40625,51328,128
7.089916717,98305,-13.55143768,-187897,16328,1.177601955,128,17.24529114,239114,7568.359375,51392,128
-13.26576391,-183936,-13.56052501,-188023,16273,1.173635265,128,17.26440337,239379,7570.3125,51456,128
8.862810595,122887,-13.52778179,-187569,16320,1.177024982,128,17.2311553,238918,7572.265625,51520,128
7.698767507,106747,-13.51826173,-187437,15388,1.109807624,128,17.23252561,238937,7574.21875,51584,128
-10.66260584,-147842,-13.50607318,-187268,15361,1.10786034,128,17.20886972,238609,7576.171875,51648,128
-13.29223255,-184303,-13.55533225,-187951,15585,1.124015584,128,17.21939948,238755,7578.125,51712,128
-14.17565038,-196552,-13.4831385,-186950,15551,1.121563449,128,17.22127464,238781,7580.078125,51776,128
-11.22702971,-155668,-13.61108227,-188724,12383,0.893082129,128,17.15852882,237911,7582.03125,51840,128
7.234953312,100316,-13.58403666,-188349,13310,0.959938879,128,17.16963555,238065,7583.984375,51904,128
-13.58894093,-188417,-13.62947328,-188979,13069,0.942557566,128,17.17165496,238093,7585.9375,51968,128
4.744954079,65791,-13.55742378,-187980,16256,1.172409197,128,17.20944669,238617,7587.890625,52032,128
-11.24405041,-155904,-13.66156741,-189424,8191,0.590748261,128,17.10458185,237163,7589.84375,52096,128
-13.56946809,-188147,-13.52446419,-187523,16271,1.173491022,128,17.16256763,237967,7591.796875,52160,128
5.889740692,81664,-13.49583191,-187126,15872,1.144714492,128,17.13566627,237594,7593.75,52224,128
7.18302574,99596,-13.64360912,-189175,7680,0.553894109,128,17.10681762,237194,7595.703125,52288,128
8.899159896,123391,-13.47837847,-186884,0,0,128,17.1017691,237124,7597.65625,52352,128
7.146387952,99088,-13.39803498,-185770,908,0.065486439,128,17.27399555,239512,7599.609375,52416,128
5.763960572,79920,-13.40171318,-185821,910,0.065630682,128,17.34698264,240524,7601.5625,52480,128
7.357271595,102012,-13.32548062,-184764,62,0.004471541,128,17.44160622,241836,7603.515625,52544,128
-13.60682709,-188665,-13.19724836,-182986,2499,0.18023195,128,17.60049016,244039,7605.46875,52608,128
-10.7998533,-149745,-13.15859117,-182450,3383,0.24398747,128,17.67758819,245108,7607.421875,52672,128
8.130703942,112736,-13.27946702,-184126,398,0.028704408,128,17.67946335,245134,7609.375,52736,128
-11.3710566,-157665,-13.28199128,-184161,16359,1.179837725,128,17.71581265,245638,7611.328125,52800,128
5.799660778,80415,-13.40229015,-185829,15392,1.11009611,128,17.65306683,244768,7613.28125,52864,128
7.315945901,101439,-13.35353593,-185153,15442,1.113702192,128,17.61051507,244178,7615.234375,52928,128
-10.76509068,-149263,-13.40647321,-185887,16355,1.179549239,128,17.55462081,243403,7617.1875,52992,128
5.331519286,73924,-13.42702787,-186172,15872,1.144714492,128,17.39234714,241153,7619.140625,53056,128
4.747406214,65825,-13.56759293,-188121,13280,0.95777523,128,17.19855633,238466,7621.09375,53120,128
5.317960419,73736,-13.58829183,-188408,7680,0.553894109,128,17.10436548,237160,7623.046875,53184,128
-13.59297974,-188473,-13.61144288,-188729,8131,0.586420964,128,17.09333087,237007,7625,53248,128
-13.67224141,-189572,-13.67599173,-189624,6183,0.445928031,128,17.01197767,235879,7626.953125,53312,128
-13.60675497,-188664,-13.60653861,-188661,7171,0.5171842,128,16.94728457,234982,7628.90625,53376,128
7.677131018,106447,-13.60048039,-188577,6630,0.478166399,128,17.05806339,236518,7630.859375,53440,128
5.246343642,72743,-13.6415176,-189146,8156,0.588224004,128,17.04724515,236368,7632.8125,53504,128
-11.63184841,-161281,-13.6628656,-189442,8063,0.581516693,128,17.03145051,236149,7634.765625,53568,128
7.274187478,100860,-13.6772178,-189641,7942,0.572789976,128,17.00188065,235739,7636.71875,53632,128
4.736010997,65667,-13.52374298,-187513,8160,0.588512491,128,17.12225164,237408,7638.671875,53696,128
4.736010997,65667,-13.60134585,-188589,8160,0.588512491,128,17.06267918,236582,7640.625,53760,128
-14.10598089,-195586,-13.62016959,-188850,7807,0.563053556,128,17.10588003,237181,7642.578125,53824,128
-14.10598089,-195586,-13.53052241,-187607,7807,0.563053556,128,17.14381601,237707,7644.53125,53888,128
4.797819233,66524,-13.4944616,-187107,240,0.017309191,128,17.15665366,237885,7646.484375,53952,128
4.761181445,66016,-13.51674718,-187416,62,0.004471541,128,17.13306989,237558,7648.4375,54016,128
-10.6394548,-147521,-13.501818,-187209,16383,1.181568644,128,17.24550751,239117,7650.390625,54080,128
-10.6394548,-147521,-13.4504674,-186497,16383,1.181568644,128,17.32931284,240279,7652.34375,54144,128
7.118621125,98703,-13.48638397,-186995,16352,1.179332874,128,17.23569897,238981,7654.296875,54208,128
7.680664978,106496,-13.53557092,-187677,15600,1.125097409,128,17.24139658,239060,7656.25,54272,128
-11.75178668,-162944,-13.53838367,-187716,16125,1.162961264,128,17.25704697,239277,7658.203125,54336,128
5.443956905,75483,-13.46229535,-186661,58,0.004183054,128,17.32606737,240234,7660.15625,54400,128
-14.03674412,-194626,-13.48285001,-186946,16129,1.163249751,128,17.30594543,239955,7662.109375,54464,128
4.73348674,65632,-13.54501886,-187808,16320,1.177024982,128,17.27298585,239498,7664.0625,54528,128
-13.58778698,-188401,-13.49893314,-187169,16359,1.179837725,128,17.34481899,240494,7666.015625,54592,128
-13.21975031,-183298,-13.45053952,-186498,121,0.008726717,128,17.32599525,240233,7667.96875,54656,128
4.781519745,66298,-13.44823163,-186466,12,8.65E-04,128,17.33724622,240389,7669.921875,54720,128
2.307892121,32000,108.6580132,1506594,15,0.001081824,135,0.067866453,941,7671.875,54784,0
0.067794331,940,108.6580132,1506594,0,0,135,0.067866453,941,7673.828125,54848,0
2.16E-04,3,2.16E-04,3,192,0.013847353,17,158.2060049,2193600,7675.78125,54912,128
8.861873014,122874,17.28228954,239627,0,0,154,-302.5000361,-4194304,7677.734375,54976,152
1.181640766,16384,499.834044,6930432,0,0,0,373.3459053,5176615,7679.6875,55040,0
0,0,2.16E-04,3,192,0.013847353,20,176.4475842,2446528,7681.640625,55104,128
0.004615784,64,2.16E-04,3,448,0.03231049,20,176.4475842,2446528,7683.59375,55168,128
0,0,296.5918322,4112384,0,0,0,-458.5291217,-6357720,7685.546875,55232,128
1.772461149,24576,-13.5238151,-187514,15408,1.111250056,128,17.30760423,239978,7687.5,55296,0
4.735506145,65660,178.8662551,2480064,4095,0.29533807,0,-409.8633939,-5682947,7689.453125,55360,0
-13.0349747,-180736,-13.5008083,-187195,15751,1.135987775,128,17.31698004,240108,7691.40625,55424,128
7.154465575,99200,-13.56535716,-188090,14836,1.069996485,128,17.27608708,239541,7693.359375,55488,128
-10.00759721,-138760,-13.50203437,-187212,16335,1.178106806,128,17.27233675,239489,7695.3125,55552,128
8.123780265,112640,-13.41296415,-185977,64,0.004615784,128,17.39580898,241201,7697.265625,55616,128
7.791660165,108035,-13.51198715,-187350,15214,1.09725846,128,17.32520191,240222,7699.21875,55680,128
-11.81467674,-163816,-13.51818961,-187436,15311,1.104254258,128,17.32498554,240219,7701.171875,55744,128
-11.81417189,-163809,-13.50874168,-187305,15361,1.10786034,128,17.28200105,239623,7703.125,55808,128
-13.57855541,-188273,-13.46070867,-186639,15985,1.152864236,128,17.32137946,240169,7705.078125,55872,128
-13.57040567,-188160,-13.41000717,-185936,243,0.017525556,128,17.41722911,241498,7707.03125,55936,128
-13.47556573,-186845,-13.49662524,-187137,16381,1.181424401,128,17.35361783,240616,7708.984375,56000,128
8.937240116,123919,-13.46575719,-186709,15800,1.139521735,128,17.33169285,240312,7710.9375,56064,128
7.376311705,102276,-13.44116371,-186368,16382,1.181496523,128,17.42025821,241540,7712.890625,56128,128
-10.04034043,-139214,-13.5131411,-187366,16143,1.164259453,128,17.31409518,240068,7714.84375,56192,128
-10.64161845,-147551,-13.5435043,-187787,16369,1.180558941,128,17.26642278,239407,7716.796875,56256,128
-11.67540987,-161885,-13.4617905,-186654,16301,1.175654671,128,17.29620901,239820,7718.75,56320,128
7.112058057,98612,-13.55518801,-187949,14456,1.042590266,128,17.32859162,240269,7720.703125,56384,128
7.221322324,100127,-13.46828144,-186744,16128,1.163177629,128,17.30911878,239999,7722.65625,56448,128
5.335558097,73980,-13.50189012,-187210,16096,1.160869737,128,17.3345056,240351,7724.609375,56512,128
4.726563063,65536,-13.47282511,-186807,15928,1.148753303,128,17.37590341,240925,7726.5625,56576,128
7.163336535,99323,-13.48061424,-186915,16118,1.162456413,128,17.36732094,240806,7728.515625,56640,128
5.752132625,79756,-13.42298906,-186116,256,0.018463137,128,17.40150659,241280,7730.46875,56704,128
-13.45977109,-186626,-13.47938817,-186898,16321,1.177097103,128,17.31986491,240148,7732.421875,56768,128
-11.81575856,-163831,-13.44123583,-186369,16379,1.181280158,128,17.40179508,241284,7734.375,56832,128
-10.63491114,-147458,-13.39716952,-185758,327,0.023583773,128,17.43886559,241798,7736.328125,56896,128
8.239391236,114243,-13.43950491,-186345,16130,1.163321872,128,17.39559262,241198,7738.28125,56960,128
-11.00402963,-152576,-13.44852012,-186470,16371,1.180703185,128,17.38008647,240983,7740.234375,57024,128
7.122659936,98759,-13.41772418,-186043,16366,1.180342577,128,17.3905441,241128,7742.1875,57088,128
5.834351281,80896,-13.43149941,-186234,30,0.002163649,128,17.43352859,241724,7744.140625,57152,128
5.797136521,80380,-13.36356084,-185292,130,0.009375812,128,17.44434684,241874,7746.09375,57216,128
4.800127125,66556,-13.41382961,-185989,16352,1.179332874,128,17.37698524,240940,7748.046875,57280,128
-11.70360943,-162276,-13.50917441,-187311,15107,1.089541446,128,17.34662203,240519,7750,57344,128
5.371618911,74480,-13.47296935,-186809,16130,1.163321872,128,17.424874,241604,7751.953125,57408,128
7.255147368,100596,-13.45169347,-186514,16380,1.181352279,128,17.40597813,241342,7753.90625,57472,128
-10.63894995,-147514,-13.46135777,-186648,16167,1.165990372,128,17.43215828,241705,7755.859375,57536,128
5.892048584,81696,-13.49821192,-187159,15364,1.108076705,128,17.43749528,241779,7757.8125,57600,128
7.117539301,98688,-13.38252883,-185555,136,0.009808542,128,17.38398104,241037,7759.765625,57664,128
5.317383446,73728,-13.4601317,-186631,16256,1.172409197,128,17.32960133,240283,7761.71875,57728,128
5.644238668,78260,-13.54941828,-187869,14576,1.051244861,128,17.38679378,241076,7763.671875,57792,128
4.727140036,65544,-13.3461074,-185050,58,0.004183054,128,17.4879083,242478,7765.625,57856,128
7.117683544,98690,-13.41390174,-185990,22,0.001586676,128,17.46273785,242129,7767.578125,57920,128
7.381576584,102349,-13.39572709,-185738,64,0.004615784,128,17.53168613,243085,7769.53125,57984,128
-11.77984199,-163333,-13.38353853,-185569,127,0.009159447,128,17.42739826,241639,7771.484375,58048,128
-13.05372632,-180996,-13.29230467,-184304,125,0.009015204,128,17.52642125,243012,7773.4375,58112,128
9.380860255,130070,-13.39760225,-185764,15980,1.152503628,128,17.45552569,242029,7775.390625,58176,128
-11.78063533,-163344,-13.37264816,-185418,31,0.00223577,128,17.5135836,242834,7777.34375,58240,128
-11.78128443,-163353,-13.45176559,-186515,15999,1.153873939,128,17.51141995,242804,7779.296875,58304,128
-13.01658368,-180481,-13.38880341,-185642,16383,1.181568644,128,17.55043775,243345,7781.25,58368,128
5.317816176,73734,-13.40337198,-185844,15360,1.107788218,128,17.57705064,243714,7783.203125,58432,128
5.319114365,73752,-13.43481701,-186280,16128,1.163177629,128,17.4858889,242450,7785.15625,58496,128
-13.51941568,-187453,-13.32100908,-184702,253,0.018246772,128,17.60856779,244151,7787.109375,58560,128
7.216201689,100056,-13.31862906,-184669,128,0.009231568,128,17.60387988,244086,7789.0625,58624,128
-11.744863,-162848,-13.3457468,-185045,255,0.018391015,128,17.55389959,243393,7791.015625,58688,128
-13.03612864,-180752,-13.3324043,-184860,287,0.020698907,128,17.60344715,244080,7792.96875,58752,128
-11.56001527,-160285,-13.4327976,-186252,16311,1.176375887,128,17.52469033,242988,7794.921875,58816,128
7.367657109,102156,-13.39075069,-185669,15360,1.107788218,128,17.56096751,243491,7796.875,58880,128
-11.66985651,-161808,-13.29901198,-184397,543,0.039162044,128,17.57683427,243711,7798.828125,58944,128
-13.30968598,-184545,-13.38764946,-185626,15907,1.147238749,128,17.57286758,243656,7800.78125,59008,128
-13.01622307,-180476,-13.32670669,-184781,231,0.016660096,128,17.59601862,243977,7802.734375,59072,128
-14.151706,-196220,-13.29879562,-184394,257,0.018535259,128,17.70384046,245472,7804.6875,59136,128
5.427008322,75248,-13.29266528,-184309,440,0.031733517,128,17.61484237,244238,7806.640625,59200,128
-13.07190097,-181248,-13.40899747,-185922,15361,1.10786034,128,17.62068422,244319,7808.59375,59264,128
-13.14575352,-182272,-13.31444601,-184611,63,0.004543663,128,17.65883656,244848,7810.546875,59328,128
5.02218962,69635,-13.27715913,-184094,768,0.055389411,128,17.69706103,245378,7812.5,59392,128
-9.785318349,-135678,-13.37192695,-185408,15391,1.110023988,128,17.61037083,244176,7814.453125,59456,128
-11.81179187,-163776,-13.28566948,-184212,7,5.05E-04,128,17.6826367,245178,7816.40625,59520,128
5.908059586,81918,-13.22580853,-183382,1048,0.075583467,128,17.67787667,245112,7818.359375,59584,128
5.614813043,77852,-13.27751974,-184099,16124,1.162889142,128,17.70304712,245461,7820.3125,59648,128
-13.01651156,-180480,-13.32988004,-184825,7,5.05E-04,128,17.6766506,245095,7822.265625,59712,128
-13.81049857,-191489,-13.16832759,-182585,16671,1.202339673,128,17.74444494,246035,7824.21875,59776,128
-13.28429917,-184193,-13.20251324,-183059,16865,1.216331269,128,17.80156527,246827,7826.171875,59840,128
7.147397655,99102,-13.29576651,-184352,910,0.065630682,128,17.75230619,246144,7828.125,59904,128
-11.78647718,-163425,-13.32201878,-184716,16063,1.158489723,128,17.69958528,245413,7830.078125,59968,128
7.097922218,98416,-13.25732568,-183819,60,0.004327298,128,17.71624538,245644,7832.03125,60032,128
-9.565058895,-132624,-13.29598287,-184355,16143,1.164259453,128,17.67672273,245096,7833.984375,60096,128
-9.748464197,-135167,-13.29771379,-184379,16369,1.180558941,128,17.70961019,245552,7835.9375,60160,128
5.85331927,81159,-13.32548062,-184764,16382,1.181496523,128,17.67722758,245103,7837.890625,60224,128
-11.07910825,-153617,-13.25948933,-183849,16353,1.179404995,128,17.7286503,245816,7839.84375,60288,128
-13.07168461,-181245,-13.33997707,-184965,61,0.004399419,128,17.6739821,245058,7841.796875,60352,128
4.728149739,65558,-13.26554755,-183933,16262,1.172841927,128,17.73759338,245940,7843.75,60416,128
-14.17500128,-196543,-13.23403039,-183496,16395,1.182434104,128,17.73600671,245918,7845.703125,60480,128
-13.29338649,-184319,-13.31372479,-184601,16383,1.181568644,128,17.66734691,244966,7847.65625,60544,128
-11.79808876,-163586,-13.42327755,-186120,14463,1.043095117,128,17.54668743,243293,7849.609375,60608,128
5.889307963,81658,-13.2804046,-184139,32,0.002307892,128,17.62486728,244377,7851.5625,60672,128
-11.58100266,-160576,-13.35490624,-185172,16191,1.167721292,128,17.57755549,243721,7853.515625,60736,128
7.859382374,108974,-13.37957184,-185514,16134,1.163610359,128,17.5265655,243014,7855.46875,60800,128
-13.03007043,-180668,-13.35144441,-185124,16191,1.167721292,128,17.56269843,243515,7857.421875,60864,128
5.797136521,80380,-13.40452592,-185860,14358,1.035522346,128,17.58296461,243796,7859.375,60928,128
-13.14575352,-182272,-13.43618732,-186299,15491,1.117236151,128,17.51538664,242859,7861.328125,60992,128
4.726563063,65536,-13.42270057,-186112,16320,1.177024982,128,17.53211886,243091,7863.28125,61056,128
5.336856286,73998,-13.34581892,-185046,448,0.03231049,128,17.56406874,243534,7865.234375,61120,128
-11.52114171,-159746,-13.33218793,-184857,249,0.017958286,128,17.51819939,242898,7867.1875,61184,128
-13.36247901,-185277,-13.51350171,-187371,15363,1.108004583,128,17.48415798,242426,7869.140625,61248,128
7.209782864,99967,-13.41801267,-186047,16256,1.172409197,128,17.49800533,242618,7871.09375,61312,128
5.729919163,79448,-13.51097745,-187336,14336,1.03393567,128,17.36566214,240783,7873.046875,61376,128
7.236972718,100344,-13.44000977,-186352,16094,1.160725494,128,17.37503795,240913,7875,61440,128
-13.5238151,-187514,-13.38382702,-185573,63,0.004543663,128,17.46706515,242189,7876.953125,61504,128
5.843438607,81022,-13.47203177,-186796,16380,1.181352279,128,17.51178056,242809,7878.90625,61568,128
-13.57047779,-188161,-13.53232545,-187632,15935,1.149258155,128,17.45718449,242052,7880.859375,61632,128
5.42823439,75265,-13.46193474,-186656,16132,1.163466115,128,17.45833843,242068,7882.8125,61696,128
-14.12429978,-195840,-13.38966887,-185654,3,2.16E-04,128,17.49447137,242569,7884.765625,61760,128
-13.89351057,-192640,-13.42428725,-186134,551,0.039739017,128,17.38455801,241045,7886.71875,61824,128
-13.52374298,-187513,-13.51263625,-187359,14847,1.070789822,128,17.3595318,240698,7888.671875,61888,128
-14.17514553,-196545,-13.49511069,-187116,15933,1.149113911,128,17.34272746,240465,7890.625,61952,128
-11.74709877,-162879,-13.517829,-187431,15585,1.124015584,128,17.2874823,239699,7892.578125,62016,128
7.107947124,98555,-13.51934356,-187452,15374,1.108797921,128,17.29887751,239857,7894.53125,62080,128
-13.51429504,-187382,-13.49583191,-187126,16129,1.163249751,128,17.33811168,240401,7896.484375,62144,128
7.090133082,98308,-13.43395155,-186268,12,8.65E-04,128,17.36429183,240764,7898.4375,62208,128
-14.14312352,-196101,-13.48364335,-186957,16383,1.181568644,128,17.35513238,240637,7900.390625,62272,128
4.728870956,65568,-13.53052241,-187607,15838,1.142262357,128,17.31539337,240086,7902.34375,62336,128
-14.17507341,-196544,-13.48241728,-186940,1,7.21E-05,128,17.36465244,240769,7904.296875,62400,128
-14.14283504,-196097,-13.48883611,-187029,167,0.012044312,128,17.31193153,240038,7906.25,62464,128
4.841741305,67133,-13.45176559,-186515,0,0,128,17.41845517,241515,7908.203125,62528,128
-13.44123583,-186369,-13.48032576,-186911,16193,1.167865535,128,17.34770386,240534,7910.15625,62592,128
5.456938798,75663,-13.45255893,-186526,226,0.016299488,128,17.29988722,239871,7912.109375,62656,128
-11.67822262,-161924,-13.52186781,-187487,15363,1.108004583,128,17.29123262,239751,7914.0625,62720,128
-14.10605301,-195587,-13.56240017,-188049,15377,1.109014286,128,17.29729084,239835,7916.015625,62784,128
5.612793638,77824,-13.51732415,-187424,15864,1.144137519,128,17.32289402,240190,7917.96875,62848,128
-13.03093589,-180680,-13.46597355,-186712,225,0.016227366,128,17.31553761,240088,7919.921875,62912,128
-11.73339566,-162689,-13.50289983,-187224,15615,1.126179233,128,17.32101885,240164,7921.875,62976,128
-14.17961707,-196607,-13.35995476,-185242,2017,0.145469325,128,17.41282969,241437,7923.828125,63040,128
5.874811515,81457,-13.42125814,-186092,224,0.016155245,128,17.32368735,240201,7925.78125,63104,128
4.870085105,67526,-13.51840598,-187439,16120,1.162600656,128,17.3355153,240365,7927.734375,63168,128
-13.5724972,-188189,-13.5484807,-187856,14975,1.080021391,128,17.28106347,239610,7929.6875,63232,128
-11.79852149,-163592,-13.44751042,-186456,7,5.05E-04,128,17.35087721,240578,7931.640625,63296,128
5.898972261,81792,-13.5264836,-187551,15482,1.116587057,128,17.20944669,238617,7933.59375,63360,128
7.673741302,106400,-13.61389501,-188763,7804,0.562837191,128,17.11453463,237301,7935.546875,63424,128
-14.0966772,-195457,-13.50852531,-187302,16375,1.180991671,128,17.30385391,239926,7937.5,63488,128
-13.53686911,-187695,-13.53686911,-187695,16159,1.165413399,128,17.26505247,239388,7939.453125,63552,128
-13.07190097,-181248,-13.51025623,-187326,15479,1.116370692,128,17.30832545,239988,7941.40625,63616,128
4.730024902,65584,-13.49410099,-187102,16376,1.181063793,128,17.3104891,240018,7943.359375,63680,128
4.874196038,67583,-13.45587652,-186572,960,0.069236764,128,17.35116569,240582,7945.3125,63744,128
5.904525626,81869,-13.38858704,-185639,496,0.035772328,128,17.38910167,241108,7947.265625,63808,128
5.317455568,73729,-13.46359354,-186679,16376,1.181063793,128,17.35938756,240696,7949.21875,63872,128
-13.03677774,-180761,-13.47909969,-186894,15903,1.146950262,128,17.32837526,240266,7951.171875,63936,128
-11.76130673,-163076,-13.46489173,-186697,16199,1.168298265,128,17.26699975,239415,7953.125,64000,128
-13.29345862,-184320,-13.48465305,-186971,15935,1.149258155,128,17.29296354,239775,7955.078125,64064,128
-13.21729818,-183264,-13.5088138,-187306,16377,1.181135914,128,17.27659193,239548,7957.03125,64128,128
5.345078152,74112,-13.49388462,-187099,15614,1.126107112,128,17.33421711,240347,7958.984375,64192,128
-13.57155962,-188176,-13.55179829,-187902,14847,1.070789822,128,17.26490823,239386,7960.9375,64256,128
-14.10533179,-195577,-13.49092764,-187058,16383,1.181568644,128,17.30861393,239992,7962.890625,64320,128
-14.04092718,-194684,-13.44657283,-186443,27,0.001947284,128,17.3531851,240610,7964.84375,64384,128
4.73572251,65663,-13.48256153,-186942,16320,1.177024982,128,17.31322972,240056,7966.796875,64448,128
-11.74955091,-162913,-13.52129084,-187479,16383,1.181568644,128,17.23331895,238948,7968.75,64512,128
5.889163719,81656,-13.51141018,-187342,16132,1.163466115,128,17.28942958,239726,7970.703125,64576,128
-10.92967223,-151545,-13.57913239,-188281,16247,1.171760103,128,17.27154342,239478,7972.65625,64640,128
-11.81619129,-163837,-13.4974907,-187149,16371,1.180703185,128,17.31056122,240019,7974.609375,64704,128
-13.1733761,-182655,-13.50470287,-187249,15713,1.133247153,128,17.30767635,239979,7976.5625,64768,128
-11.70454701,-162289,-13.50506347,-187254,15391,1.110023988,128,17.30219511,239903,7978.515625,64832,128
5.720687594,79320,-13.48140758,-186926,15480,1.116442813,128,17.36169545,240728,7980.46875,64896,128
-13.0216322,-180551,-13.57552631,-188231,16375,1.180991671,128,17.27738527,239559,7982.421875,64960,128
5.895510423,81744,-13.45371288,-186542,8,5.77E-04,128,17.28207317,239624,7984.375,65024,128
4.781952474,66304,-13.45133286,-186509,16128,1.163177629,128,17.33904926,240414,7986.328125,65088,128
5.333538691,73952,-13.58894093,-188417,14338,1.034079913,128,17.3088303,239995,7988.28125,65152,128
-13.13688256,-182149,-13.50665015,-187276,16265,1.173058292,128,17.32238916,240183,7990.234375,65216,128
5.386908697,74692,-13.45623713,-186577,560,0.040388112,128,17.27969316,239591,7992.1875,65280,128
-13.22350064,-183350,-13.5114823,-187343,16143,1.164259453,128,17.26721612,239418,7994.140625,65344,128
-13.58894093,-188417,-13.6162029,-188795,16263,1.172914049,128,17.272481,239491,7996.09375,65408,128
-11.76080188,-163069,-13.4104399,-185942,1,7.21E-05,128,17.41131513,241416,7998.046875,65472,128
-13.43885582,-186336,-13.46467536,-186694,7,5.05E-04,128,17.32332675,240196,8000,0,128
5.87149392,81411,-13.58259423,-188329,14750,1.063794024,128,17.32938496,240280,8001.953125,64,128
-14.10583664,-195584,-13.40885322,-185920,513,0.036998396,128,17.35181479,240591,8003.90625,128,128
-14.17918434,-196601,-13.47621482,-186854,1,7.21E-05,128,17.30219511,239903,8005.859375,192,128
5.389505075,74728,-13.48537427,-186981,15886,1.145724195,128,17.33147649,240309,8007.8125,256,128
5.326110163,73849,-13.44916921,-186479,46,0.003317595,128,17.35895483,240690,8009.765625,320,128
-13.47830635,-186883,-13.48349911,-186955,16273,1.173635265,128,17.34777598,240535,8011.71875,384,128
7.754373283,107518,-13.5151605,-187394,15608,1.125674382,128,17.29880539,239856,8013.671875,448,128
5.374575898,74521,-13.5478316,-187847,14560,1.050090915,128,17.29108838,239749,8015.625,512,128
5.456289703,75654,-13.51112169,-187338,15872,1.144714492,128,17.32765404,240256,8017.578125,576,128
-14.14391686,-196112,-13.49164885,-187068,15897,1.146517533,128,17.32022552,240153,8019.53125,640,128
5.391163873,74751,-13.5168193,-187417,16256,1.172409197,128,17.27464465,239521,8021.484375,704,128
4.762335391,66032,-13.49539918,-187120,0,0,128,17.35592572,240648,8023.4375,768,128
5.673015198,78659,-13.45371288,-186542,124,0.008943082,128,17.32678858,240244,8025.390625,832,128
-11.74147329,-162801,-13.49438947,-187106,16359,1.179837725,128,17.31647519,240101,8027.34375,896,128
4.846357089,67197,-13.47708028,-186866,0,0,128,17.3761919,240929,8029.296875,960,128
4.871960267,67552,-13.43424004,-186272,348,0.025098327,128,17.41326242,241443,8031.25,1024,128
-13.15015294,-182333,-13.59564824,-188510,16329,1.177674076,128,17.2328141,238941,8033.203125,1088,128
7.678934059,106472,-13.52835876,-187577,15200,1.096248757,128,17.30327693,239918,8035.15625,1152,128
-14.04107142,-194686,-13.45551592,-186567,7,5.05E-04,128,17.37871616,240964,8037.109375,1216,128
5.334620516,73967,-13.39269798,-185696,56,0.004038811,128,17.33464984,240353,8039.0625,1280,128
-13.58432514,-188353,-13.47138267,-186787,313,0.02257407,128,17.30457512,239936,8041.015625,1344,128
5.62707372,78022,-13.47621482,-186854,16380,1.181352279,128,17.37078278,240854,8042.96875,1408,128
4.874123916,67582,-13.47477239,-186834,16128,1.163177629,128,17.33847229,240406,8044.921875,1472,128
5.435013823,75359,-13.53484971,-187667,16260,1.172697684,128,17.3445305,240490,8046.875,1536,128
5.457948501,75677,-13.45854502,-186609,0,0,128,17.30709938,239971,8048.828125,1600,128
-13.07190097,-181248,-13.43524974,-186286,227,0.01637161,128,17.29325203,239779,8050.78125,1664,128
5.864353879,81312,-13.48501366,-186976,16352,1.179332874,128,17.34460263,240491,8052.734375,1728,128
-13.59348459,-188480,-13.59665794,-188524,14339,1.034152035,128,17.28200105,239623,8054.6875,1792,128
4.762912364,66040,-13.52020902,-187464,16320,1.177024982,128,17.2584894,239297,8056.640625,1856,128
-14.1093706,-195633,-13.52669996,-187554,15369,1.108437313,128,17.35614209,240651,8058.59375,1920,128
5.827427605,80800,-13.52179569,-187486,16268,1.173274657,128,17.30976788,240008,8060.546875,1984,128
-14.02744043,-194497,-13.37690334,-185477,2019,0.145613568,128,17.42299884,241578,8062.5,2048,128
5.762229653,79896,-13.38166337,-185543,992,0.071544656,128,17.42004185,241537,8064.453125,2112,128
-13.49857253,-187164,-13.50030345,-187188,16283,1.174356481,128,17.3104891,240018,8066.40625,2176,128
4.855877144,67329,-13.47758513,-186873,15366,1.108220948,128,17.35578148,240646,8068.359375,2240,128
-13.58872456,-188414,-13.45537167,-186565,16103,1.161374588,128,17.4038866,241313,8070.3125,2304,128
-13.44354373,-186401,-13.50556833,-187261,16263,1.172914049,128,17.28322712,239640,8072.265625,2368,128
-10.8725519,-150753,-13.58461363,-188357,16323,1.177241347,128,17.29844478,239851,8074.21875,2432,128
5.390514778,74742,-13.48753792,-187011,16320,1.177024982,128,17.32426433,240209,8076.171875,2496,128
5.724654284,79375,-13.48378759,-186959,16116,1.162312169,128,17.29967085,239868,8078.125,2560,128
-14.10590876,-195585,-13.5751657,-188226,14791,1.066751011,128,17.28279439,239634,8080.078125,2624,128
-14.14312352,-196101,-13.47397905,-186823,15887,1.145796316,128,17.29779569,239842,8082.03125,2688,128
-17.72857818,-245815,-13.45032316,-186495,511,0.036854152,128,17.40266054,241296,8083.984375,2752,128
-13.06721307,-181183,-13.44989043,-186489,15,0.001081824,128,17.31690792,240107,8085.9375,2816,128
-13.97659468,-193792,-13.38772158,-185627,33,0.002380014,128,17.3548439,240633,8087.890625,2880,128
4.873619065,67575,-13.45681411,-186585,16328,1.177601955,128,17.34207837,240456,8089.84375,2944,128
5.358853383,74303,-13.54307157,-187781,14336,1.03393567,128,17.31972066,240146,8091.796875,3008,128
-11.74666604,-162873,-13.52835876,-187577,16359,1.179837725,128,17.26166275,239341,8093.75,3072,128
5.834207038,80894,-13.52900786,-187586,16270,1.1734189,128,17.33760683,240394,8095.703125,3136,128
4.807339288,66656,-13.50765985,-187290,15884,1.145579951,128,17.29159323,239756,8097.65625,3200,128
-14.11506821,-195712,-13.52367086,-187512,15487,1.116947665,128,17.28856412,239714,8099.609375,3264,128
-14.03602291,-194616,-13.50051981,-187191,16289,1.174789211,128,17.39508777,241191,8101.5625,3328,128
4.873114213,67568,-13.44433706,-186412,96,0.006923676,128,17.40013628,241261,8103.515625,3392,128
4.798612571,66535,-13.45003467,-186491,478,0.034474139,128,17.31597034,240094,8105.46875,3456,128
4.727428523,65548,-13.41830116,-186051,64,0.004615784,128,17.39703505,241218,8107.421875,3520,128
-13.2193897,-183293,-13.49294704,-187086,15487,1.116947665,128,17.29570416,239813,8109.375,3584,128
-13.27614943,-184080,-13.55626983,-187964,16383,1.181568644,128,17.23699716,238999,8111.328125,3648,128
-11.8048682,-163680,-13.56247229,-188050,14329,1.033430819,128,17.34171776,240451,8113.28125,3712,128
-11.63552661,-161332,-13.44000977,-186352,993,0.071616777,128,17.33234195,240321,8115.234375,3776,128
-14.03220046,-194563,-13.4771524,-186867,16345,1.178828022,128,17.31322972,240056,8117.1875,3840,128
4.80034349,66559,-13.4991495,-187172,16382,1.181496523,128,17.32368735,240201,8119.140625,3904,128
5.391091751,74750,-13.4981398,-187158,16256,1.172409197,128,17.33291892,240329,8121.09375,3968,128
1.180126212,16363,-13.51566535,-187401,16136,1.163754602,128,17.30039207,239878,8123.046875,4032,128
4.728798834,65567,-13.49842828,-187162,16368,1.18048682,128,17.32375948,240202,8125,4096,128
-13.58021421,-188296,-13.55237526,-187910,16383,1.181568644,128,17.27680829,239551,8126.953125,4160,128
4.75872931,65982,-13.49265855,-187082,16364,1.180198333,128,17.2798374,239593,8128.90625,4224,128
4.870517834,67532,-13.44952982,-186484,254,0.018318894,128,17.33645288,240378,8130.859375,4288,128
-13.07182885,-181247,-13.50398165,-187239,15873,1.144786614,128,17.32080249,240161,8132.8125,4352,128
4.8193836,66823,-13.49150461,-187066,16258,1.172553441,128,17.32260553,240186,8134.765625,4416,128
5.443163567,75472,-13.49965435,-187179,16114,1.162167926,128,17.3361644,240374,8136.71875,4480,128
-13.57833905,-188270,-13.50217861,-187214,15667,1.129929558,128,17.30385391,239926,8138.671875,4544,128
-14.04922116,-194799,-13.47671967,-186861,16139,1.163970967,128,17.32613949,240235,8140.625,4608,128
-13.57155962,-188176,-13.44657283,-186443,233,0.01680434,128,17.40677147,241353,8142.578125,4672,128
-14.11506821,-195712,-13.45724683,-186591,16135,1.16368248,128,17.39566474,241199,8144.53125,4736,128
-13.21787515,-183272,-13.49518281,-187117,15595,1.124736801,128,17.31229214,240043,8146.484375,4800,128
-14.11304881,-195684,-13.5505001,-187884,15885,1.145652073,128,17.31936006,240141,8148.4375,4864,128
-13.5868494,-188388,-13.47462815,-186832,16191,1.167721292,128,17.34676627,240521,8150.390625,4928,128
5.684266172,78815,-13.56074137,-188026,15296,1.103172434,128,17.30565695,239951,8152.34375,4992,128
-11.74666604,-162873,-13.52590663,-187543,16125,1.162961264,128,17.29894963,239858,8154.296875,5056,128
-13.29122285,-184289,-13.43193214,-186240,16355,1.179549239,128,17.36710457,240803,8156.25,5120,128
-13.29468468,-184337,-13.49532705,-187119,473,0.03411353,128,17.35780088,240674,8158.203125,5184,128
-14.17074611,-196484,-13.45457833,-186554,16383,1.181568644,128,17.37474947,240909,8160.15625,5248,128
5.762734504,79903,-13.42197936,-186102,0,0,128,17.38556771,241059,8162.109375,5312,128
-12.99920237,-180240,-13.43294185,-186254,57,0.004110933,128,17.35578148,240646,8164.0625,5376,128
5.44684177,75523,-13.45371288,-186542,16124,1.162889142,128,17.33659713,240380,8166.015625,5440,128
-14.11398639,-195697,-13.39046221,-185665,29,0.002091527,128,17.43129282,241693,8167.96875,5504,128
-13.90223728,-192761,-13.41527205,-186009,16383,1.181568644,128,17.42198913,241564,8169.921875,5568,128
5.898683774,81788,-13.52684421,-187556,14776,1.065669187,128,17.34034745,240432,8171.875,5632,128
-13.58634455,-188381,-13.52605087,-187545,16273,1.173635265,128,17.36825852,240819,8173.828125,5696,128
5.455856974,75648,-13.51205927,-187351,15936,1.149330276,128,17.39696293,241217,8175.78125,5760,128
-13.14589776,-182274,-13.44303887,-186394,15,0.001081824,128,17.33306317,240331,8177.734375,5824,128
-14.08340682,-195273,-13.49273068,-187083,16263,1.172914049,128,17.3772016,240943,8179.6875,5888,128
-13.04391778,-180860,-13.4841482,-186964,3,2.16E-04,128,17.42444127,241598,8181.640625,5952,128
-12.99840903,-180229,-13.33536128,-184901,839,0.060510047,128,17.49064892,242516,8183.59375,6016,128
4.948625558,68615,-13.43835097,-186329,15872,1.144714492,128,17.43172555,241699,8185.546875,6080,128
4.74545893,65798,-13.49337977,-187092,15608,1.125674382,128,17.37107126,240858,8187.5,6144,128
-13.57069416,-188164,-13.36846511,-185360,1081,0.077963481,128,17.5119248,242811,8189.453125,6208,128
5.575867364,77312,-13.39197676,-185686,1016,0.073275575,128,17.53096491,243075,8191.40625,6272,128
-11.80479608,-163679,-13.51645869,-187412,14375,1.036748414,128,17.40056901,241267,8193.359375,6336,128
-13.44996255,-186490,-13.49085551,-187057,15873,1.144786614,128,17.35628633,240653,8195.3125,6400,128
5.796703791,80374,-13.51328534,-187368,14848,1.070861944,128,17.33861653,240408,8197.265625,6464,128
4.872465118,67559,-13.35757474,-185209,62,0.004471541,128,17.47333973,242276,8199.21875,6528,128
4.892154323,67832,-13.46258384,-186665,15984,1.152792114,128,17.38801985,241093,8201.171875,6592,128
5.474536475,75907,-13.41238718,-185969,14,0.001009703,128,17.44766443,241920,8203.125,6656,128
5.391380238,74754,-13.50564045,-187262,16240,1.171255251,128,17.41910427,241524,8205.078125,6720,128
-14.11045243,-195648,-13.31985513,-184686,511,0.036854152,128,17.45213597,241982,8207.03125,6784,128
5.611639692,77808,-13.36824874,-185357,496,0.035772328,128,17.42718189,241636,8208.984375,6848,128
5.889812814,81665,-13.38137488,-185539,56,0.004038811,128,17.41492121,241466,8210.9375,6912,128
-14.17925646,-196602,-13.45688623,-186586,16327,1.177529833,128,17.34712688,240526,8212.890625,6976,128
-13.12909342,-182041,-13.54011459,-187740,16375,1.180991671,128,17.33501045,240358,8214.84375,7040,128
-13.18267979,-182784,-13.46770447,-186736,16147,1.16454794,128,17.30363754,239923,8216.796875,7104,128
5.021468404,69625,-13.35454564,-185167,56,0.004038811,128,17.39515989,241192,8218.75,7168,128
-14.17853524,-196592,-13.5088138,-187306,14339,1.034152035,128,17.45365053,242003,8220.703125,7232,128
-13.47354632,-186817,-13.50679439,-187278,16383,1.181568644,128,17.37135975,240862,8222.65625,7296,128
-14.12191977,-195807,-13.45652562,-186581,16383,1.181568644,128,17.39126532,241138,8224.609375,7360,128
5.90070318,81816,-13.4024344,-185831,0,0,128,17.40410297,241316,8226.5625,7424,128
-12.99812055,-180225,-13.40834837,-185913,7,5.05E-04,128,17.38354831,241031,8228.515625,7488,128
4.744954079,65791,-13.47953242,-186900,15900,1.146733898,128,17.40064113,241268,8230.46875,7552,128
7.129078761,98848,-13.52540177,-187536,14336,1.03393567,128,17.27442828,239518,8232.421875,7616,128
-13.56586201,-188097,-13.56290502,-188056,14351,1.035017495,128,17.28286651,239635,8234.375,7680,128
-14.17622735,-196560,-13.51169866,-187346,14591,1.052326685,128,17.31236426,240044,8236.328125,7744,128
-13.44491404,-186420,-13.48090273,-186919,16357,1.179693482,128,17.37604766,240927,8238.28125,7808,128
5.685708605,78835,-13.47736877,-186870,16252,1.172120711,128,17.37604766,240927,8240.234375,7872,128
-13.55771226,-187984,-13.47974878,-186903,15367,1.108293069,128,17.37035005,240848,8242.1875,7936,128
4.80034349,66559,-13.44368797,-186403,16382,1.181496523,128,17.3788604,240966,8244.140625,8000,128
-14.16151454,-196356,-13.53492183,-187668,14353,1.035161738,128,17.29685811,239829,8246.09375,8064,128
5.649719912,78336,-13.5484807,-187856,16382,1.181496523,128,17.27904407,239582,8248.046875,8128,128
-13.46936327,-186759,-13.50628954,-187271,16131,1.163393994,128,17.34200625,240455,8250,8192,128
4.726563063,65536,-13.50931865,-187313,16380,1.181352279,128,17.33659713,240380,8251.953125,8256,128
7.118044152,98695,-13.52165145,-187484,15398,1.11052884,128,17.2848138,239662,8253.90625,8320,128
-14.16483213,-196402,-13.50491923,-187252,16361,1.179981968,128,17.34907417,240553,8255.859375,8384,128
4.87030147,67529,-13.44498616,-186421,0,0,128,17.41131513,241416,8257.8125,8448,128
4.839577656,67103,-13.47131055,-186786,16248,1.171832224,128,17.34380929,240480,8259.765625,8512,128
-13.57934875,-188284,-13.43164366,-186236,509,0.036709909,128,17.34590082,240509,8261.71875,8576,128
5.557332105,77055,-13.40438168,-185858,16,0.001153946,128,17.37763433,240949,8263.671875,8640,128
-13.11582304,-181857,-13.55756802,-187982,15871,1.14464237,128,17.23411229,238959,8265.625,8704,128
5.345655125,74120,-13.48443669,-186968,15848,1.142983573,128,17.38614468,241067,8267.578125,8768,128
5.326542893,73855,-13.41570478,-186015,4,2.88E-04,128,17.39782839,241229,8269.53125,8832,128
-11.78525111,-163408,-13.55857772,-187996,16367,1.180414698,128,17.261807,239343,8271.484375,8896,128
-11.81611917,-163836,-13.6078368,-188679,14335,1.033863549,128,17.27861134,239576,8273.4375,8960,128
-14.14333989,-196104,-13.50636166,-187272,14847,1.070789822,128,17.33760683,240394,8275.390625,9024,128
4.873763308,67577,-13.45926624,-186619,16380,1.181352279,128,17.36126272,240722,8277.34375,9088,128
-14.12206401,-195809,-13.44758254,-186457,16323,1.177241347,128,17.38600044,241065,8279.296875,9152,128
4.744954079,65791,-13.5248248,-187528,15360,1.107788218,128,17.31077758,240022,8281.25,9216,128
5.760210247,79868,-13.44433706,-186412,256,0.018463137,128,17.37669675,240936,8283.203125,9280,128
5.021901133,69631,-13.43359094,-186263,56,0.004038811,128,17.36861913,240824,8285.15625,9344,128
-13.58886881,-188416,-13.53261394,-187636,15051,1.085502635,128,17.32960133,240283,8287.109375,9408,128
4.72952005,65577,-13.50744349,-187287,15612,1.125962868,128,17.31640307,240100,8289.0625,9472,128
4.772648784,66175,-13.53730184,-187701,15072,1.087017189,128,17.33515469,240360,8291.015625,9536,128
4.746901363,65818,-13.56853051,-188134,16304,1.175871036,128,17.24731055,239142,8292.96875,9600,128
