Device,Device,Device,Device,Device,Device,Device,Device,Device,Device,Device,Device
ECG Vx-RL,ECG Vx-RL,ECG LA-RA,ECG LA-RA,ExG2 CH1,ExG2 CH1,EXG1 Status,ECG LL-RA,ECG LL-RA,Timestamp,Timestamp,EXG2 Status
CAL,RAW,CAL,RAW,CAL,RAW,RAW,CAL,RAW,RAW,CAL,RAW
mV,No Units,mV,No Units,mV,No Units,No Units,mV,No Units,No Units,mSecs,No Units
-1.915622582,-26561,-24.91701304,-345486,1.070573458,14844,0,4.172380468,57852,64,1.953125,0
-1.048071509,-14532,-24.71435126,-342676,0.588512491,8160,0,4.13350691,57313,128,3.90625,0
-4.59623928,-63729,-18.07454563,-250612,1.125674382,15608,128,3.485494075,48328,192,5.859375,128
-3.558913894,-49346,-18.03502298,-250064,1.167721292,16191,128,3.512179078,48698,256,7.8125,128
-4.679828248,-64888,-17.97213292,-249192,1.181352279,16380,128,3.54412896,49141,320,9.765625,128
-3.859733207,-53517,-18.0441103,-250190,1.181208036,16378,128,3.507563294,48634,384,11.71875,128
-4.503923595,-62449,-18.06062616,-250419,1.163177629,16128,128,3.491624414,48413,448,13.671875,128
-9.157499571,-126973,-18.00516462,-249650,4.33E-04,6,128,3.561510272,49382,512,15.625,128
-4.467934903,-61950,-18.05680371,-250366,1.153873939,15999,128,3.4865759,48343,576,17.578125,128
-4.467646416,-61946,-18.09286452,-250866,1.181568644,16383,128,3.465732749,48054,640,19.53125,128
-4.595445942,-63718,-18.05723644,-250372,1.176880738,16318,128,3.501721442,48553,704,21.484375,128
302.427049,4193292,283.5231767,3931181,0.009231568,128,131,0.013630988,189,768,23.4375,0
0.004543663,63,283.5231767,3931181,0,0,131,0.013630988,189,832,25.390625,128
18.88887094,261903,0,0,0,0,25,215.921771,2993856,896,27.34375,152
-2.363281532,-32768,-302.5000361,-4194304,0,0,1,-18.0387733,-250116,960,29.296875,0
8.65E-04,12,0.013630988,189,0,0,155,-355.6738705,-4931584,1024,31.25,128
0.013847353,192,0.013630988,189,1.172409197,16256,155,-355.6738705,-4931584,1088,33.203125,0
-4.726563063,-65536,-302.5000361,-4194304,0,0,1,-18.0164156,-249806,1152,35.15625,0
-2.363281532,-32768,-18.05968858,-250406,0.441312246,6119,128,3.460035141,47975,1216,37.109375,0
-1.181640766,-16384,-18.10894765,-251089,1.164259453,16143,128,5.325028339,73834,1280,39.0625,0
299.4305395,4151744,-18.04346121,-250181,1.181352279,16380,128,5.722057905,79339,1344,41.015625,0
-2.363281532,-32768,-18.02240169,-249889,1.114784016,15457,128,5.706191147,79119,1408,42.96875,128
-2.077102909,-28800,-18.07620443,-250635,0.964626785,13375,128,5.691406213,78914,1472,44.921875,128
-3.545066541,-49154,-18.0317775,-250019,1.033863549,14335,128,5.717874851,79281,1536,46.875,128
-3.609471155,-50047,-18.00617433,-249664,1.135555045,15745,128,5.725952473,79393,1600,48.828125,128
-2.282793794,-31652,-18.08695055,-250784,0.994629382,13791,128,5.703811133,79086,1664,50.78125,128
-2.141219037,-29689,-18.04526425,-250206,1.029319886,14272,128,5.699123227,79021,1728,52.734375,128
-3.581632207,-49661,-18.11486162,-251171,0.295410191,4096,128,3.887860642,53907,1792,54.6875,128
-2.077030787,-28799,-18.08608509,-250772,0.555048055,7696,128,5.686862551,78851,1856,56.640625,128
-1.216403391,-16866,-18.06661225,-250502,0.942773931,13072,128,5.667173346,78578,1920,58.59375,128
-3.614303304,-50114,-18.09805728,-250938,0.96441042,13372,128,5.715134229,79243,1984,60.546875,128
-2.344746273,-32511,-18.02312291,-249899,1.17471709,16288,128,5.711888756,79198,2048,62.5,128
-3.609976007,-50054,-18.08709479,-250786,1.013741614,14056,128,5.700421417,79039,2112,64.453125,128
-4.580084035,-63505,-18.13224293,-251412,0.902385819,12512,128,4.817508437,66797,2176,66.40625,128
-4.133290545,-57310,-18.04281211,-250172,5.77E-04,8,128,3.494437157,48452,2240,68.359375,128
-3.549610203,-49217,-18.0511061,-250287,1.143776911,15859,128,3.482464967,48286,2304,70.3125,128
-2.113740696,-29308,-18.06004918,-250411,1.107788218,15360,128,3.485421954,48327,2368,72.265625,128
-3.870407208,-53665,-18.04699517,-250230,1.144137519,15864,128,3.74693498,51953,2432,74.21875,128
-2.068015584,-28674,-18.07685352,-250644,0.58627672,8129,128,5.692343794,78927,2496,76.171875,128
-1.624756053,-22528,-18.13108899,-251396,0.906929482,12575,128,5.618491247,77903,2560,78.125,128
-4.076025972,-56516,-18.10851492,-251083,0,0,128,4.747622579,65828,2624,80.078125,128
-2.139632361,-29667,-18.06149162,-250431,0.454582626,6303,128,5.671067914,78632,2688,82.03125,128
-3.549826568,-49220,-18.04447091,-250195,1.145796316,15887,128,5.665730913,78558,2752,83.984375,128
-3.844443422,-53305,-18.13498356,-251450,0.890269386,12344,128,5.68152555,78777,2816,85.9375,128
-3.618197872,-50168,-18.15488913,-251726,0.904910076,12547,128,5.710879053,79184,2880,87.890625,128
-0.438643746,-6082,-18.05579401,-250352,1.153873939,15999,128,5.684482537,78818,2944,89.84375,128
-0.509611429,-7066,-18.15705277,-251756,0.978474138,13567,128,5.675827941,78698,3008,91.796875,128
-0.402150202,-5576,-18.05500067,-250341,1.138584153,15787,128,5.687006794,78853,3072,93.75,128
-1.306194819,-18111,-18.0234114,-249903,1.172914049,16263,128,5.753791422,79779,3136,95.703125,128
-0.479320345,-6646,-18.10786582,-251074,1.030473832,14288,128,5.709003891,79158,3200,97.65625,128
-1.273956451,-17664,-18.09149421,-250847,1.016410114,14093,128,5.729197947,79438,3264,99.609375,128
-1.239265947,-17183,-18.07303108,-250591,1.033791427,14334,128,5.752709598,79764,3328,101.5625,128
-0.590820383,-8192,-18.08925844,-250816,1.031555656,14303,128,5.72977492,79446,3392,103.515625,128
-2.344890516,-32513,-18.06855954,-250529,1.163177629,16128,128,5.768720599,79986,3456,105.46875,128
-1.252103597,-17361,-18.09531666,-250900,1.148392695,15923,128,5.789491628,80274,3520,107.421875,128
-5.77E-04,-8,-17.99232697,-249472,1.149402398,15937,128,5.795910453,80363,3584,109.375,128
-0.004399419,-61,-18.07404078,-250605,1.172409197,16256,128,5.760859342,79877,3648,111.328125,128
-0.06952525,-964,-18.08356083,-250737,1.154018182,16001,128,5.794251656,80340,3712,113.28125,128
-7.21E-05,-1,-18.09885062,-250949,1.163610359,16134,128,5.808459617,80537,3776,115.234375,128
-18.89009701,-261920,-18.13296415,-251422,1.066174038,14783,128,5.790861939,80293,3840,117.1875,128
-18.75746533,-260081,-18.14818181,-251633,1.144065397,15863,128,5.795621967,80359,3904,119.140625,128
-0.44369226,-6152,-18.06214071,-250440,1.107788218,15360,128,5.836370687,80924,3968,121.09375,128
-0.009231568,-128,-18.07562746,-250627,1.172697684,16260,128,5.82454274,80760,4032,123.046875,128
-0.590531896,-8188,-18.08860935,-250807,1.18048682,16368,128,5.835288863,80909,4096,125,128
-0.007284285,-101,-18.02348352,-249904,1.14464237,15871,128,5.87279211,81429,4160,126.953125,128
-0.142007487,-1969,-18.01129496,-249735,1.153369087,15992,128,5.866229041,81338,4224,128.90625,128
-0.480041561,-6656,-18.07230986,-250581,1.167721292,16191,128,5.84358285,81024,4288,130.859375,128
-0.002380014,-33,-18.06127525,-250428,1.18048682,16368,128,5.836731295,80929,4352,132.8125,128
0.014424326,200,-18.03069568,-250004,1.052254564,14590,128,5.835577349,80913,4416,134.765625,128
0.258339674,3582,-18.09625424,-250913,1.181496523,16382,128,5.775211546,80076,4480,136.71875,128
-2.16E-04,-3,-18.10404338,-251021,1.135482923,15744,128,5.764537545,79928,4544,138.671875,128
-0.588584612,-8161,-18.04786063,-250242,1.052254564,14590,128,5.786967371,80239,4608,140.625,128
-0.041542058,-576,-18.0544237,-250333,1.181280158,16379,128,5.768720599,79986,4672,142.578125,128
-0.341423791,-4734,-18.08550812,-250764,1.181568644,16383,128,5.7537193,79778,4736,144.53125,128
-0.574665138,-7968,-18.03891755,-250118,1.041941171,14447,128,5.782784317,80181,4800,146.484375,128
-1.449356252,-20096,-17.99571669,-249519,1.12379922,15582,128,5.781414006,80162,4864,148.4375,128
-0.368757888,-5113,-18.19491663,-252281,0.9236617,12807,128,5.70366689,79084,4928,150.390625,128
-0.203527236,-2822,-18.14248421,-251554,0.964698907,13376,128,5.6970317,78992,4992,152.34375,128
-0.300025976,-4160,-18.10548581,-251041,1.108076705,15364,128,5.688521348,78874,5056,154.296875,128
-1.182794712,-16400,-18.09611,-250911,1.052326685,14591,128,5.665009697,78548,5120,156.25,128
0.618515088,8576,-18.14003207,-251520,1.179477117,16354,128,5.606014205,77730,5184,158.203125,128
-0.576396057,-7992,-18.13476719,-251447,0.886230574,12288,128,5.62440522,77985,5248,160.15625,128
-0.147488731,-2045,-18.11962165,-251237,1.070789822,14847,128,5.645032006,78271,5312,162.109375,128
-0.004615784,-64,-18.15171577,-251682,0.919911375,12755,128,5.615606381,77863,5376,164.0625,128
-0.460857208,-6390,-18.14486422,-251587,1.181496523,16382,128,5.621376112,77943,5440,166.015625,128
-0.295482313,-4097,-18.09957184,-250959,1.037397508,14384,128,5.648421722,78318,5504,167.96875,128
-0.538027351,-7460,-18.13923873,-251509,0.959866757,13309,128,5.65938421,78470,5568,169.921875,128
0.015001299,208,-18.11190463,-251130,1.034945373,14350,128,5.625775531,78004,5632,171.875,128
0.073275575,1016,-18.10397126,-251020,1.054129726,14616,128,5.626280382,78011,5696,173.828125,128
-18.25037816,-253050,-18.11428465,-251163,1.034152035,14339,128,5.612937881,77826,5760,175.78125,128
-18.15337457,-251705,-18.12986292,-251379,1.172914049,16263,128,5.590580176,77516,5824,177.734375,128
0.591902207,8207,-18.07375229,-250601,1.145147222,15878,128,5.618130638,77898,5888,179.6875,128
0.151816029,2105,-18.23941567,-252898,0.913348307,12664,128,5.633348302,78109,5952,181.640625,128
0.589738558,8177,-18.20328274,-252397,1.181063793,16376,128,5.564760633,77158,6016,183.59375,128
-18.89730917,-262020,-18.1704674,-251942,1.17652013,16313,128,5.595989298,77591,6080,185.546875,128
-0.145469325,-2017,-18.04850972,-250251,1.109951867,15390,128,5.659889061,78477,6144,187.5,128
0.01817465,252,-18.20861974,-252471,0.895173656,12412,128,5.585243176,77442,6208,189.453125,128
-18.74188706,-259865,-18.0757717,-250629,1.173491022,16271,128,5.594546866,77571,6272,191.40625,128
0.659985025,9151,-18.09986032,-250963,1.163754602,16136,128,5.595051717,77578,6336,193.359375,128
-0.027838949,-386,-18.08752752,-250792,1.179404995,16353,128,5.606519056,77737,6400,195.3125,128
-18.29682449,-253694,-18.14450361,-251582,1.170606157,16231,128,5.563029714,77134,6464,197.265625,128
1.053480632,14607,-18.14731635,-251621,1.112404002,15424,128,5.562092133,77121,6528,199.21875,128
-17.73333821,-245881,-18.11075069,-251114,1.181568644,16383,128,5.586901973,77465,6592,201.171875,128
0.001081824,15,-18.17133286,-251954,1.144714492,15872,128,5.581132243,77385,6656,203.125,128
-17.77055297,-246397,-18.13974358,-251516,1.180414698,16367,128,5.570530363,77238,6720,205.078125,128
0.774369928,10737,-18.12524714,-251315,1.146589654,15898,128,5.594330501,77568,6784,207.03125,128
-1.44E-04,-2,-18.15099456,-251672,1.036171441,14367,128,5.619789436,77921,6848,208.984375,128
0.286827718,3977,-18.128132,-251355,1.163177629,16128,128,5.563318201,77138,6912,210.9375,128
1.035017495,14351,-18.12762715,-251348,1.153801817,15998,128,5.587695311,77476,6976,212.890625,128
1.172409197,16256,-18.11724163,-251204,1.172409197,16256,128,5.584521959,77432,7040,214.84375,128
-18.64221497,-258483,-18.19008448,-252214,1.181280158,16379,128,5.55754847,77058,7104,216.796875,128
-18.87386964,-261695,-18.28038076,-253466,1.108004583,15363,128,5.541753834,76839,7168,218.75,128
-18.76575932,-260196,-18.27158192,-253344,1.17738559,16325,128,5.590652298,77517,7232,220.703125,128
-17.74112734,-245989,-18.14399876,-251575,1.1193998,15521,128,5.537426536,76779,7296,222.65625,128
0.239876537,3326,-18.24266115,-252943,1.14817633,15920,128,5.509587587,76393,7360,224.609375,128
-18.77463028,-260319,-18.14378239,-251572,1.102090609,15281,128,5.526031318,76621,7424,226.5625,128
0.221629765,3073,-18.09949971,-250958,1.11629857,15478,128,5.520477953,76544,7488,228.515625,128
-17.85161768,-247521,-18.17104437,-251950,1.043095117,14463,128,5.520982804,76551,7552,230.46875,128
-18.75833079,-260093,-18.11190463,-251130,1.181568644,16383,128,5.535911982,76758,7616,232.421875,128
-0.018463137,-256,-18.0377636,-250102,0.008005501,111,128,5.572261282,77262,7680,234.375,128
-17.74242553,-246007,-18.05283702,-250311,1.172048589,16251,128,5.603201461,77691,7744,236.328125,128
0.035483841,492,-18.09791304,-250936,1.145291465,15880,128,5.69659897,78986,7808,238.28125,128
-18.00379431,-249631,-18.00350583,-249627,1.16498067,16153,128,5.893995868,81723,7872,240.234375,128
0.889692413,12336,-17.99802458,-249551,1.209335471,16768,128,6.08403636,84358,7936,242.1875,128
-17.75237832,-246145,-17.8457037,-247439,1.310377873,18169,128,6.288861786,87198,8000,244.140625,128
0.581516693,8063,-17.85644983,-247588,1.182217739,16392,128,6.505515159,90202,8064,246.09375,128
-0.09123386,-1265,-17.85529588,-247572,1.809315301,25087,128,6.676587662,92574,8128,248.046875,128
0.423714569,5875,-17.93419694,-248666,1.172264954,16254,128,6.787438606,94111,8192,250,128
0.332192222,4606,-18.00920344,-249706,0.946380013,13122,128,6.848525625,94958,8256,251.953125,128
-18.88656305,-261871,-17.99117303,-249456,1.034007792,14337,128,6.741857736,93479,8320,253.90625,128
-18.01302588,-249759,-18.05189944,-250298,1.152719993,15983,128,6.531190459,90558,8384,255.859375,128
1.179332874,16352,-18.17090013,-251948,0.517544808,7176,128,6.332351128,87801,8448,257.8125,128
-17.90203069,-248220,-18.19275298,-252251,0.009159447,127,128,6.101201308,84596,8512,259.765625,128
0.010097028,140,-18.28095773,-253474,0.033320192,462,128,5.770379397,80009,8576,261.71875,128
0.004471541,62,-18.34283809,-254332,1.11052884,15398,128,5.567357012,77194,8640,263.671875,128
0.237424402,3292,-18.44705384,-255777,0.747612804,10366,128,5.436744742,75383,8704,265.625,128
-18.88901518,-261905,-18.34471325,-254358,0.890774237,12351,128,5.450015122,75567,8768,267.578125,128
0.145108717,2012,-18.36909036,-254696,0.886374818,12290,128,5.391380238,74754,8832,269.53125,128
0.587358545,8144,-18.39260201,-255022,0.900077927,12480,128,5.370032235,74458,8896,271.484375,128
-18.30511848,-253809,-18.30410878,-253795,0.887312399,12303,128,5.32863442,73884,8960,273.4375,128
-18.25030604,-253049,-18.27396193,-253377,0.518915119,7195,128,5.245478182,72731,9024,275.390625,128
-18.02002168,-249856,-18.25355151,-253094,0.586132477,8127,128,5.266537698,73023,9088,277.34375,128
0.002524257,35,-18.29357902,-253649,1.034512643,14344,128,5.328345934,73880,9152,279.296875,128
0.111211552,1542,-18.19513299,-252284,1.164043088,16140,128,5.410564591,75020,9216,281.25,128
0.004687906,65,-18.20400395,-252407,1.144858735,15874,128,5.417127659,75111,9280,283.203125,128
0.898202765,12454,-18.19361844,-252263,1.179044387,16348,128,5.466386731,75794,9344,285.15625,128
-17.87145112,-247796,-18.15431215,-251718,1.172914049,16263,128,5.501365721,76279,9408,287.109375,128
0.184342883,2556,-18.13469507,-251446,1.146878141,15902,128,5.54204232,76843,9472,289.0625,128
-18.31521551,-253949,-18.17811229,-252048,1.107716096,15359,128,5.539590185,76809,9536,291.015625,128
-18.7677066,-260223,-18.14587392,-251601,1.173779508,16275,128,5.590075325,77509,9600,292.96875,128
0.008077622,112,-18.07180501,-250574,1.145291465,15880,128,5.575939486,77313,9664,294.921875,128
1.123943463,15584,-18.09142209,-250846,1.163466115,16132,128,5.536993806,76773,9728,296.875,128
-18.17638137,-252024,-18.30389241,-253792,1.154018182,16001,128,5.591806244,77533,9792,298.828125,128
0.890774237,12351,-18.20321062,-252396,1.179477117,16354,128,5.586685608,77462,9856,300.78125,128
-18.75883564,-260100,-18.17998745,-252074,1.163105507,16127,128,5.579761932,77366,9920,302.734375,128
0.018391015,255,-18.27713529,-253421,1.1167313,15484,128,5.576949188,77327,9984,304.6875,128
0.009447933,131,-18.3988766,-255109,0.886086331,12286,128,5.592599582,77544,10048,306.640625,128
0.29533807,4095,-18.33649139,-254244,1.174428603,16284,128,5.605004502,77716,10112,308.59375,128
-17.73045334,-245841,-18.06322254,-250455,0.004543663,63,128,5.574064323,77287,10176,310.546875,128
1.068626174,14817,-18.13707508,-251479,1.177024982,16320,128,5.600388718,77652,10240,312.5,128
0.266777905,3699,-18.08536388,-250762,0,0,128,5.566635795,77184,10304,314.453125,128
-18.68361279,-259057,-18.07894505,-250673,1.142045992,15835,128,5.573198864,77275,10368,316.40625,128
-17.80747924,-246909,-18.10865916,-251085,1.144786614,15873,128,5.581853459,77395,10432,318.359375,128
0.058202154,807,-18.18294444,-252115,1.172409197,16256,128,5.597503853,77612,10496,320.3125,128
0.848294598,11762,-18.07180501,-250574,1.181063793,16376,128,5.611711813,77809,10560,322.265625,128
0.593993735,8236,-18.0821184,-250717,1.174140116,16280,128,5.624982193,77993,10624,324.21875,128
0.053442127,741,-18.16736617,-251899,0.902385819,12512,128,5.590075325,77509,10688,326.171875,128
0.164942165,2287,-18.09488393,-250894,1.03393567,14336,128,5.616543963,77876,10752,328.125,128
0.738525479,10240,-18.14724423,-251620,1.18048682,16368,128,5.58408923,77426,10816,330.078125,128
0.599402857,8311,-18.12185742,-251268,1.179332874,16352,128,5.599090528,77634,10880,332.03125,128
0.60928352,8448,-18.08983542,-250824,1.163466115,16132,128,5.601686907,77670,10944,333.984375,128
0.702608908,9742,-18.10591854,-251047,1.153369087,15992,128,5.579184959,77358,11008,335.9375,128
-0.001803041,-25,-18.12214591,-251272,1.181135914,16377,128,5.579761932,77366,11072,337.890625,128
-18.09163846,-250849,-18.18186261,-252100,1.146661776,15899,128,5.612144543,77815,11136,339.84375,128
-18.71938511,-259553,-18.07382441,-250602,1.038479333,14399,128,5.633781032,78115,11200,341.796875,128
0.664168079,9209,-18.1688086,-251919,1.181352279,16380,128,5.601470542,77667,11264,343.75,128
-0.002956987,-41,-18.15077819,-251669,1.181568644,16383,128,5.62173672,77948,11328,345.703125,128
0.017237069,239,-18.10000457,-250965,1.144137519,15864,128,5.642363506,78234,11392,347.65625,128
0.138473527,1920,-18.09380211,-250879,1.036676292,14374,128,5.624621585,77988,11456,349.609375,128
0.148282069,2056,-18.16022613,-251800,1.165341278,16158,128,5.601109934,77662,11520,351.5625,128
0.07839621,1087,-18.08168567,-250711,1.052110321,14588,128,5.630751923,78073,11584,353.515625,128
-18.90625225,-262144,-18.10296155,-251006,1.034152035,14339,128,5.628011302,78035,11648,355.46875,128
0.623635724,8647,-18.144143,-251577,1.149330276,15936,128,5.590940784,77521,11712,357.421875,128
0.59997983,8319,-18.14017631,-251522,1.172409197,16256,128,5.603850556,77700,11776,359.375,128
1.051821834,14584,-18.11284222,-251143,1.048215753,14534,128,5.623611882,77974,11840,361.328125,128
-0.297645962,-4127,-18.11825134,-251218,1.039416914,14412,128,5.652965385,78381,11904,363.28125,128
-18.31088821,-253889,-18.12495865,-251311,1.180991671,16375,128,5.606374813,77735,11968,365.234375,128
0.033103828,459,-18.1254635,-251318,1.052110321,14588,128,5.626496747,78014,12032,367.1875,128
1.109735502,15387,-18.19289722,-252253,0.886951791,12298,128,5.589065622,77495,12096,369.140625,128
-18.78516004,-260465,-18.17003467,-251936,1.170606157,16231,128,5.599234772,77636,12160,371.09375,128
-18.17227044,-251967,-18.14544119,-251595,1.04944182,14551,128,5.627578572,78029,12224,373.046875,128
0.849592787,11780,-18.14976849,-251655,1.068554052,14816,128,5.598513555,77626,12288,375,128
-18.31535975,-253951,-18.18618991,-252160,0.888033615,12313,128,5.577526161,77335,12352,376.953125,128
0.075583467,1048,-18.03949452,-250126,1.163177629,16128,128,5.627145842,78023,12416,378.90625,128
-18.90517043,-262129,-18.05990494,-250409,1.174356481,16283,128,5.634718613,78128,12480,380.859375,128
-17.86294077,-247678,-18.221818,-252654,0.886302696,12289,128,5.637891965,78172,12544,382.8125,128
-17.74769041,-246080,-18.19462814,-252277,0.923084727,12799,128,5.633636789,78113,12608,384.765625,128
1.173491022,16271,-18.05485643,-250339,1.153369087,15992,128,5.657797534,78448,12672,386.71875,128
-18.29927663,-253728,-18.08233477,-250720,1.098773014,15235,128,5.661764224,78503,12736,388.671875,128
-18.10332216,-251011,-18.10620703,-251051,1.038479333,14399,128,5.616543963,77876,12800,390.625,128
0.012477042,173,-18.11861195,-251223,1.040715103,14430,128,5.638036208,78174,12864,392.578125,128
0.193285965,2680,-18.12214591,-251272,1.038551454,14400,128,5.63681014,78157,12928,394.53125,128
-18.0244211,-249917,-18.14334966,-251566,0.887312399,12303,128,5.630030707,78063,12992,396.484375,128
0.065702804,911,-18.12986292,-251379,1.037397508,14384,128,5.624333098,77984,13056,398.4375,128
-18.90596377,-262140,-18.07685352,-250644,1.106706394,15345,128,5.66248544,78513,13120,400.390625,128
-17.79846404,-246784,-18.09106148,-250841,1.070789822,14847,128,5.685924969,78838,13184,402.34375,128
-17.79384825,-246720,-18.15488913,-251726,0.914430131,12679,128,5.629958585,78062,13248,404.296875,128
0.721144166,9999,-18.18337717,-252121,0.893154251,12384,128,5.655994493,78423,13312,406.25,128
-18.7260203,-259645,-18.11666466,-251196,1.179549239,16355,128,5.686285578,78843,13376,408.203125,128
0.002019406,28,-18.39087109,-254998,0.886519061,12292,128,5.684915267,78824,13440,410.15625,128
0.009231568,128,-17.98078751,-249312,1.103172434,15296,128,5.682607375,78792,13504,412.109375,128
-18.90625225,-262144,-18.12640108,-251331,0.001658797,23,128,5.710879053,79184,13568,414.0625,128
-18.887717,-261887,-18.26400915,-253239,0.888466345,12319,128,5.657004196,78437,13632,416.015625,128
0.590820383,8192,-18.03574419,-250074,1.179909847,16360,128,5.667894562,78588,13696,417.96875,128
-18.61221237,-258067,-18.0827675,-250726,1.149258155,15935,128,5.721841541,79336,13760,419.921875,128
-18.72703001,-259659,-18.07303108,-250591,1.180703185,16371,128,5.708282674,79148,13824,421.875,128
0.221557644,3072,-18.08226265,-250719,1.146445411,15896,128,5.690684997,78904,13888,423.828125,128
-18.08983542,-250824,-18.08060385,-250696,1.152719993,15983,128,5.73157796,79471,13952,425.78125,128
-0.018463137,-256,-18.05406309,-250328,1.111899151,15417,128,5.764609666,79929,14016,427.734375,128
0.071184048,987,-18.11039008,-251109,1.181352279,16380,128,5.724510041,79373,14080,429.6875,128
0.004038811,56,-18.12733866,-251344,1.153801817,15998,128,5.728620974,79430,14144,431.640625,128
0.278677974,3864,-18.09272028,-250864,1.177024982,16320,128,5.748093813,79700,14208,433.59375,128
0.071544656,992,-18.11926104,-251232,1.144714492,15872,128,5.732659785,79486,14272,435.546875,128
-18.31377307,-253929,-18.16606798,-251881,1.0627122,14735,128,5.67842432,78734,14336,437.5,128
0.88514875,12273,-18.05774129,-250379,1.112115516,15420,128,5.783289168,80188,14400,439.453125,128
1.042662387,14457,-18.12250651,-251277,1.033070211,14324,128,5.758479328,79844,14464,441.40625,128
1.181496523,16382,-18.1811414,-252090,1.015184047,14076,128,5.727322784,79412,14528,443.359375,128
0.8493043,11776,-18.12301137,-251284,1.153657574,15996,128,5.735256164,79522,14592,445.3125,128
0.111860646,1551,-18.05846251,-250389,1.111827029,15416,128,5.811993577,80586,14656,447.265625,128
-17.80077193,-246816,-18.13072838,-251391,1.034007792,14337,128,5.746723502,79681,14720,449.21875,128
-18.89766978,-262025,-18.13534416,-251455,1.162095804,16113,128,5.743766516,79640,14784,451.171875,128
1.141829627,15832,-18.12777139,-251350,1.178034684,16334,128,5.759489031,79858,14848,453.125,128
-17.76153776,-246272,-18.1141404,-251161,1.180414698,16367,128,5.764176937,79923,14912,455.078125,128
0.291659867,4044,-18.17724683,-252036,1.032781724,14320,128,5.720976081,79324,14976,457.03125,128
-18.89218854,-261949,-18.13527204,-251454,1.159643669,16079,128,5.754440517,79788,15040,458.984375,128
-18.15856733,-251777,-18.12164105,-251265,1.044249063,14479,128,5.773985478,80059,15104,460.9375,128
-17.79038641,-246672,-18.16166856,-251820,1.166567345,16175,128,5.749896854,79725,15168,462.890625,128
-0.036421423,-505,-18.15799036,-251769,1.038335089,14397,128,5.763167234,79909,15232,464.84375,128
-18.02117563,-249872,-18.13649811,-251471,1.035017495,14351,128,5.770307275,80008,15296,466.796875,128
0.016227366,225,-18.15149941,-251679,1.03393567,14336,128,5.762806626,79904,15360,468.75,128
-18.76085505,-260128,-18.17003467,-251936,1.165701886,16163,128,5.74484834,79655,15424,470.703125,128
-18.68022307,-259010,-18.13108899,-251396,1.163249751,16129,128,5.747444719,79691,15488,472.65625,128
-18.02124775,-249873,-18.15048971,-251665,1.164259453,16143,128,5.74881503,79710,15552,474.609375,128
0.06685675,927,-18.24907997,-253032,0.962102528,13340,128,5.704820836,79100,15616,476.5625,128
0.147705096,2048,-18.16678919,-251891,1.173563143,16272,128,5.733957974,79504,15680,478.515625,128
0.886086331,12286,-18.1447921,-251586,1.145291465,15880,128,5.732299177,79481,15744,480.46875,128
-0.457683856,-6346,-18.18344929,-252122,1.033647184,14332,128,5.739439218,79580,15808,482.421875,128
0.064116128,889,-18.2415072,-252927,1.015184047,14076,128,5.722202149,79341,15872,484.375,128
0.036782031,510,-18.23205927,-252796,1.033647184,14332,128,5.759777517,79862,15936,486.328125,128
-0.444052868,-6157,-18.17998745,-252074,1.152792114,15984,128,5.690973483,78908,16000,488.28125,128
-18.04793275,-250243,-18.09163846,-250849,1.174644968,16287,128,5.710951175,79185,16064,490.234375,128
-0.311998166,-4326,-18.13195445,-251408,1.144930857,15875,128,5.681309185,78774,16128,492.1875,128
-18.83247183,-261121,-18.23321321,-252812,1.070789822,14847,128,5.629093126,78050,16192,494.140625,128
-0.071616777,-993,-18.24323812,-252951,1.034152035,14339,128,5.617048814,77883,16256,496.09375,128
-18.79323766,-260577,-18.17876138,-252057,1.181568644,16383,128,5.634213762,78121,16320,498.046875,128
0.164004584,2274,-18.1511388,-251674,1.135482923,15744,128,5.640848951,78213,16384,500,128
0.004110933,57,-18.23270836,-252805,0.890702115,12350,128,5.626064018,78008,16448,501.953125,128
-0.239515929,-3321,-18.25730184,-253146,1.172409197,16256,128,5.604427529,77708,16512,503.90625,128
0.070318588,975,-18.24424782,-252965,1.179332874,16352,128,5.606735421,77740,16576,505.859375,128
-0.450111085,-6241,-18.17501106,-252005,1.10786034,15361,128,5.615750625,77865,16640,507.8125,128
0.009231568,128,-18.19534936,-252287,1.177024982,16320,128,5.599018407,77633,16704,509.765625,128
-18.90625225,-262144,-18.29458872,-253663,1.164259453,16143,128,5.55841393,77070,16768,511.71875,128
-0.004543663,-63,-18.31911007,-254003,1.149258155,15935,128,5.589354108,77499,16832,513.671875,128
0.623347238,8643,-18.2875208,-253565,1.147022384,15904,128,5.546225374,76901,16896,515.625,128
0.033392314,463,-18.28211168,-253490,1.069131025,14824,128,5.523579183,76587,16960,517.578125,128
0.590964626,8194,-18.31413368,-253934,1.109519137,15384,128,5.54471082,76880,17024,519.53125,128
-1.327614943,-18408,-18.16599586,-251880,1.163033386,16126,128,5.588849257,77492,17088,521.484375,128
-0.156936664,-2176,-18.23429504,-252827,1.163249751,16129,128,5.516150655,76484,17152,523.4375,128
-0.013847353,-192,-18.19354632,-252262,1.107788218,15360,128,5.557043619,77051,17216,525.390625,128
-0.174390098,-2418,-18.20003726,-252352,1.109230651,15380,128,5.553437537,77001,17280,527.34375,128
-0.073852548,-1024,-18.23696354,-252864,1.107499731,15356,128,5.524733129,76603,17344,529.296875,128
-1.190872334,-16512,-18.24655572,-252997,1.107643975,15358,128,5.517376723,76501,17408,531.25,128
-0.29490534,-4089,-18.25874427,-253166,1.088171135,15088,128,5.491052328,76136,17472,533.203125,128
-18.83420275,-261145,-18.28456381,-253524,1.036459927,14371,128,5.491412937,76141,17536,535.15625,128
-18.614953,-258105,-18.35985879,-254568,1.0316999,14305,128,5.449943,75566,17600,537.109375,128
-0.292020475,-4049,-18.31233064,-253909,1.048287874,14535,128,5.47475284,75910,17664,539.0625,128
0.074862251,1038,-18.23479989,-252834,1.124808922,15596,128,5.477277097,75945,17728,541.015625,128
-18.28665534,-253553,-18.24900785,-253031,1.042662387,14457,128,5.470353421,75849,17792,542.96875,128
-0.073347696,-1017,-18.31435005,-253937,1.035305981,14355,128,5.505981506,76343,17856,544.921875,128
-18.82807241,-261060,-18.23725203,-252868,1.124159828,15587,128,5.500500262,76267,17920,546.875,128
-0.291443502,-4041,-18.2608358,-253195,1.06624616,14784,128,5.498120248,76234,17984,548.828125,128
0.018895867,262,-18.29595903,-253682,1.051244861,14576,128,5.475762543,75924,18048,550.78125,128
-0.074141034,-1028,-18.24186781,-252932,1.145796316,15887,128,5.50309664,76303,18112,552.734375,128
-17.94732308,-248848,-18.25290242,-253085,1.034152035,14339,128,5.483768044,76035,18176,554.6875,128
-0.285313163,-3956,-18.30533484,-253812,1.180847428,16373,128,5.482758341,76021,18240,556.640625,128
0.001009703,14,-18.31341247,-253924,1.038407211,14398,128,5.469560083,75838,18304,558.59375,128
-18.86925386,-261631,-18.27194253,-253349,1.10079242,15263,128,5.515717926,76478,18368,560.546875,128
-18.90589165,-262139,-18.31391732,-253931,1.034440522,14343,128,5.477709827,75951,18432,562.5,128
0.88824998,12316,-18.25968185,-253179,1.035955076,14364,128,5.506125749,76345,18496,564.453125,128
-0.001226068,-17,-18.24129084,-252924,1.144930857,15875,128,5.51059729,76407,18560,566.40625,128
0.025458935,353,-18.31413368,-253934,1.042590266,14456,128,5.481532273,76004,18624,568.359375,128
-18.6293052,-258304,-18.31254701,-253912,1.145796316,15887,128,5.467035826,75803,18688,570.3125,128
1.037397508,14384,-18.23927143,-252896,1.116442813,15480,128,5.482974706,76024,18752,572.265625,128
1.107643975,15358,-18.26198974,-253211,1.038262968,14396,128,5.456217582,75653,18816,574.21875,128
-18.85093496,-261377,-18.26530734,-253257,1.164259453,16143,128,5.447418743,75531,18880,576.171875,128
0.008077622,112,-18.28889111,-253584,1.172553441,16258,128,5.447058135,75526,18944,578.125,128
-0.007212163,-100,-18.24907997,-253032,1.050090915,14560,128,5.499706924,76256,19008,580.078125,128
0.019256475,267,-18.29393963,-253654,1.052110321,14588,128,5.48182076,76008,19072,582.03125,128
-18.61091418,-258049,-18.32725982,-254116,1.174644968,16287,128,5.460400636,75711,19136,583.984375,128
-18.86961447,-261636,-18.28456381,-253524,1.071366795,14855,128,5.505260289,76333,19200,585.9375,128
1.03393567,14336,-18.30966214,-253872,1.034945373,14350,128,5.486869274,76078,19264,587.890625,128
-0.26966277,-3739,-18.28910748,-253587,1.036171441,14367,128,5.504034222,76316,19328,589.84375,128
-17.7976707,-246773,-18.28578988,-253541,1.172481319,16257,128,5.460256393,75709,19392,591.796875,128
1.174140116,16280,-18.24900785,-253031,1.048936969,14544,128,5.480234084,75986,19456,593.75,128
0.004471541,62,-18.3682249,-254684,1.029319886,14272,128,5.460761244,75716,19520,595.703125,128
0.888754831,12323,-18.25730184,-253146,1.172409197,16256,128,5.455929095,75649,19584,597.65625,128
-18.88778912,-261888,-18.22289982,-252669,1.037325387,14383,128,5.486725031,76076,19648,599.609375,128
-18.32011978,-254017,-18.35841636,-254548,1.170606157,16231,128,5.454053933,75623,19712,601.5625,128
0.064548858,895,-18.24907997,-253032,1.114711894,15456,128,5.483840166,76036,19776,603.515625,128
-18.90625225,-262144,-18.31269125,-253914,1.068626174,14817,128,5.493504464,76170,19840,605.46875,128
-0.036926274,-512,-18.21200946,-252518,1.18048682,16368,128,5.536488955,76766,19904,607.421875,128
-18.6143039,-258096,-18.35293512,-254472,1.165413399,16159,128,5.477493462,75948,19968,609.375,128
0.647940713,8984,-18.19361844,-252263,1.143560546,15856,128,5.493432342,76169,20032,611.328125,128
0.036565666,507,-18.31031124,-253881,1.051244861,14576,128,5.470281299,75848,20096,613.28125,128
0,0,-18.30576757,-253818,1.174428603,16284,128,5.450087243,75568,20160,615.234375,128
8.65E-04,12,-18.30064694,-253747,1.034945373,14350,128,5.484417139,76044,20224,617.1875,128
2.16E-04,3,-18.2875208,-253565,1.051821834,14584,128,5.47605103,75928,20288,619.140625,128
0.29490534,4089,-18.31810037,-253989,1.036820535,14376,128,5.468189772,75819,20352,621.09375,128
-17.73276123,-245873,-18.29357902,-253649,1.165413399,16159,128,5.452827865,75606,20416,623.046875,128
-0.518266024,-7186,-18.25441697,-253106,1.146084803,15891,128,5.512544574,76434,20480,625,128
-0.007500649,-104,-18.21273067,-252528,1.144714492,15872,128,5.503313005,76306,20544,626.953125,128
0.582670639,8079,-18.32365374,-254066,1.158561845,16064,128,5.474608597,75908,20608,628.90625,128
-18.31550399,-253953,-18.4779219,-256205,1.052326685,14591,128,5.478791652,75966,20672,630.859375,128
-18.75861928,-260097,-18.1848196,-252141,0.020698907,287,128,5.48578745,76063,20736,632.8125,128
0.071184048,987,-18.27663043,-253414,1.035955076,14364,128,5.474031624,75900,20800,634.765625,128
0.073780426,1023,-18.39692931,-255082,1.033214454,14326,128,5.427441052,75254,20864,636.71875,128
-18.89803039,-262030,-18.28297714,-253502,1.038479333,14399,128,5.474103746,75901,20928,638.671875,128
-18.01136708,-249736,-18.25369576,-253096,1.177529833,16327,128,5.460977609,75719,20992,640.625,128
0.579713652,8038,-18.3265386,-254106,1.17298617,16264,128,5.450664216,75576,21056,642.578125,128
0.600124073,8321,-18.25355151,-253094,1.179332874,16352,128,5.491917788,76148,21120,644.53125,128
0.027406219,380,-18.29502145,-253669,1.034512643,14344,128,5.484417139,76044,21184,646.484375,128
0.56766934,7871,-18.35827212,-254546,1.029319886,14272,128,5.421887686,75177,21248,648.4375,128
-17.85846923,-247616,-18.24475267,-252972,1.180991671,16375,128,5.455856974,75648,21312,650.390625,128
0.894308197,12400,-18.19607058,-252297,1.178034684,16334,128,5.476339516,75932,21376,652.34375,128
-18.81876872,-260931,-18.21121612,-252507,1.109158529,15379,128,5.471074637,75859,21440,654.296875,128
-18.89694856,-262015,-18.30382029,-253791,1.149258155,15935,128,5.437321715,75391,21504,656.25,128
0.008943082,124,-18.28860262,-253580,1.17428436,16282,128,5.447923594,75538,21568,658.203125,128
0.00223577,31,-18.23934355,-252897,1.070429214,14842,128,5.487157761,76082,21632,660.15625,128
1.141180532,15823,-18.2961754,-253685,1.18048682,16368,128,5.458597596,75686,21696,662.109375,128
0.004543663,63,-18.3035318,-253787,1.172409197,16256,128,5.448500567,75546,21760,664.0625,128
-0.008149744,-113,-18.2681922,-253297,1.04987455,14557,128,5.481027422,75997,21824,666.015625,128
-18.00646281,-249668,-18.28456381,-253524,1.162961264,16125,128,5.444389635,75489,21888,667.96875,128
-17.72468361,-245761,-18.29502145,-253669,1.181568644,16383,128,5.436816864,75384,21952,669.921875,128
0.004615784,64,-18.26379278,-253236,1.170101305,16224,128,5.417416145,75115,22016,671.875,128
-18.8780527,-261753,-18.29242507,-253633,1.163393994,16131,128,5.450880581,75579,22080,673.828125,128
0.591469478,8201,-18.3078591,-253847,1.109951867,15390,128,5.402342725,74906,22144,675.78125,128
-18.87682663,-261736,-18.28362623,-253511,1.181568644,16383,128,5.422825268,75190,22208,677.734375,128
-18.01951683,-249849,-18.25622001,-253131,1.144786614,15873,128,5.430542282,75297,22272,679.6875,128
0.450615937,6248,-18.4025548,-255160,1.016482236,14094,128,5.447635108,75534,22336,681.640625,128
-18.31492702,-253945,-18.27107707,-253337,1.110312475,15395,128,5.416767051,75106,22400,683.59375,128
1.121851936,15555,-18.19708028,-252311,1.144858735,15874,128,5.501509965,76281,22464,685.546875,128
0.662365039,9184,-18.19102206,-252227,1.172697684,16260,128,5.491196572,76138,22528,687.5,128
-17.95258796,-248921,-18.25412849,-253102,1.17738559,16325,128,5.499706924,76256,22592,689.453125,128
-18.83297668,-261128,-18.25131574,-253063,1.052326685,14591,128,5.49775964,76229,22656,691.40625,128
-17.73182365,-245860,-18.21273067,-252528,1.180703185,16371,128,5.520622196,76546,22720,693.359375,128
1.107643975,15358,-18.24576238,-252986,1.075477728,14912,128,5.507135452,76359,22784,695.3125,128
0.027694705,384,-18.2865111,-253551,1.181208036,16378,128,5.460040028,75706,22848,697.265625,128
0.608995033,8444,-18.21208158,-252519,1.107932461,15362,128,5.539950793,76814,22912,699.21875,128
0.064476736,894,-18.25153211,-253066,1.09148873,15134,128,5.503168762,76304,22976,701.171875,128
1.110023988,15391,-18.31341247,-253924,1.181496523,16382,128,5.500139654,76262,23040,703.125,128
0.009375812,130,-18.34067444,-254302,1.125241652,15602,128,5.550624794,76962,23104,705.078125,128
0.59997983,8319,-18.2351605,-252839,1.124087706,15586,128,5.567357012,77194,23168,707.03125,128
0.038008098,527,-18.26379278,-253236,1.163177629,16128,128,5.546153253,76900,23232,708.984375,128
0.036637787,508,-18.24179569,-252931,1.125097409,15600,128,5.572694012,77268,23296,710.9375,128
-18.2421563,-252936,-18.24958482,-253039,1.172914049,16263,128,5.5889935,77494,23360,712.890625,128
-18.29480509,-253666,-18.2901893,-253602,1.117524638,15495,128,5.548605388,76934,23424,714.84375,128
-0.449822599,-6237,-18.22924652,-252757,1.181568644,16383,128,5.591517757,77529,23488,716.796875,128
-17.954391,-248946,-18.24778178,-253014,1.180414698,16367,128,5.574497053,77293,23552,718.75,128
-18.90286254,-262097,-18.22931865,-252758,1.172337076,16255,128,5.584810446,77436,23616,720.703125,128
-18.88793336,-261890,-18.28326562,-253506,1.172481319,16257,128,5.588921379,77493,23680,722.65625,128
-18.24165144,-252929,-18.19686391,-252308,1.034007792,14337,128,5.617914273,77895,23744,724.609375,128
-18.87343691,-261689,-18.19570997,-252292,1.149258155,15935,128,5.613659097,77836,23808,726.5625,128
-18.01259315,-249753,-18.26206187,-253212,1.130362288,15673,128,5.565553971,77169,23872,728.515625,128
0.954385514,13233,-18.24727693,-253007,1.177024982,16320,128,5.571756431,77255,23936,730.46875,128
-17.79493008,-246735,-18.22405377,-252685,1.181568644,16383,128,5.557187862,77053,24000,732.421875,128
-18.89730917,-262020,-18.2335017,-252816,1.161374588,16103,128,5.555601186,77031,24064,734.375,128
0.889764534,12337,-18.31290761,-253917,1.033791427,14334,128,5.464223083,75764,24128,736.328125,128
-18.83297668,-261128,-18.2421563,-252936,1.073097715,14879,128,5.508866371,76383,24192,738.28125,128
-18.16830375,-251912,-18.22585681,-252710,1.093868744,15167,128,5.528411332,76654,24256,740.234375,128
0.038008098,527,-18.2778565,-253431,1.037974481,14392,128,5.515357317,76473,24320,742.1875,128
-18.90394436,-262112,-18.26602856,-253267,1.035305981,14355,128,5.501005113,76274,24384,744.140625,128
0.147705096,2048,-18.15993764,-251796,1.179332874,16352,128,5.522857967,76577,24448,746.09375,128
2.88E-04,4,-18.29956511,-253732,1.177024982,16320,128,5.470858272,75856,24512,748.046875,128
-18.90517043,-262129,-18.41474335,-255329,1.046845442,14515,128,5.476844368,75939,24576,750,128
0.009375812,130,-18.30490211,-253806,1.181352279,16380,128,5.42556589,75228,24640,751.953125,128
0.00223577,31,-18.30490211,-253806,1.107788218,15360,128,5.405083347,74944,24704,753.90625,128
-18.32177857,-254040,-18.32177857,-254040,1.034007792,14337,128,5.367652222,74425,24768,755.859375,128
-18.79330978,-260578,-18.19167116,-252236,1.177529833,16327,128,5.397438454,74838,24832,757.8125,128
1.145796316,15887,-18.3121864,-253907,0.959938879,13310,128,5.390370535,74740,24896,759.765625,128
0.034834747,483,-18.3195428,-254009,1.036820535,14376,128,5.36181037,74344,24960,761.71875,128
0.591397356,8200,-18.26869706,-253304,1.106634272,15344,128,5.390226291,74738,25024,763.671875,128
0.009375812,130,-18.23552111,-252844,1.125097409,15600,128,5.409699131,75008,25088,765.625,128
-18.18568506,-252153,-18.24107447,-252921,1.108293069,15367,128,5.414747645,75078,25152,767.578125,128
0.276947054,3840,-18.32697133,-254112,0.959938879,13310,128,5.35560791,74258,25216,769.53125,128
-18.90394436,-262112,-18.31254701,-253912,1.053480632,14607,128,5.378398344,74574,25280,771.484375,128
-18.30908517,-253864,-18.30908517,-253864,1.070789822,14847,128,5.37998502,74596,25344,773.4375,128
0.073347696,1017,-18.33843867,-254271,1.03393567,14336,128,5.347386044,74144,25408,775.390625,128
0.141286271,1959,-18.3218507,-254041,1.061630376,14720,128,5.384312318,74656,25472,777.34375,128
-18.01288164,-249757,-18.28982869,-253597,1.089541446,15107,128,5.377605006,74563,25536,779.296875,128
-18.31572036,-253956,-18.32264403,-254052,1.070789822,14847,128,5.354237599,74239,25600,781.25,128
0.001153946,16,-18.31168155,-253900,1.075189242,14908,128,5.358348532,74296,25664,783.203125,128
-0.572934219,-7944,-18.24201205,-252934,1.143560546,15856,128,5.427152565,75250,25728,785.15625,128
0.606326533,8407,-18.22607317,-252713,1.172409197,16256,128,5.38265352,74633,25792,787.109375,128
0.027766827,385,-18.29430023,-253659,1.070861944,14848,128,5.360295816,74323,25856,789.0625,128
-18.32437495,-254076,-18.47200793,-256123,0.90462159,12543,128,5.372628614,74494,25920,791.015625,128
0.073564061,1020,-18.34745387,-254396,1.109519137,15384,128,5.393111157,74778,25984,792.96875,128
-18.42570584,-255481,-18.41669064,-255356,0.886446939,12291,128,5.340678732,74051,26048,794.921875,128
0.572429368,7937,-18.33194772,-254181,1.069131025,14824,128,5.352578801,74216,26112,796.875,128
-18.90625225,-262144,-18.25809518,-253157,1.180558941,16369,128,5.385682629,74675,26176,798.828125,128
-18.83297668,-261128,-18.24980119,-253042,1.180414698,16367,128,5.369671627,74453,26240,800.78125,128
0.590820383,8192,-18.27727953,-253423,1.107643975,15358,128,5.37955229,74590,26304,802.734375,128
-18.29242507,-253633,-18.21395674,-252545,1.172481319,16257,128,5.394769954,74801,26368,804.6875,128
-18.29242507,-253633,-18.21475008,-252556,1.172481319,16257,128,5.401477266,74894,26432,806.640625,128
-18.29242507,-253633,-18.28643898,-253550,1.172481319,16257,128,5.361666126,74342,26496,808.59375,128
0,0,-18.264514,-253246,1.102883947,15292,128,5.366137667,74404,26560,810.546875,128
0,0,-18.23754051,-252872,1.102883947,15292,128,5.377244398,74558,26624,812.5,128
-17.83553455,-247298,-18.27626983,-253409,1.068626174,14817,128,5.351713342,74204,26688,814.453125,128
0.55793292,7736,-18.33952049,-254286,0.914069523,12674,128,5.335990827,73986,26752,816.40625,128
-18.32004766,-254016,-18.31680218,-253971,0.887312399,12303,128,5.31399373,73681,26816,818.359375,128
-18.32004766,-254016,-18.30345968,-253786,0.887312399,12303,128,5.309738554,73622,26880,820.3125,128
0.553821987,7679,-18.35545937,-254507,0.572357246,7936,128,5.262787373,72971,26944,822.265625,128
-18.89067398,-261928,-18.30504636,-253808,0.590748261,8191,128,5.317167081,73725,27008,824.21875,128
-18.90517043,-262129,-18.26862493,-253303,0.588007639,8153,128,5.314714946,73691,27072,826.171875,128
-18.90625225,-262144,-18.30475787,-253804,0.558437772,7743,128,5.283702646,73261,27136,828.125,128
-18.01893985,-249841,-18.30511848,-253809,0.582814882,8081,128,5.27504805,73141,27200,830.078125,128
-18.90250193,-262092,-18.2885305,-253579,1.051461226,14579,128,5.334909002,73971,27264,832.03125,128
0.065125831,903,-18.2554988,-253121,1.181352279,16380,128,5.446336919,75516,27328,833.984375,128
-18.62923308,-258303,-18.16664495,-251889,0.001081824,15,128,5.54204232,76843,27392,835.9375,128
-17.75728259,-246213,-18.12192954,-251269,0.00223577,31,128,5.78559706,80220,27456,837.890625,128
1.236958055,17151,5.96092474,82651,0,0,152,-302.5000361,-4194304,27520,839.84375,128
0.033392314,463,0.024160746,335,1.181640766,16384,17,145.3418142,2015232,27584,841.796875,128
1.146950262,15903,398.1572602,5520636,7.21E-05,1,29,7.21E-05,1,27648,843.75,0
0.554975933,7695,424.1902833,5881596,0,0,30,7.21E-05,1,27712,845.703125,0
0,0,-302.5000361,-4194304,0,0,2,-18.11450101,-251166,27776,847.65625,128
0.007356406,102,0.025891665,359,0,0,31,-431.2988795,-5980160,27840,849.609375,128
7.21E-05,1,7.21E-05,1,0.006923676,96,158,199.3234109,2763712,27904,851.5625,0
0.006923676,96,7.21E-05,1,0.59067614,8190,158,199.3234109,2763712,27968,853.515625,128
1.181640766,16384,471.4746656,6537216,0,0,0,-56.79030142,-787424,28032,855.46875,128
0.110778822,1536,570.7324899,7913472,1.108293069,15367,0,-0.071616777,-993,28096,857.421875,0
-18.90163647,-262080,-18.38300984,-254889,0.960011001,13311,128,5.675900063,78699,28160,859.375,128
0,0,-18.52148336,-256809,0.72929391,10112,128,5.315075554,73696,28224,861.328125,128
0.323104897,4480,-18.52934462,-256918,0.286178623,3968,128,5.207902814,72210,28288,863.28125,128
-18.90279042,-262096,-18.49328381,-256418,0.47910398,6643,128,5.207253719,72201,28352,865.234375,128
-18.89702069,-262016,-18.61690028,-258132,0.145325082,2015,128,5.13909878,71256,28416,867.1875,128
0.004543663,63,-18.6276464,-258281,0.299449003,4152,128,5.077434787,70401,28480,869.140625,128
0.009880663,137,-18.45296782,-255859,0.459559019,6372,128,5.019448998,69597,28544,871.09375,128
0.004471541,62,-18.36634974,-254658,0.585627626,8120,128,5.020963552,69618,28608,873.046875,128
-18.37139825,-254728,-18.40962272,-255258,0.294184124,4079,128,5.047648555,69988,28672,875,128
0.581588814,8064,-18.34204475,-254321,0.553894109,7680,128,5.119842305,70989,28736,876.953125,128
-18.86716233,-261602,-18.27756802,-253427,0.035123233,487,128,5.204657341,72165,28800,878.90625,128
-18.31658582,-253968,-18.42433553,-255462,0.445351058,6175,128,5.226077464,72462,28864,880.859375,128
0.073780426,1023,-18.39325111,-255031,0.588224004,8156,128,5.250166088,72796,28928,882.8125,128
-18.31535975,-253951,-18.2901893,-253602,5.05E-04,7,128,5.301444566,73507,28992,884.765625,128
-18.30973426,-253873,-18.23104957,-252782,9.38E-04,13,128,5.319547095,73758,29056,886.71875,128
-18.86947022,-261634,-18.32545678,-254091,0.574593016,7967,128,5.320701041,73774,29120,888.671875,128
0.110562457,1533,-18.36389761,-254624,1.03393567,14336,128,5.352795166,74219,29184,890.625,128
-18.89716493,-262018,-18.26198974,-253211,1.177241347,16323,128,5.358997626,74305,29248,892.578125,128
-17.87058566,-247784,-18.32314889,-254059,1.06184674,14723,128,5.345943611,74124,29312,894.53125,128
0.544590419,7551,-18.35452179,-254494,1.037974481,14392,128,5.311036743,73640,29376,896.484375,128
-18.32062463,-254024,-18.3078591,-253847,1.068626174,14817,128,5.352362436,74213,29440,898.4375,128
-17.7569941,-246209,-18.36310427,-254613,1.052470929,14593,128,5.332745353,73941,29504,900.390625,128
0.429195813,5951,-18.58458979,-257684,0.591397356,8200,128,5.333250205,73948,29568,902.34375,128
-18.88555335,-261857,-18.25362364,-253095,0.007140041,99,128,5.362820073,74358,29632,904.296875,128
0.590820383,8192,-18.12467016,-251307,0.065630682,910,128,5.371474668,74478,29696,906.25,128
-0.00223577,-31,-18.28578988,-253541,1.162889142,16124,128,5.348612112,74161,29760,908.203125,128
1.180414698,16367,-18.29473296,-253665,1.037397508,14384,128,5.338515084,74021,29824,910.15625,128
1.051821834,14584,-18.29646388,-253689,1.066101917,14782,128,5.348251503,74156,29888,912.109375,128
0.147416609,2044,-18.33050529,-254161,1.052398807,14592,128,5.329283515,73893,29952,914.0625,128
0.258339674,3582,-18.33627502,-254241,1.036243562,14368,128,5.342265408,74073,30016,916.015625,128
-17.96008861,-249025,-18.2554988,-253121,1.164259453,16143,128,5.356833977,74275,30080,917.96875,128
0.037935977,526,-18.26379278,-253236,1.104903353,15320,128,5.370032235,74458,30144,919.921875,128
0.590820383,8192,-18.29581479,-253680,1.051821834,14584,128,5.371691033,74481,30208,921.875,128
-0.585916112,-8124,-18.31045548,-253883,1.144858735,15874,128,5.35474245,74246,30272,923.828125,128
-18.84343432,-261273,-18.25953761,-253177,1.179260752,16351,128,5.389793562,74732,30336,925.78125,128
0.004471541,62,-18.32682709,-254110,1.116875543,15486,128,5.368229195,74433,30400,927.734375,128
-18.83348153,-261135,-18.3121864,-253907,1.071366795,14855,128,5.339019935,74028,30464,929.6875,128
-0.003461838,-48,-18.29595903,-253682,1.107643975,15358,128,5.368229195,74433,30528,931.640625,128
-0.271321567,-3762,-18.2935069,-253648,1.107716096,15359,128,5.37421529,74516,30592,933.59375,128
0.138473527,1920,-18.35798363,-254542,1.03393567,14336,128,5.316590108,73717,30656,935.546875,128
-18.31564824,-253955,-18.31124882,-253894,1.070789822,14847,128,5.357699437,74287,30720,937.5,128
-18.31305186,-253919,-18.30446938,-253800,1.107139123,15351,128,5.366931005,74415,30784,939.453125,128
-0.036349301,-504,-18.33375076,-254206,1.144714492,15872,128,5.367868587,74428,30848,941.40625,128
0.295265948,4094,-18.41207485,-255292,0.925320497,12830,128,5.375946209,74540,30912,943.359375,128
-0.056543357,-784,-18.23891082,-252891,1.178106806,16335,128,5.39678936,74829,30976,945.3125,128
-0.277019176,-3841,-18.30858032,-253857,1.181568644,16383,128,5.349189085,74169,31040,947.265625,128
0.028632287,397,-18.27901045,-253447,1.1424066,15840,128,5.375080749,74528,31104,949.21875,128
-18.88728427,-261881,-18.33447198,-254216,1.097330582,15215,128,5.387774156,74704,31168,951.171875,128
-18.68447825,-259069,-18.34060232,-254301,1.06184674,14723,128,5.366426154,74408,31232,953.125,128
6.49E-04,9,-18.28694383,-253557,1.112404002,15424,128,5.325028339,73834,31296,955.078125,128
0.516967835,7168,-18.33952049,-254286,1.069563755,14830,128,5.385538386,74673,31360,957.03125,128
-0.517039957,-7169,-18.24525753,-252979,1.109951867,15390,128,5.408977915,74998,31424,958.984375,128
0.036998396,513,-18.33829443,-254269,1.07201589,14864,128,5.364983721,74388,31488,960.9375,128
0.589594315,8175,-18.36281578,-254609,1.073025593,14878,128,5.356329126,74268,31552,962.890625,128
0.286106501,3967,-18.26631704,-253271,1.180342577,16366,128,5.39989059,74872,31616,964.84375,128
-18.83679913,-261181,-18.26328793,-253229,1.10786034,15361,128,5.388928102,74720,31680,966.796875,128
0.591902207,8207,-18.31197003,-253904,1.107643975,15358,128,5.370392844,74463,31744,968.75,128
0.290866529,4033,-18.28723231,-253561,1.107499731,15356,128,5.398736644,74856,31808,970.703125,128
-0.537738864,-7456,-18.26328793,-253229,1.108870042,15375,128,5.414387037,75073,31872,972.65625,128
0.294256245,4080,-18.34211687,-254322,1.068986782,14822,128,5.342986625,74083,31936,974.609375,128
-18.31550399,-253953,-18.30425302,-253797,1.052326685,14591,128,5.390947508,74748,32000,976.5625,128
0.009087325,126,-18.29934875,-253729,1.176736495,16316,128,5.38662021,74688,32064,978.515625,128
-18.31456641,-253940,-18.31911007,-254003,1.107716096,15359,128,5.382869885,74636,32128,980.46875,128
-18.8347076,-261152,-18.32112948,-254031,1.089974176,15113,128,5.382004426,74624,32192,982.421875,128
-0.069236764,-960,-18.24107447,-252921,1.148104208,15919,128,5.443091445,75471,32256,984.375,128
-17.87931238,-247905,-18.22614529,-252714,1.153873939,15999,128,5.401044536,74888,32320,986.328125,128
0.942773931,13072,-18.40241056,-255158,0.959938879,13310,128,5.399674225,74869,32384,988.28125,128
-18.90625225,-262144,-18.74253616,-259874,0.595364046,8255,128,5.3959239,74817,32448,990.234375,128
-18.64755197,-258557,-18.19808998,-252325,0.073203453,1015,128,5.396572995,74826,32512,992.1875,128
-18.7677066,-260223,-18.44784718,-255788,0.894813048,12407,128,5.346809071,74136,32576,994.140625,128
0.002812744,39,-18.30281059,-253777,0.03231049,448,128,5.350992125,74194,32640,996.09375,128
-0.304425395,-4221,-18.08096446,-250701,0.055894262,775,128,5.430398039,75295,32704,998.046875,128
-18.87379752,-261694,-18.2495127,-253038,1.145796316,15887,128,5.355247301,74253,32768,1000,128
-17.801998,-246833,-18.25023392,-253048,1.112331881,15423,128,5.403785158,74926,32832,1001.953125,128
1.145579951,15884,-18.24071386,-252916,1.144570249,15870,128,5.422536781,75186,32896,1003.90625,128
-18.76078293,-260127,-18.20775428,-252459,1.145796316,15887,128,5.459607298,75700,32960,1005.859375,128
0.90462159,12543,-18.27792862,-253432,1.144714492,15872,128,5.41763251,75118,33024,1007.8125,128
-18.01569438,-249796,-18.29595903,-253682,1.12603499,15613,128,5.405588198,74951,33088,1009.765625,128
-18.84163127,-261248,-18.25607577,-253129,1.177097103,16321,128,5.432489566,75324,33152,1011.71875,128
-18.90625225,-262144,-18.29249719,-253634,1.142911451,15847,128,5.402775455,74912,33216,1013.671875,128
-18.62476154,-258241,-18.33577017,-254234,0.960011001,13311,128,5.37731652,74559,33280,1015.625,128
-18.00256825,-249614,-18.26559583,-253261,1.181568644,16383,128,5.44597631,75511,33344,1017.578125,128
-18.00163066,-249601,-18.28658322,-253552,1.171327373,16241,128,5.433931998,75344,33408,1019.53125,128
0,0,-18.30562333,-253816,1.124376193,15590,128,5.431912593,75316,33472,1021.484375,128
-18.90257405,-262093,-18.24496904,-252975,1.172337076,16255,128,5.496966302,76218,33536,1023.4375,128
0.954313392,13232,-18.22931865,-252758,1.107788218,15360,128,5.48182076,76008,33600,1025.390625,128
-18.8693981,-261633,-18.28240016,-253494,1.177097103,16321,128,5.442442351,75462,33664,1027.34375,128
-18.89759766,-262024,-18.26162914,-253206,1.172625562,16259,128,5.466675218,75798,33728,1029.296875,128
-17.80776773,-246913,-18.24994543,-253044,1.044249063,14479,128,5.470641908,75853,33792,1031.25,128
-18.83340941,-261134,-18.28009227,-253462,1.163826724,16137,128,5.439341121,75419,33856,1033.203125,128
-18.30396453,-253793,-18.3045415,-253801,1.172625562,16259,128,5.423113754,75194,33920,1035.15625,128
-18.83463548,-261151,-18.25304666,-253087,1.180414698,16367,128,5.498120248,76234,33984,1037.109375,128
-18.87285994,-261681,-18.36512367,-254641,1.035017495,14351,128,5.484200774,76041,34048,1039.0625,128
-18.75861928,-260097,-18.32062463,-254024,1.108004583,15363,128,5.465809758,75786,34112,1041.015625,128
5.05E-04,7,-18.3501945,-254434,1.03393567,14336,128,5.493648707,76172,34176,1042.96875,128
-18.89125096,-261936,-18.23667505,-252860,1.114639773,15455,128,5.504539073,76323,34240,1044.921875,128
0.004255176,59,-18.18503597,-252144,0.003461838,48,128,5.491629302,76144,34304,1046.875,128
4.33E-04,6,-18.30475787,-253804,1.03393567,14336,128,5.489826261,76119,34368,1048.828125,128
-17.99961126,-249573,-18.28744868,-253564,1.063433416,14745,128,5.48888868,76106,34432,1050.78125,128
0.002163649,30,-18.28961233,-253594,1.078939566,14960,128,5.490331112,76126,34496,1052.734375,128
-18.31773976,-253984,-18.31723491,-253977,1.038479333,14399,128,5.473526773,75893,34560,1054.6875,128
0.887312399,12303,-18.2928578,-253639,1.035955076,14364,128,5.491340815,76140,34624,1056.640625,128
0.036854152,511,-18.29062203,-253608,1.052110321,14588,128,5.504034222,76316,34688,1058.59375,128
0.590820383,8192,-18.30482999,-253805,1.068554052,14816,128,5.489032923,76108,34752,1060.546875,128
-0.064909466,-900,-18.27821711,-253436,1.103677285,15303,128,5.529998008,76676,34816,1062.5,128
0.008943082,124,-18.27965954,-253456,1.069996485,14836,128,5.506919087,76356,34880,1064.453125,128
-18.31435005,-253937,-18.3185331,-253995,1.078867445,14959,128,5.485571085,76060,34944,1066.40625,128
0.574520895,7966,-18.3248798,-254083,1.03393567,14336,128,5.477998314,75955,35008,1068.359375,128
-18.6126451,-258073,-18.30872456,-253859,1.047710901,14527,128,5.48268622,76020,35072,1070.3125,128
-18.88786124,-261889,-18.32423071,-254074,1.03746963,14385,128,5.477565584,75949,35136,1072.265625,128
0.258483918,3584,-18.34182839,-254318,1.035955076,14364,128,5.467107948,75804,35200,1074.21875,128
-18.90625225,-262144,-18.33216409,-254184,1.042662387,14457,128,5.501654208,76283,35264,1076.171875,128
0.001009703,14,-18.31442217,-253938,1.035089616,14352,128,5.473310408,75890,35328,1078.125,128
0.277884636,3853,-18.33324591,-254199,1.177601955,16328,128,5.461121853,75721,35392,1080.078125,128
0.294833218,4088,-18.35351209,-254480,1.163321872,16130,128,5.433210782,75334,35456,1082.03125,128
-0.295410191,-4096,-18.27814499,-253435,1.144786614,15873,128,5.46631461,75793,35520,1083.984375,128
-18.90625225,-262144,-18.33714048,-254253,1.034440522,14343,128,5.442514472,75463,35584,1085.9375,128
0.47996944,6655,-18.50619358,-256597,0.88824998,12316,128,5.405588198,74951,35648,1087.890625,128
-0.054307586,-753,-18.54441804,-257127,0.895462143,12416,128,5.387197183,74696,35712,1089.84375,128
0.58670945,8135,-18.35394482,-254486,1.144714492,15872,128,5.391163873,74751,35776,1091.796875,128
1.172120711,16252,-18.32278828,-254054,0.00576973,80,128,5.362747951,74357,35840,1093.75,128
0.443115287,6144,-18.40933423,-255254,1.03393567,14336,128,5.332528988,73938,35904,1095.703125,128
-18.37305705,-254751,-18.31521551,-253949,1.166567345,16175,128,5.365055843,74389,35968,1097.65625,128
-18.62000151,-258175,-18.37868254,-254829,1.091560852,15135,128,5.348395747,74158,36032,1099.609375,128
-0.59997983,-8319,-18.36122911,-254587,1.146373289,15895,128,5.34587149,74123,36096,1101.5625,128
-18.85028587,-261368,-18.32358161,-254065,1.108437313,15369,128,5.356329126,74268,36160,1103.515625,128
-18.90618013,-262143,-18.34370355,-254344,1.144930857,15875,128,5.338226597,74017,36224,1105.46875,128
-18.38582258,-254928,-18.38798623,-254958,0.588584612,8161,128,5.292862093,73388,36288,1107.421875,128
-18.62894459,-258299,-18.38632743,-254935,0.587430666,8145,128,5.296900904,73444,36352,1109.375,128
-18.31658582,-253968,-18.37262432,-254745,0.581805179,8067,128,5.308368243,73603,36416,1111.328125,128
0.508818091,7055,-18.39527051,-255059,0.525910917,7292,128,5.261489184,72953,36480,1113.28125,128
-18.75508532,-260048,-18.43652409,-255631,0.443620139,6151,128,5.21172526,72263,36544,1115.234375,128
-18.34781448,-254401,-18.42267673,-255439,0.518193903,7185,128,5.247209102,72755,36608,1117.1875,128
-18.38877957,-254969,-18.379548,-254841,0.55439896,7687,128,5.253267318,72839,36672,1119.140625,128
0.5712033,7920,-18.48845166,-256351,0.554182596,7684,128,5.216701653,72332,36736,1121.09375,128
-18.63024278,-258317,-18.37990861,-254846,0.590748261,8191,128,5.242809682,72694,36800,1123.046875,128
0.58670945,8135,-18.34413628,-254350,0.570049354,7904,128,5.253700048,72845,36864,1125,128
-18.76265809,-260153,-18.60124989,-257915,0.484296737,6715,128,5.226582316,72469,36928,1126.953125,128
-18.61091418,-258049,-18.46061271,-255965,0.55569715,7705,128,5.20948949,72232,36992,1128.90625,128
-18.31550399,-253953,-18.35733454,-254533,0.583824585,8095,128,5.245406061,72730,37056,1130.859375,128
-18.75912413,-260104,-18.4228931,-255442,0.512568416,7107,128,5.206676746,72193,37120,1132.8125,128
-18.33389501,-254208,-18.45203024,-255846,0.443331652,6147,128,5.183309338,71869,37184,1134.765625,128
0.001514554,21,-18.36591701,-254652,0.521295133,7228,128,5.212302233,72271,37248,1136.71875,128
-18.61502512,-258106,-18.41092091,-255276,0.507952631,7043,128,5.205378557,72175,37312,1138.671875,128
0.278028879,3855,-18.4415726,-255701,0.461434181,6398,128,5.181434176,71843,37376,1140.625,128
0.477733669,6624,-18.40832453,-255240,0.452058369,6268,128,5.177683851,71791,37440,1142.578125,128
-18.78140971,-260413,-18.34146778,-254313,0.589594315,8175,128,5.241295128,72673,37504,1144.53125,128
-18.36389761,-254624,-18.37449948,-254771,0.526271525,7297,128,5.19398334,72017,37568,1146.484375,128
-18.62000151,-258175,-18.48253768,-256269,0.434100084,6019,128,5.194416069,72023,37632,1148.4375,128
0.590748261,8191,-18.45967513,-255952,0.445278936,6174,128,5.180208108,71826,37696,1150.390625,128
0.004110933,57,-18.40349238,-255173,0.469079074,6504,128,5.195642137,72040,37760,1152.34375,128
0.295482313,4097,-18.49018258,-256375,0.432729773,6000,128,5.156047363,71491,37824,1154.296875,128
0.073780426,1023,-18.41135364,-255282,0.478887615,6640,128,5.189439677,71954,37888,1156.25,128
0.073924669,1025,-18.3892123,-254975,0.516679349,7164,128,5.217567112,72344,37952,1158.203125,128
-18.74044463,-259845,-18.45260721,-255854,0.444197112,6159,128,5.172707459,71722,38016,1160.15625,128
0.59024341,8184,-18.4405629,-255687,0.443115287,6144,128,5.188141488,71936,38080,1162.109375,128
0.585411261,8117,-18.39469354,-255051,0.586348842,8130,128,5.234443573,72578,38144,1164.0625,128
0.017525556,243,-18.41193061,-255290,0.518410268,7188,128,5.246776372,72749,38208,1166.015625,128
-18.76720175,-260216,-18.50071234,-256521,0.572429368,7937,128,5.180496595,71830,38272,1167.96875,128
-18.34312658,-254336,-18.49602443,-256456,0.590748261,8191,128,5.206893111,72196,38336,1169.921875,128
0.443331652,6147,-18.37976436,-254844,0.554759569,7692,128,5.212230112,72270,38400,1171.875,128
-18.88786124,-261889,-18.4148876,-255331,0.443620139,6151,128,5.152729768,71445,38464,1173.828125,128
-18.89817463,-262032,-18.39599173,-255069,0.585267018,8115,128,5.188069366,71935,38528,1175.78125,128
-18.85324286,-261409,-18.38344257,-254895,0.554110474,7683,128,5.229250816,72506,38592,1177.734375,128
-18.8347076,-261152,-18.42469614,-255467,0.516895713,7167,128,5.184607528,71887,38656,1179.6875,128
-18.61177964,-258061,-18.40810816,-255237,0.460785086,6389,128,5.2081913,72214,38720,1181.640625,128
0.556851096,7721,-18.35596423,-254514,0.59067614,8190,128,5.243819385,72708,38784,1183.59375,128
0.221557644,3072,-18.3972178,-255086,0.575819084,7984,128,5.209201003,72228,38848,1185.546875,128
-18.39159231,-255008,-18.41899853,-255388,0.44679349,6195,128,5.200979138,72114,38912,1187.5,128
0.292453205,4055,-18.41092091,-255276,0.477733669,6624,128,5.204513097,72163,38976,1189.453125,128
-18.67445334,-258930,-18.37558131,-254786,0.572285124,7935,128,5.224058059,72434,39040,1191.40625,128
-18.44496232,-255748,-18.4452508,-255752,0.586420964,8131,128,5.15193643,71434,39104,1193.359375,128
0.443115287,6144,-18.45145326,-255838,0.589666437,8176,128,5.167731067,71653,39168,1195.3125,128
0.585916112,8124,-18.40370874,-255176,0.498793185,6916,128,5.208119179,72213,39232,1197.265625,128
0.572429368,7937,-18.38906805,-254973,0.50167805,6956,128,5.227952627,72488,39296,1199.21875,128
0.461289938,6396,-18.42996102,-255540,0.445423179,6176,128,5.172130486,71714,39360,1201.171875,128
0.009159447,127,-18.39058261,-254994,0.57697303,8000,128,5.212807085,72278,39424,1203.125,128
-0.004615784,-64,-18.60572143,-257977,0.51761693,7177,128,5.223841694,72431,39488,1205.078125,128
0.016227366,225,-18.73561248,-259778,0.008943082,124,128,5.193045758,72004,39552,1207.03125,128
-18.61033721,-258041,-18.4319083,-255567,0.443331652,6147,128,5.210210706,72242,39616,1208.984375,128
-17.92078232,-248480,-18.22376528,-252681,0.19436779,2695,128,5.212302233,72271,39680,1210.9375,128
-18.42851858,-255520,-18.40897362,-255249,0.462371762,6411,128,5.179631135,71818,39744,1212.890625,128
0.525983039,7293,-18.36375336,-254622,0.553894109,7680,128,5.188285731,71938,39808,1214.84375,128
0.00223577,31,-18.3645467,-254633,0.551586217,7648,128,5.234227208,72575,39872,1216.796875,128
-18.31550399,-253953,-18.40998333,-255263,0.4604966,6385,128,5.184174798,71881,39936,1218.75,128
0.444269233,6160,-18.41200273,-255291,0.445423179,6176,128,5.185905717,71905,40000,1220.703125,128
-18.38935654,-254977,-18.37435524,-254769,0.521511498,7231,128,5.208335544,72216,40064,1222.65625,128
0.115033998,1595,-18.37478797,-254775,0.583896707,8096,128,5.220019248,72378,40128,1224.609375,128
-18.3501945,-254434,-18.41568093,-255342,0.443620139,6151,128,5.194416069,72023,40192,1226.5625,128
0.258051188,3578,-18.43241315,-255574,0.443115287,6144,128,5.187564515,71928,40256,1228.515625,128
-1.124592558,-15593,-18.40630512,-255212,0.516823592,7166,128,5.231847195,72542,40320,1230.46875,128
-18.3708934,-254721,-18.4458999,-255761,0.445062571,6171,128,5.173356554,71731,40384,1232.421875,128
-18.84040521,-261231,-18.48037404,-256239,0.442754679,6139,128,5.153739471,71459,40448,1234.375,128
-18.62937732,-258305,-18.44510656,-255750,0.45919841,6367,128,5.18114569,71839,40512,1236.328125,128
-18.42671554,-255495,-18.42902344,-255527,0.452851707,6279,128,5.179270527,71813,40576,1238.28125,128
0.14655115,2032,-18.46544486,-256032,0.44412499,6158,128,5.170688053,71694,40640,1240.234375,128
-0.133857743,-1856,-18.41697912,-255360,0.572357246,7936,128,5.207253719,72201,40704,1242.1875,128
-0.024160746,-335,-18.41301243,-255305,0.565361448,7839,128,5.217350747,72341,40768,1244.140625,128
-18.72162088,-259584,-18.43262952,-255577,0.514587821,7135,128,5.196868205,72057,40832,1246.09375,128
0.581588814,8064,-18.4522466,-255849,0.443115287,6144,128,5.183453582,71871,40896,1248.046875,128
-18.75681624,-260072,-18.43118709,-255557,0.452851707,6279,128,5.17364504,71735,40960,1250,128
0.45342868,6287,-18.46407455,-256013,0.444269233,6160,128,5.175375959,71759,41024,1251.953125,128
-18.53713376,-257026,-18.47460431,-256159,0.573006341,7945,128,5.15193643,71434,41088,1253.90625,128
-0.147705096,-2048,-18.44503444,-255749,0.451769883,6264,128,5.196507597,72052,41152,1255.859375,128
0.458332951,6355,-18.44113987,-255695,0.582310031,8074,128,5.168380161,71662,41216,1257.8125,128
-18.84862707,-261345,-18.51888699,-256773,0.58627672,8129,128,5.156912822,71503,41280,1259.765625,128
-18.78112123,-260409,-18.43565863,-255619,0.581805179,8067,128,5.179198406,71812,41344,1261.71875,128
-0.001153946,-16,-18.4148876,-255331,0.517039957,7169,128,5.188285731,71938,41408,1263.671875,128
-18.33504895,-254224,-18.44546717,-255755,0.590748261,8191,128,5.169534107,71678,41472,1265.625,128
0.144820231,2008,-18.46602183,-256040,0.588512491,8160,128,5.16520681,71618,41536,1267.578125,128
0.44765895,6207,-18.45001083,-255818,0.452058369,6268,128,5.187564515,71928,41600,1269.53125,128
0.152248758,2111,-18.44943386,-255810,0.576684544,7996,128,5.154749173,71473,41664,1271.484375,128
0.129891053,1801,-18.51787728,-256759,0.435037665,6032,128,5.125035062,71061,41728,1273.4375,128
0.406405378,5635,-18.49530321,-256446,0.588800977,8164,128,5.145156997,71340,41792,1275.390625,128
0.557283826,7727,-18.45051568,-255825,0.450038964,6240,128,5.176602027,71776,41856,1277.34375,128
0.147632974,2047,-18.48174435,-256258,0.572357246,7936,128,5.151359457,71426,41920,1279.296875,128
-0.027838949,-386,-18.48419648,-256292,0.590748261,8191,128,5.155686755,71486,41984,1281.25,128
-18.75414774,-260035,-18.45873755,-255939,0.589738558,8177,128,5.166288634,71633,42048,1283.203125,128
0.58627672,8129,-18.46566122,-256035,0.572357246,7936,128,5.156984944,71504,42112,1285.15625,128
0.146623271,2033,-18.47583037,-256176,0.587935518,8152,128,5.1541722,71465,42176,1287.109375,128
0.314955153,4367,-18.47222429,-256126,0.574665138,7968,128,5.156047363,71491,42240,1289.0625,128
0.573294827,7949,-18.47784978,-256204,0.586781572,8136,128,5.123520508,71040,42304,1291.015625,128
-18.6432968,-258498,-18.48361951,-256284,0.590171288,8183,128,5.119986548,70991,42368,1292.96875,128
-18.61084206,-258048,-18.61877544,-258158,0.373373672,5177,128,5.16744258,71649,42432,1294.921875,128
0.291948353,4048,-18.50799662,-256622,0.401573229,5568,128,5.139459388,71261,42496,1296.875,128
2.16E-04,3,-18.5009287,-256524,0.589666437,8176,128,5.14573397,71348,42560,1298.828125,128
0.073852548,1024,-18.46227151,-255988,0.445134693,6172,128,5.172058364,71713,42624,1300.78125,128
0.582742761,8080,-18.39469354,-255051,2.88E-04,4,128,5.215547707,72316,42688,1302.734375,128
0.523603025,7260,-18.38264923,-254884,0.572068759,7932,128,5.259397657,72924,42752,1304.6875,128
0.583896707,8096,-18.47006064,-256096,0.516390862,7160,128,5.2285296,72496,42816,1306.640625,128
0.533195202,7393,-18.43219679,-255571,0.588512491,8160,128,5.24136725,72674,42880,1308.59375,128
0.586204599,8128,-18.43537014,-255615,0.515813889,7152,128,5.233217506,72561,42944,1310.546875,128
0.00223577,31,-18.45888179,-255941,0.480185804,6658,128,5.217711355,72346,43008,1312.5,128
0.145469325,2017,-18.50648207,-256601,0.445278936,6174,128,5.198959732,72086,43072,1314.453125,128
-18.31716279,-253976,-18.4532563,-255863,0.569688746,7899,128,5.254132778,72851,43136,1316.40625,128
-18.31608097,-253961,-18.48708135,-256332,0.470737871,6527,128,5.2338666,72570,43200,1318.359375,128
-18.31579248,-253957,-18.46580547,-256037,0.57343907,7951,128,5.26531163,73006,43264,1320.3125,128
0.147560852,2046,-18.4762631,-256182,0.515525402,7148,128,5.242088466,72684,43328,1322.265625,128
-18.4629206,-255997,-18.42137854,-255421,0.572285124,7935,128,5.295674836,73427,43392,1324.21875,128
-18.46198302,-255984,-18.48210495,-256263,0.572862097,7943,128,5.269494685,73064,43456,1326.171875,128
-18.57622368,-257568,-18.44359201,-255729,0.576900909,7999,128,5.278221402,73185,43520,1328.125,128
-18.87401389,-261697,-18.43234103,-255573,0.563197799,7809,128,5.287525092,73314,43584,1330.078125,128
-18.75854716,-260096,-18.45794421,-255928,0.582093666,8071,128,5.266393455,73021,43648,1332.03125,128
-18.4609012,-255969,-18.47907585,-256221,0.581083963,8057,128,5.252690345,72831,43712,1333.984375,128
-18.88800548,-261891,-18.38106255,-254862,0.558005042,7737,128,5.302382148,73520,43776,1335.9375,128
-0.018823745,-261,-18.50215477,-256541,1.035017495,14351,128,5.30692581,73583,43840,1337.890625,128
0.519203606,7199,-18.71274992,-259461,0.587935518,8152,128,5.288967525,73334,43904,1339.84375,128
-18.8880776,-261892,-18.70460018,-259348,0.568246313,7879,128,5.295963323,73431,43968,1341.796875,128
-18.59353287,-257808,-18.46508425,-256027,0.590315532,8185,128,5.286299024,73297,44032,1343.75,128
-0.004543663,-63,-18.39382808,-255039,0.59024341,8184,128,5.293799674,73401,44096,1345.703125,128
0.552451676,7660,-18.50150567,-256532,0.572213003,7934,128,5.258820684,72916,44160,1347.65625,128
0.583824585,8095,-18.50763601,-256617,0.589666437,8176,128,5.233289627,72562,44224,1349.609375,128
0.293102299,4064,-18.37305705,-254751,0,0,128,5.22766414,72484,44288,1351.5625,128
-18.60983236,-258034,-18.47135883,-256114,0.508529604,7051,128,5.225861099,72459,44352,1353.515625,128
0.585050653,8112,-18.40529542,-255198,0.57697303,8000,128,5.230044154,72517,44416,1355.46875,128
-18.33295743,-254195,-18.4425823,-255715,0.477517304,6621,128,5.199464583,72093,44480,1357.421875,128
-0.1390505,-1928,-18.45484298,-255885,0.49857682,6913,128,5.21172526,72263,44544,1359.375,128
0.583752463,8094,-18.4709261,-256108,0.586204599,8128,128,5.141983645,71296,44608,1361.328125,128
0.222134617,3080,-18.438255,-255655,0.525189701,7282,128,5.174438378,71746,44672,1363.28125,128
0.365079685,5062,-18.47150308,-256116,0.59067614,8190,128,5.130155698,71132,44736,1365.234375,128
0.063467033,880,-18.49804383,-256484,0.540912216,7500,128,5.11739017,70955,44800,1367.1875,128
-18.82410572,-261005,-18.5035972,-256561,0.535935823,7431,128,5.106427682,70803,44864,1369.140625,128
0.572934219,7944,-18.49898142,-256497,0.569472381,7896,128,5.116741075,70946,44928,1371.09375,128
0.368685766,5112,-18.57550246,-257558,0.433883719,6016,128,5.052047974,70049,44992,1373.046875,128
-18.87062417,-261650,-18.48527831,-256307,0.443908625,6155,128,5.102821601,70753,45056,1375,128
-18.31550399,-253953,-18.49018258,-256375,0.517761173,7179,128,5.095970046,70658,45120,1376.953125,128
-18.59735532,-257861,-18.52350277,-256837,0.461506303,6399,128,5.077002058,70395,45184,1378.90625,128
0.442394071,6134,-18.52040154,-256794,0.480618534,6664,128,5.061856516,70185,45248,1380.859375,128
0.522232714,7241,-18.43940895,-255671,0.553894109,7680,128,5.107365263,70816,45312,1382.8125,128
-0.274711284,-3809,-18.47532552,-256169,0.572285124,7935,128,5.110610737,70861,45376,1384.765625,128
-18.84163127,-261248,-18.64776834,-258560,0.362555428,5027,128,5.061423786,70179,45440,1386.71875,128
0.590748261,8191,-18.48347527,-256282,0.554182596,7684,128,5.101379168,70733,45504,1388.671875,128
-18.57369942,-257533,-18.48376375,-256286,0.508241118,7047,128,5.072602638,70334,45568,1390.625,128
0.020266178,281,-18.55408234,-257261,0.461434181,6398,128,5.05760134,70126,45632,1392.578125,128
-18.57593519,-257564,-18.5452835,-257139,0.447081977,6199,128,5.053490407,70069,45696,1394.53125,128
-18.87047993,-261648,-18.51484817,-256717,0.515886011,7153,128,5.074405679,70359,45760,1396.484375,128
-0.073347696,-1017,-18.53662891,-257019,0.489128886,6782,128,5.067554124,70264,45824,1398.4375,128
0.034329895,476,-18.54881746,-257188,0.445134693,6172,128,5.042455797,69916,45888,1400.390625,128
-0.038152342,-529,-18.50381357,-256564,0.576900909,7999,128,5.081762085,70461,45952,1402.34375,128
0.004110933,57,-18.50979966,-256647,0.556202001,7712,128,5.066544421,70250,46016,1404.296875,128
-0.072698602,-1008,-18.55574114,-257284,0.462011154,6406,128,5.029690269,69739,46080,1406.25,128
-18.84963678,-261359,-18.53251797,-256962,0.444197112,6159,128,5.042816406,69921,46144,1408.203125,128
0.313873328,4352,-18.55747206,-257308,0.477733669,6624,128,5.074549922,70361,46208,1410.15625,128
0.301756895,4184,-18.59807653,-257871,0.44369226,6152,128,5.011876227,69492,46272,1412.109375,128
-18.40378087,-255177,-18.52234882,-256821,0.445351058,6175,128,5.040003662,69882,46336,1414.0625,128
-18.31550399,-253953,-18.54650957,-257156,0.465256627,6451,128,5.055293447,70094,46400,1416.015625,128
-18.8903855,-261924,-18.52566642,-256867,0.47996944,6655,128,5.051182515,70037,46464,1417.96875,128
-18.68382915,-259060,-18.6826752,-259044,0.331687371,4599,128,5.058250434,70135,46528,1419.921875,128
-0.027983192,-388,-18.52999372,-256927,0.589666437,8176,128,5.082266937,70468,46592,1421.875,128
-1.808882571,-25081,-18.46270424,-255994,0.582454274,8076,128,5.115154399,70924,46656,1423.828125,128
-18.86045502,-261509,-18.56511695,-257414,0.519059362,7197,128,5.027815107,69713,46720,1425.78125,128
0.366954847,5088,-18.47835463,-256211,0.520862403,7222,128,5.024569634,69668,46784,1427.734375,128
-18.9057474,-262137,-18.52956099,-256921,0.282644663,3919,128,5.009063483,69453,46848,1429.6875,128
-18.90517043,-262129,-18.60052867,-257905,0.235621361,3267,128,4.962689276,68810,46912,1431.640625,128
0.263965161,3660,-18.64228709,-258484,0.129241959,1792,128,4.950717086,68644,46976,1433.59375,128
-18.83420275,-261145,-18.55033202,-257209,0.285241042,3955,128,4.973723885,68963,47040,1435.546875,128
-18.77246663,-260289,-18.51448757,-256712,0.254372985,3527,128,4.972209331,68942,47104,1437.5,128
0.058634884,813,-18.54787988,-257175,0.288342272,3998,128,4.958794708,68756,47168,1439.453125,128
-0.147344488,-2043,-18.58509464,-257691,0.240020781,3328,128,4.972425696,68945,47232,1441.40625,128
-18.7950407,-260602,-18.52963311,-256922,0.277019176,3841,128,5.004014969,69383,47296,1443.359375,128
0.5171842,7171,-18.44359201,-255729,0.589666437,8176,128,5.039426689,69874,47360,1445.3125,128
0.304858125,4227,-18.61617906,-258122,0.366954847,5088,128,5.12402536,71047,47424,1447.265625,128
0.017814042,247,-18.33591441,-254236,0.004327298,60,128,5.352939409,74221,47488,1449.21875,128
0.590748261,8191,-18.43378346,-255593,0.036782031,510,128,5.473166165,75888,47552,1451.171875,128
-18.89190005,-261945,-18.36404185,-254626,1.177529833,16327,128,5.677847347,78726,47616,1453.125,128
0.064620979,896,-18.26927403,-253312,0.018318894,254,128,5.778817627,80126,47680,1455.078125,128
-18.01749742,-249821,-18.30829183,-253853,1.186472915,16451,128,6.015088083,83402,47744,1457.03125,128
-18.23241988,-252801,-18.23530474,-252841,1.255709679,17411,128,6.130554811,85003,47808,1458.984375,128
0.295121705,4092,-18.33670775,-254247,0.514659943,7136,128,6.261888297,86824,47872,1460.9375,128
0.221990373,3078,-18.38769774,-254954,0.515525402,7148,128,6.273427757,86984,47936,1462.890625,128
0.526127282,7295,-18.37183098,-254734,0.147705096,2048,128,6.067736872,84132,48000,1464.84375,128
-18.89709281,-262017,-18.46436303,-256017,1.181280158,16379,128,5.878345475,81506,48064,1466.796875,128
0.009087325,126,-18.52992159,-256926,0.958784933,13294,128,5.67842432,78734,48128,1468.75,128
-18.90221344,-262088,-18.5892777,-257749,0.918468942,12735,128,5.385898994,74678,48192,1470.703125,128
0.148282069,2056,-18.72327968,-259607,0.073708305,1022,128,5.090200316,70578,48256,1472.65625,128
-18.90625225,-262144,-18.75530168,-260051,0.228264955,3165,128,4.954828019,68701,48320,1474.609375,128
-18.83239971,-261120,-18.80239711,-260704,0.139555352,1935,128,4.847222548,67209,48384,1476.5625,128
0.041758423,579,-18.78891036,-260517,0.142945068,1982,128,4.82248483,66866,48448,1478.515625,128
-18.63882525,-258436,-18.75046954,-259984,0.013775231,191,128,4.814190842,66751,48512,1480.46875,128
-18.89831887,-262034,-18.67935761,-258998,0.073780426,1023,128,4.771206352,66155,48576,1482.421875,128
0.017525556,243,-18.67063089,-258877,1.1167313,15484,128,4.680116735,64892,48640,1484.375,128
-18.68022307,-259010,-18.63875313,-258435,1.172914049,16263,128,4.699012601,65154,48704,1486.328125,128
0.008943082,124,-18.57218487,-257512,0,0,128,4.797098016,66514,48768,1488.28125,128
-18.90170859,-262081,-18.56071753,-257353,0.036854152,511,128,4.826235154,66918,48832,1490.234375,128
-18.43075436,-255551,-18.55112535,-257220,0.074213156,1029,128,4.856021387,67331,48896,1492.1875,128
0.075078616,1041,-18.53533072,-257001,0.14655115,2032,128,4.863017185,67428,48960,1494.140625,128
-18.8704078,-261647,-18.51730031,-256751,0.28827015,3997,128,4.921940556,68245,49024,1496.09375,128
0.076088318,1055,-18.53475374,-256993,0.294833218,4088,128,4.961030479,68787,49088,1498.046875,128
0.322095194,4466,-18.58531101,-257694,0.258339674,3582,128,4.975094196,68982,49152,1500,128
-18.87747572,-261745,-18.51751667,-256754,0.525406066,7285,128,5.04656673,69973,49216,1501.953125,128
-18.86009441,-261504,-18.48852378,-256352,0.553821987,7679,128,5.054644353,70085,49280,1503.90625,128
-18.90134798,-262076,-18.55977995,-257340,0.278605852,3863,128,5.007476808,69431,49344,1505.859375,128
-18.38870745,-254968,-18.52703673,-256886,0.518193903,7185,128,5.034883026,69811,49408,1507.8125,128
-18.8737254,-261693,-18.51773304,-256757,0.519203606,7199,128,5.042023068,69910,49472,1509.765625,128
0.032382611,449,-18.5496108,-257199,0.294833218,4088,128,5.016780498,69560,49536,1511.71875,128
-18.39108746,-255001,-18.57117517,-257498,0.452563221,6275,128,5.031421188,69763,49600,1513.671875,128
-18.79518495,-260604,-18.53554708,-257004,0.517328443,7173,128,5.047720676,69989,49664,1515.625,128
-18.76056656,-260124,-18.53662891,-257019,0.293174421,4065,128,5.020314457,69609,49728,1517.578125,128
-18.85079072,-261375,-18.55538053,-257279,0.291010772,4035,128,5.017573836,69571,49792,1519.53125,128
0.295410191,4096,-18.54578835,-257146,0.512352051,7104,128,5.07310749,70341,49856,1521.484375,128
0.445351058,6175,-18.45239084,-255851,0.008943082,124,128,5.085151802,70508,49920,1523.4375,128
-18.79345403,-260580,-18.53114766,-256943,0.482133088,6685,128,5.06070257,70169,49984,1525.390625,128
-18.60161049,-257920,-18.61113055,-258052,0.452418977,6273,128,5.03502727,69813,50048,1527.34375,128
-18.88894306,-261904,-18.64322467,-258497,0.297213232,4121,128,5.052192217,70051,50112,1529.296875,128
-18.32358161,-254065,-18.50864571,-256631,0.549783176,7623,128,5.044258838,69941,50176,1531.25,128
0.076665291,1063,-18.5249452,-256857,0.294256245,4080,128,5.019016268,69591,50240,1533.203125,128
-18.62887247,-258298,-18.64502771,-258522,0.325052181,4507,128,5.051615244,70043,50304,1535.15625,128
0.554975933,7695,-18.49443775,-256434,0.574088165,7960,128,5.063010462,70201,50368,1537.109375,128
-18.83651064,-261177,-18.55905873,-257330,0.477805791,6625,128,5.054355866,70081,50432,1539.0625,128
0.309906639,4297,-18.57788248,-257591,0.452058369,6268,128,5.065246232,70232,50496,1541.015625,128
7.21E-05,1,-18.58278675,-257659,0.581011841,8056,128,5.102172506,70744,50560,1542.96875,128
0.590748261,8191,-18.45873755,-255939,0.027694705,384,128,5.086594234,70528,50624,1544.921875,128
0.445351058,6175,-18.5672806,-257444,0.507159294,7032,128,5.067554124,70264,50688,1546.875,128
0.147128123,2040,-18.49299532,-256414,0.586348842,8130,128,5.078660855,70418,50752,1548.828125,128
0.415276338,5758,-18.49313956,-256416,0.588512491,8160,128,5.070511111,70305,50816,1550.78125,128
-18.31557611,-253954,-18.51867062,-256770,0.581660936,8065,128,5.068924435,70283,50880,1552.734375,128
-18.9057474,-262137,-18.531941,-256954,0.554110474,7683,128,5.05940438,70151,50944,1554.6875,128
0.5171842,7171,-18.46241575,-255990,0.588512491,8160,128,5.086810599,70531,51008,1556.640625,128
-18.47135883,-256114,-18.47135883,-256114,0.558437772,7743,128,5.067986854,70270,51072,1558.59375,128
-18.4645794,-256020,-18.47409945,-256152,0.563053556,7807,128,5.10498525,70783,51136,1560.546875,128
-18.83254395,-261122,-18.47554189,-256172,0.55439896,7687,128,5.0974846,70679,51200,1562.5,128
-18.90170859,-262081,-18.45397752,-255873,0.554975933,7695,128,5.098061573,70687,51264,1564.453125,128
0.456385667,6328,-18.48910075,-256360,0.586637328,8134,128,5.073323855,70344,51328,1566.40625,128
-18.38928442,-254976,-18.52840704,-256905,0.488047062,6767,128,5.090777289,70586,51392,1568.359375,128
0.01817465,252,-18.54275924,-257104,0.475714263,6596,128,5.091570627,70597,51456,1570.3125,128
0.444197112,6159,-18.54535562,-257140,0.478887615,6640,128,5.050821906,70032,51520,1572.265625,128
-18.45383328,-255871,-18.54384107,-257119,0.563053556,7807,128,5.0664723,70249,51584,1574.21875,128
0.368469401,5109,-18.47085398,-256107,0.554471082,7688,128,5.099936736,70713,51648,1576.171875,128
0.573222706,7948,-18.494582,-256436,0.59067614,8190,128,5.09568156,70654,51712,1578.125,128
0.006995798,97,-18.45614117,-255903,0.582454274,8076,128,5.087531815,70541,51776,1580.078125,128
0.525045457,7280,-18.4582327,-255932,0.553028649,7668,128,5.121573224,71013,51840,1582.03125,128
-18.75941262,-260108,-18.46970003,-256091,0.553821987,7679,128,5.130876914,71142,51904,1583.984375,128
0.112149133,1555,-18.49414927,-256430,0.588945221,8166,128,5.110105885,70854,51968,1585.9375,128
-18.75046954,-259984,-18.45621329,-255904,0.590748261,8191,128,5.133833901,71183,52032,1587.890625,128
0.47996944,6655,-18.42649918,-255492,0.535142486,7420,128,5.125035062,71061,52096,1589.84375,128
-18.90279042,-262096,-18.38575046,-254927,0.517472686,7175,128,5.124530211,71054,52160,1591.796875,128
0.701310718,9724,-18.20955732,-252484,0.512352051,7104,128,5.092724573,70613,52224,1593.75,128
0.55216319,7656,-18.3585606,-254550,0.549566811,7620,128,5.123808995,71044,52288,1595.703125,128
-18.81422506,-260868,-18.37486009,-254776,0.559014745,7751,128,5.139603631,71263,52352,1597.65625,128
0.041397815,574,-18.05391884,-250326,0.586204599,8128,128,5.119698062,70987,52416,1599.609375,128
0.291227137,4038,-18.32365374,-254066,0.590531896,8188,128,5.13996424,71268,52480,1601.5625,128
-18.88894306,-261904,-18.30244998,-253772,0.556274123,7713,128,5.172058364,71713,52544,1603.515625,128
0.036565666,507,-18.06661225,-250502,0.581588814,8064,128,5.1178229,70961,52608,1605.46875,128
-17.72915515,-245823,-18.22946289,-252760,0.581660936,8065,128,5.197589421,72067,52672,1607.421875,128
1.044249063,14479,-18.15395154,-251713,0.589666437,8176,128,5.177900216,71794,52736,1609.375,128
-17.87123476,-247793,-18.01930046,-249846,0.590748261,8191,128,5.167081972,71644,52800,1611.328125,128
0.887312399,12303,-17.93628847,-248695,0.4064775,5636,128,5.142344253,71301,52864,1613.28125,128
1.144714492,15872,-17.78223667,-246559,0.586204599,8128,128,5.1515037,71428,52928,1615.234375,128
1.112259759,15422,-17.76687476,-246346,0.028848652,400,128,5.18958392,71956,52992,1617.1875,128
1.172481319,16257,-17.82608662,-247167,0.443115287,6144,128,5.172635337,71721,53056,1619.140625,128
9.38E-04,13,-17.60366352,-244083,0.590531896,8188,128,5.165928026,71628,53120,1621.09375,128
-18.28038076,-253466,-18.14421512,-251578,0.014063718,195,128,5.222110775,72407,53184,1623.046875,128
0.470305141,6521,-17.8457037,-247439,0.558509893,7744,128,5.184319041,71883,53248,1625,128
-17.7800009,-246528,-17.77545724,-246465,0.585122774,8113,128,5.182443879,71857,53312,1626.953125,128
-18.38034134,-254852,-17.60387988,-244086,0.005264879,73,128,5.214970734,72308,53376,1628.90625,128
1.183948658,16416,-17.69359919,-245330,0.516967835,7168,128,5.172130486,71714,53440,1630.859375,128
0.775379631,10751,-16.94980883,-235017,0.445423179,6176,128,5.176674149,71777,53504,1632.8125,128
0.775379631,10751,-17.14662875,-237746,0.445423179,6176,128,5.229106573,72504,53568,1634.765625,128
-16.80383465,-232993,-17.4045357,-241322,0.516895713,7167,128,5.223841694,72431,53632,1636.71875,128
0.008654595,120,-16.9066801,-234419,0.552740163,7664,128,5.232424168,72550,53696,1638.671875,128
-17.62255938,-244345,-17.47485429,-242297,0.517472686,7175,128,5.252546102,72829,53760,1640.625,128
-17.62255938,-244345,-17.46800273,-242202,0.517472686,7175,128,5.295025741,73418,53824,1642.578125,128
-17.62255938,-244345,-16.89052485,-234195,0.517472686,7175,128,5.237112074,72615,53888,1644.53125,128
1.919012298,26608,-16.98687935,-235531,0.530238215,7352,128,5.242088466,72684,53952,1646.484375,128
-18.87047993,-261648,-16.83910213,-233482,0.5171842,7171,128,5.246560007,72746,54016,1648.4375,128
-18.87047993,-261648,-16.65295621,-230901,0.5171842,7171,128,5.28125051,73227,54080,1650.390625,128
0.280481014,3889,-16.55443806,-229535,0.001153946,16,128,5.237761168,72624,54144,1652.34375,128
-16.57932002,-229880,-16.57347817,-229799,0.028055314,389,128,5.262931617,72973,54208,1654.296875,128
-16.55176956,-229498,-16.69558009,-231492,0.035988693,499,128,5.278654132,73191,54272,1656.25,128
-16.53402764,-229252,-16.23169377,-225060,0.036854152,511,128,5.26617709,73018,54336,1658.203125,128
-16.54246587,-229369,-16.25462845,-225378,0.553821987,7679,128,5.274615321,73135,54400,1660.15625,128
2.16E-04,3,-16.43954831,-227942,0.561971731,7792,128,5.288967525,73334,54464,1662.109375,128
-16.54066283,-229344,-16.13447382,-223712,0.581516693,8063,128,5.270504388,73078,54528,1664.0625,128
2.622270301,36359,-15.97587836,-221513,0.009087325,126,128,5.296468174,73438,54592,1666.015625,128
-9.451178843,-131045,-15.96909892,-221419,0.29490534,4089,128,5.301011837,73501,54656,1667.96875,128
0.26302758,3647,-15.96909892,-221419,0,0,128,5.301011837,73501,54720,1669.921875,152
0.609211398,8447,134.1344016,1859836,7.21E-05,1,29,7.21E-05,1,54784,1671.875,0
7.21E-05,1,134.1344016,1859836,0,0,29,7.21E-05,1,54848,1673.828125,128
0.115322484,1599,-302.5000361,-4194304,0,0,2,-15.37719671,-213212,54912,1675.78125,0
4.135742681,57344,-540.00983,-7487488,0.544662541,7552,0,-104.042878,-1442603,54976,1677.734375,0
7.21E-05,1,7.21E-05,1,0.013847353,192,28,-275.7515664,-3823424,55040,1679.6875,128
8.65E-04,12,7.21E-05,1,1.181352279,16380,28,-275.7515664,-3823424,55104,1681.640625,0
1.181640766,16384,447.8418503,6209536,0,0,0,-184.3971186,-2556752,55168,1683.59375,128
-5.908203829,-81920,-15.07154525,-208974,1.126179233,15615,128,5.261200698,72949,55232,1685.546875,0
-302.4838808,-4194080,-15.07154525,-208974,0.572140881,7933,128,5.261200698,72949,55296,1687.5,128
0,0,-14.94042813,-207156,0.001153946,16,128,5.296179688,73434,55360,1689.453125,128
-15.04745663,-208640,-14.67660721,-203498,0.554975933,7695,128,5.266537698,73023,55424,1691.40625,128
-16.72709724,-231929,-15.09289325,-209270,0.520501795,7217,128,5.263724955,72984,55488,1693.359375,128
2.234616546,30984,-14.8212832,-205504,0.561827488,7790,128,5.251464278,72814,55552,1695.3125,128
-16.58018548,-229892,-14.74620458,-204463,0.57343907,7951,128,5.255214602,72866,55616,1697.265625,128
2.327653447,32274,-14.79935822,-205200,0.517400565,7174,128,5.225356248,72452,55680,1699.21875,128
-18.31297974,-253918,-15.24514201,-211381,0.033680801,467,128,5.283846889,73263,55744,1701.171875,128
-18.88786124,-261889,-15.1394117,-209915,0.00223577,31,128,5.254421264,72855,55808,1703.125,128
1.624467567,22524,-14.98160958,-207727,0.590531896,8188,128,5.21879318,72361,55872,1705.078125,128
-18.68476673,-259073,-15.20417693,-210813,0.55439896,7687,128,5.221173194,72394,55936,1707.03125,128
-17.66467841,-244929,-15.06361187,-208864,0.004255176,59,128,5.226221708,72464,56000,1708.984375,128
-18.61098631,-258050,-15.08834959,-209207,0.587286423,8143,128,5.184463285,71885,56064,1710.9375,128
1.753998012,24320,-14.93689417,-207107,0.572645732,7940,128,5.160230417,71549,56128,1712.890625,128
0.286394988,3971,-15.31848971,-212398,0.004327298,60,128,5.180135987,71825,56192,1714.84375,128
1.183515928,16410,-15.0426966,-208574,0.586204599,8128,128,5.156335849,71495,56256,1716.796875,128
-18.88778912,-261888,-15.58043546,-216030,0.001947284,27,128,5.165062566,71616,56320,1718.75,128
1.175726792,16302,-15.43864434,-214064,0.036637787,508,128,5.157850404,71516,56384,1720.703125,128
1.114784016,15457,-15.52324301,-215237,0.073564061,1020,128,5.157994647,71518,56448,1722.65625,128
-18.3892123,-254975,-15.43381219,-213997,0.008149744,113,128,5.149412173,71399,56512,1724.609375,128
-17.58606584,-243839,-15.15578331,-210142,0.590748261,8191,128,5.114072575,70909,56576,1726.5625,128
-18.76287446,-260156,-15.81980715,-219349,0.551514095,7647,128,5.127919928,71101,56640,1728.515625,128
1.774769041,24608,-15.17597737,-210422,0.073708305,1022,128,5.096042168,70659,56704,1730.46875,128
-16.68959399,-231409,-15.05986155,-208812,0.583536098,8091,128,5.081329355,70455,56768,1732.421875,128
-17.65133591,-244744,-15.14756145,-210028,0.466122087,6463,128,5.092219721,70606,56832,1734.375,128
-18.76294658,-260157,-15.63193031,-216744,0.586420964,8131,128,5.132102982,71159,56896,1736.328125,128
0.581588814,8064,-15.18117013,-210494,0.017309191,240,128,5.088108789,70549,56960,1738.28125,128
-17.59486468,-243961,-15.31538848,-212355,0.073780426,1023,128,5.100080979,70715,57024,1740.234375,128
1.144714492,15872,-15.57408876,-215942,0.035051112,486,128,5.121933832,71018,57088,1742.1875,128
-16.98615813,-235521,-15.09974481,-209365,0.002524257,35,128,5.083781491,70489,57152,1744.140625,128
-18.16787102,-251906,-15.55324561,-215653,0.589882802,8179,128,5.071376571,70317,57216,1746.09375,128
-18.90625225,-262144,-15.58483488,-216091,0.069308885,961,128,5.096835506,70670,57280,1748.046875,128
0.036854152,511,-15.61375566,-216492,0.008077622,112,128,5.112053169,70881,57344,1750,128
3.784654592,52476,-14.81890319,-205471,0.588512491,8160,128,5.071665057,70321,57408,1751.953125,128
-18.38877957,-254969,-15.22552493,-211109,0.014352204,199,128,5.073828706,70351,57472,1753.90625,128
-18.90517043,-262129,-15.34618441,-212782,0.006995798,97,128,5.075487503,70374,57536,1755.859375,128
0.013775231,191,-15.85810374,-219880,0.59024341,8184,128,5.10765375,70820,57600,1757.8125,128
-17.99463487,-249504,-15.61159201,-216462,0.018391015,255,128,5.102677358,70751,57664,1759.765625,128
1.153873939,15999,-15.67765542,-217378,0.112509741,1560,128,5.109240426,70842,57728,1761.71875,128
0.519203606,7199,-15.99448574,-221771,0.587502788,8146,128,5.129722968,71126,57792,1763.671875,128
-17.80740712,-246908,-15.75799891,-218492,0.008005501,111,128,5.101523411,70735,57856,1765.625,128
-0.001226068,-17,-16.2717934,-225616,0.13017954,1805,128,5.149051565,71394,57920,1767.578125,128
0.138689892,1923,-15.5342055,-215389,0.008221866,114,128,5.096547019,70666,57984,1769.53125,128
-18.03848482,-250112,-15.9283502,-220854,0.073780426,1023,128,5.088685762,70557,58048,1771.484375,128
-18.89803039,-262030,-16.17695346,-224301,7.21E-05,1,128,5.093013059,70617,58112,1773.4375,128
-18.31983129,-254013,-16.22606829,-224982,0.002380014,33,128,5.124890819,71059,58176,1775.390625,128
0.07349194,1019,-16.48029703,-228507,0.055533654,770,128,5.109745277,70849,58240,1777.34375,128
-18.762009,-260144,-16.42808097,-227783,0.001803041,25,128,5.118039264,70964,58304,1779.296875,128
-0.05625487,-780,-16.86787866,-233881,0.133785621,1855,128,5.156263728,71494,58368,1781.25,128
0.574448773,7965,-16.63716157,-230682,0.072842845,1010,128,5.14220001,71299,58432,1783.203125,128
-0.23778501,-3297,-17.07587744,-236765,0.009087325,126,128,5.140901821,71281,58496,1785.15625,128
0.445928031,6183,-16.86557077,-233849,0.036782031,510,128,5.140829699,71280,58560,1787.109375,128
-18.61091418,-258049,-16.93653845,-234833,0.066279777,919,128,5.154388565,71468,58624,1789.0625,128
-17.01832438,-235967,-16.59143646,-230048,0.583824585,8095,128,5.092436086,70609,58688,1791.015625,128
-0.295410191,-4096,-17.42833584,-241652,0.00223577,31,128,5.161456485,71566,58752,1792.96875,128
0.558437772,7743,-17.17425134,-238129,0.069236764,960,128,5.15460493,71471,58816,1794.921875,128
-18.35243027,-254465,-17.24319962,-239085,2.16E-04,3,128,5.145445483,71344,58880,1796.875,128
0.303704179,4211,-17.347199,-240527,0.072698602,1008,128,5.141046064,71283,58944,1798.828125,128
0.074790129,1037,-17.35441117,-240627,0.008510352,118,128,5.156263728,71494,59008,1800.78125,128
-0.111932768,-1552,-18.00119793,-249595,0.001153946,16,128,5.207758571,72208,59072,1802.734375,128
-18.61314995,-258080,-17.54913957,-243327,0.036854152,511,128,5.132679955,71167,59136,1804.6875,128
0.1107067,1535,-17.83466909,-247286,0.017886164,248,128,5.143642443,71319,59200,1806.640625,128
0.32324914,4482,-17.84765099,-247466,0.073708305,1022,128,5.154749173,71473,59264,1808.59375,128
-0.009231568,-128,-18.06307829,-250453,0.003461838,48,128,5.180063865,71824,59328,1810.546875,128
-18.68476673,-259073,-17.96131467,-249042,0.590459775,8187,128,5.142993348,71310,59392,1812.5,128
-0.145469325,-2017,-18.38041346,-254853,0.018391015,255,128,5.194271826,72021,59456,1814.453125,128
-0.240020781,-3328,-18.41077666,-255274,0.009520055,132,128,5.18294873,71864,59520,1816.40625,128
-18.79561768,-260610,-18.44373625,-255731,0.001081824,15,128,5.185184501,71895,59584,1818.359375,128
-2.022939566,-28049,-18.53338343,-256974,0.003461838,48,128,5.177251122,71785,59648,1820.3125,128
-0.00353396,-49,-18.53482587,-256994,0.00223577,31,128,5.196868205,72057,59712,1822.265625,128
0.004471541,62,-18.62115546,-258191,0.554038352,7682,128,5.163764377,71598,59776,1824.21875,128
-0.444052868,-6157,-18.7613599,-260135,0.590531896,8188,128,5.184174798,71881,59840,1826.171875,128
-0.295626556,-4099,-18.65656717,-258682,0.552668041,7663,128,5.200979138,72114,59904,1828.125,128
-0.131549851,-1824,-18.50987178,-256648,0.147921461,2051,128,5.16744258,71649,59968,1830.078125,128
-0.071616777,-993,-18.59360499,-257809,0.071761021,995,128,5.169966837,71684,60032,1832.03125,128
-1.177097103,-16321,-18.61646755,-258126,0,0,128,5.196579718,72053,60096,1833.984375,128
-0.923084727,-12799,-18.57665641,-257574,0.032887463,456,128,5.204513097,72163,60160,1835.9375,128
-1.121058598,-15544,-18.56872303,-257464,0.001081824,15,128,5.203936124,72155,60224,1837.890625,128
-2.06787134,-28672,-18.61019297,-258039,0,0,128,5.188862704,71946,60288,1839.84375,128
-2.061452515,-28583,-18.60500021,-257967,0.020771029,288,128,5.191026353,71976,60352,1841.796875,128
-1.828139046,-25348,-18.59324438,-257804,0.004327298,60,128,5.210354949,72244,60416,1843.75,128
-4.448462063,-61680,-18.64171012,-258476,0.016011002,222,128,5.199536705,72094,60480,1845.703125,128
-2.086334477,-28928,-18.63182946,-258339,0.018246772,253,128,5.176457784,71774,60544,1847.65625,128
-2.095854532,-29060,-18.64502771,-258522,0.001153946,16,128,5.179559014,71817,60608,1849.609375,128
-0.959578271,-13305,-18.69060858,-259154,0.589089464,8168,128,5.139675753,71264,60672,1851.5625,128
-2.326283136,-32255,-18.67120787,-258885,0.562476583,7799,128,5.175303838,71758,60736,1853.515625,128
-2.104797614,-29184,-18.6313246,-258332,0.003894568,54,128,5.176025054,71768,60800,1855.46875,128
-2.324191609,-32226,-18.66125508,-258747,0.00223577,31,128,5.17011108,71686,60864,1857.421875,128
-4.449616009,-61696,-18.78905461,-260519,0.451986248,6267,128,5.201844597,72126,60928,1859.375,128
-2.288563524,-31732,-18.68938252,-259137,0.59024341,8184,128,5.225284126,72451,60992,1861.328125,128
-2.317195811,-32129,-18.60961599,-258031,0.073708305,1022,128,5.183092974,71866,61056,1863.28125,128
-2.325850406,-32249,-18.66442843,-258791,0.002019406,28,128,5.181650541,71846,61120,1865.234375,128
-2.102561844,-29153,-18.67567941,-258947,0.588440369,8159,128,5.208119179,72213,61184,1867.1875,128
-2.085252653,-28913,-18.63420947,-258372,0.036782031,510,128,5.187564515,71928,61248,1869.140625,128
-2.077102909,-28800,-18.68880554,-259129,0,0,128,5.158211012,71521,61312,1871.09375,128
-2.354915423,-32652,-18.67719396,-258968,0.581588814,8064,128,5.187997244,71934,61376,1873.046875,128
-2.058639772,-28544,-18.60709174,-257996,0.071400412,990,128,5.207325841,72202,61440,1875,128
-2.10595156,-29200,-18.65079744,-258602,0.582093666,8071,128,5.179414771,71815,61504,1876.953125,128
-2.138911145,-29657,-18.67690547,-258964,0.58627672,8129,128,5.165134688,71617,61568,1878.90625,128
-2.333928029,-32361,-18.66478904,-258796,0.001226068,17,128,5.175664446,71763,61632,1880.859375,128
-4.458775456,-61823,-18.63485856,-258381,0.59024341,8184,128,5.202060962,72129,61696,1882.8125,128
-2.07537199,-28776,-18.7020038,-259312,0.590604018,8189,128,5.148690957,71389,61760,1884.765625,128
-2.307819999,-31999,-18.6779873,-258979,0.572285124,7935,128,5.159148593,71534,61824,1886.71875,128
-2.333351056,-32353,-18.6639957,-258785,0.590748261,8191,128,5.177683851,71791,61888,1888.671875,128
-0.360103292,-4993,-18.68382915,-259060,0.576900909,7999,128,5.141406672,71288,61952,1890.625,128
-2.355853004,-32665,-18.72811183,-259674,0.589666437,8176,128,5.155326147,71481,62016,1892.578125,128
-2.216153409,-30728,-18.64733561,-258554,0.008943082,124,128,5.184319041,71883,62080,1894.53125,128
-1.001048207,-13880,-18.81213353,-260839,0.587286423,8143,128,5.188141488,71936,62144,1896.484375,128
-1.119544043,-15523,-18.70654746,-259375,0.59024341,8184,128,5.137367861,71232,62208,1898.4375,128
-2.363281532,-32768,-18.70517715,-259356,0.553894109,7680,128,5.185256622,71896,62272,1900.390625,128
-2.354987544,-32653,-18.66457268,-258793,0.002452135,34,128,5.181794784,71848,62336,1902.34375,128
-2.104581249,-29181,-18.72248634,-259596,0.517112078,7170,128,5.181506298,71844,62400,1904.296875,128
-1.033647184,-14332,-18.69327708,-259191,0.554975933,7695,128,5.203936124,72155,62464,1906.25,128
-0.960155244,-13313,-18.66918846,-258857,0.589666437,8176,128,5.229827789,72514,62528,1908.203125,128
-0.904765833,-12545,-18.72724637,-259662,0.5712033,7920,128,5.189223312,71951,62592,1910.15625,128
-18.68015095,-259009,-18.74419495,-259897,0.452274734,6271,128,5.197156691,72061,62656,1912.109375,128
-1.126251355,-15616,-18.71311053,-259466,0.581516693,8063,128,5.230621127,72525,62720,1914.0625,128
-0.918613186,-12737,-18.71707722,-259521,0.590748261,8191,128,5.226870802,72473,62784,1916.015625,128
-2.345251125,-32518,-18.70359048,-259334,0.534853999,7416,128,5.274110469,73128,62848,1917.96875,128
-2.081718693,-28864,-18.71527418,-259496,0.519059362,7197,128,5.244756966,72721,62912,1919.921875,128
-2.344962638,-32514,-18.68512734,-259078,0.556202001,7712,128,5.283197794,73254,62976,1921.875,128
-0.073275575,-1016,-18.73013124,-259702,0.587286423,8143,128,5.250021845,72794,63040,1923.828125,128
-2.325273433,-32241,-18.70669171,-259377,0.553894109,7680,128,5.289688741,73344,63104,1925.78125,128
-2.291159903,-31768,-18.67596789,-258951,0.589882802,8179,128,5.287380849,73312,63168,1927.734375,128
-0.956693406,-13265,-18.69911894,-259272,0.562548704,7800,128,5.254853994,72861,63232,1929.6875,128
-1.179909847,-16360,-18.82836089,-261064,0.451914126,6266,128,5.25377217,72846,63296,1931.640625,128
-1.165629764,-16162,-18.89687644,-262014,0.553821987,7679,128,5.305339134,73561,63360,1933.59375,128
-4.652854759,-64514,-18.73842522,-259817,1.116082205,15475,128,5.344140571,74099,63424,1935.546875,128
-2.14179601,-29697,-18.67091938,-258881,7.21E-05,1,128,5.331158677,73919,63488,1937.5,128
-0.943927877,-13088,-18.63370462,-258365,0.03231049,448,128,5.345510882,74118,63552,1939.453125,128
-2.327004352,-32265,-18.67777093,-258976,1.173491022,16271,128,5.377677128,74564,63616,1941.40625,128
-1.162961264,-16125,-18.71527418,-259496,1.165413399,16159,128,5.355247301,74253,63680,1943.359375,128
-2.086190234,-28926,-18.71945724,-259554,1.164187332,16142,128,5.353300018,74226,63744,1945.3125,128
-0.370200321,-5133,-18.67474183,-258934,1.165701886,16163,128,5.379840777,74594,63808,1947.265625,128
-2.075948963,-28784,-18.73049184,-259707,1.145868438,15888,128,5.318753757,73747,63872,1949.21875,128
-0.226173428,-3136,-18.75443623,-260039,0.59024341,8184,128,5.290193592,73351,63936,1951.171875,128
-2.077030787,-28799,-18.73871371,-259821,0.567885705,7874,128,5.296179688,73434,64000,1953.125,128
-1.112404002,-15424,-18.69277223,-259184,1.112331881,15423,128,5.326254407,73851,64064,1955.078125,128
-2.35477118,-32650,-18.71311053,-259466,0.590531896,8188,128,5.29805485,73460,64128,1957.03125,128
-1.181424401,-16381,-18.73755976,-259805,0.588656734,8162,128,5.269638928,73066,64192,1958.984375,128
-2.070179232,-28704,-18.70070561,-259294,0.590748261,8191,128,5.295674836,73427,64256,1960.9375,128
-1.111466421,-15411,-18.70683595,-259379,0.590748261,8191,128,5.296107566,73433,64320,1962.890625,128
-2.215720679,-30722,-18.75941262,-260108,0.561971731,7792,128,5.249300629,72784,64384,1964.84375,128
-2.342582624,-32481,-18.73373732,-259752,0.578126976,8016,128,5.249300629,72784,64448,1966.796875,128
-0.886446939,-12291,-18.76345143,-260164,0.498288333,6909,128,5.237544803,72621,64512,1968.75,128
-1.144858735,-15874,-18.77008662,-260256,0.488624035,6775,128,5.178116581,71797,64576,1970.703125,128
-7.21E-05,-1,-18.92579722,-262415,0.313440599,4346,128,5.150349754,71412,64640,1972.65625,128
-2.213845517,-30696,-18.73229489,-259732,0.554975933,7695,128,5.203142786,72144,64704,1974.609375,128
-1.152864236,-15985,-18.85353134,-261413,0.44102376,6115,128,5.139603631,71263,64768,1976.5625,128
-1.14464237,-15871,-18.8170378,-260907,0.521439376,7230,128,5.132968442,71171,64832,1978.515625,128
-2.141219037,-29689,-18.70524927,-259357,0.563991137,7820,128,5.145012754,71338,64896,1980.46875,128
-1.181640766,-16384,-18.70892748,-259408,0.590748261,8191,128,5.149917024,71406,64960,1982.421875,128
-2.215071585,-30713,-18.78746793,-260497,0.558221407,7740,128,5.107076777,70812,65024,1984.375,128
-1.034007792,-14337,-18.75183985,-260003,0.59024341,8184,128,5.126765982,71085,65088,1986.328125,128
-1.023622277,-14193,-18.77607271,-260339,0.590748261,8191,128,5.130299941,71134,65152,1988.28125,128
-0.004687906,-65,-18.82093237,-260961,0.526199404,7296,128,5.097412479,70678,65216,1990.234375,128
-2.272119793,-31504,-18.82042752,-260954,0.526127282,7295,128,5.121573224,71013,65280,1992.1875,128
-1.149113911,-15933,-18.80795047,-260781,0.589089464,8168,128,5.115010156,70922,65344,1994.140625,128
-1.181640766,-16384,-18.80434439,-260731,0.589594315,8175,128,5.126910225,71087,65408,1996.09375,128
-1.17471709,-16288,-18.81610022,-260894,0.576900909,7999,128,5.118183508,70966,65472,1998.046875,128
-2.344818395,-32512,-18.77600059,-260338,0.534781877,7415,128,5.132102982,71159,0,2000,128
-2.24276629,-31097,-18.78458307,-260457,0.59067614,8190,128,5.125395671,71066,64,2001.953125,128
-1.043167239,-14464,-18.82057176,-260956,0.47996944,6655,128,5.094022762,70631,128,2003.90625,128
-1.178251049,-16337,-18.81523476,-260882,0.516895713,7167,128,5.094455492,70637,192,2005.859375,128
-1.066606768,-14789,-18.80261347,-260707,0.572357246,7936,128,5.08774818,70544,256,2007.8125,128
-2.221634653,-30804,-18.80412803,-260728,0.553894109,7680,128,5.121212616,71008,320,2009.765625,128
0.064620979,896,-18.8463913,-261314,0.445134693,6172,128,5.085440288,70512,384,2011.71875,128
-1.163466115,-16132,-18.80621955,-260757,0.514659943,7136,128,5.119193211,70980,448,2013.671875,128
-1.103244555,-15297,-18.80528197,-260744,0.58670945,8135,128,5.109384669,70844,512,2015.625,128
-1.152864236,-15985,-18.79612253,-260617,0.556129879,7711,128,5.08904637,70562,576,2017.578125,128
-2.252574832,-31233,-18.83384214,-261140,0.554471082,7688,128,5.128785387,71113,640,2019.53125,128
-2.347414773,-32548,-18.93149482,-262494,0.40604477,5630,128,5.132752077,71168,704,2021.484375,128
-0.037431125,-519,-18.94534218,-262686,0.334067384,4632,128,5.124169603,71049,768,2023.4375,128
-2.200863624,-30516,-18.74203131,-259867,0.001226068,17,128,5.139819996,71266,832,2025.390625,128
-1.038695698,-14402,-18.72428938,-259621,9.38E-04,13,128,5.135925428,71212,896,2027.34375,128
-18.79316554,-260576,-18.78854976,-260512,0.581660936,8065,128,5.105994952,70797,960,2029.296875,128
-0.553966231,-7681,-18.81033049,-260814,0.55216319,7656,128,5.128785387,71113,1024,2031.25,128
-1.051893956,-14585,-18.81119595,-260826,0.576396057,7992,128,5.118399873,70969,1088,2033.203125,128
-2.24319902,-31103,-18.78429458,-260453,0.554110474,7683,128,5.137584226,71235,1152,2035.15625,128
-0.585122774,-8113,-18.82713483,-261047,0.55439896,7687,128,5.103182209,70758,1216,2037.109375,128
-2.276663456,-31567,-18.81948993,-260941,0.571708151,7927,128,5.107797993,70822,1280,2039.0625,128
-1.135555045,-15745,-18.78631399,-260481,0.587286423,8143,128,5.087676059,70543,1344,2041.015625,128
-2.22459164,-30845,-18.78544853,-260469,0.557355947,7728,128,5.098133695,70688,1408,2042.96875,128
-2.363065167,-32765,-18.85035799,-261369,0.445423179,6176,128,5.042816406,69921,1472,2044.921875,128
-1.181568644,-16383,-18.82194207,-260975,0.499658644,6928,128,5.060341961,70164,1536,2046.875,128
-1.10389365,-15306,-18.81047473,-260816,0.506582321,7024,128,5.070222625,70301,1600,2048.828125,128
0.071400412,990,-18.84913192,-261352,0.452202612,6270,128,5.028103593,69717,1664,2050.78125,128
-2.354554815,-32647,-18.8063638,-260759,0.516895713,7167,128,5.107797993,70822,1728,2052.734375,128
-0.460712965,-6388,-18.76330719,-260162,0.589594315,8175,128,5.207037354,72198,1792,2054.6875,128
-1.126323477,-15617,-18.64300831,-258494,5.05E-04,7,128,5.342698138,74079,1856,2056.640625,128
-18.8497089,-261360,-18.60312505,-257941,0.007140041,99,128,5.516150655,76484,1920,2058.59375,128
-2.363281532,-32768,-18.71426448,-259482,0.036782031,510,128,5.760931463,79878,1984,2060.546875,128
-1.166927954,-16180,-18.55913085,-257331,1.145291465,15880,128,5.917651763,82051,2048,2062.5,128
-0.045652991,-633,-18.60045655,-257904,1.190151118,16502,128,6.119375958,84848,2112,2064.453125,128
-0.709748949,-9841,-18.61394329,-258091,0.295265948,4094,128,6.266648324,86890,2176,2066.40625,128
-0.664528688,-9214,-18.60723598,-257998,1.182145617,16391,128,6.328672925,87750,2240,2068.359375,128
-18.82432208,-261008,-18.6693327,-258859,0.446505004,6191,128,6.39134662,88619,2304,2070.3125,128
-0.92322897,-12801,-18.73236701,-259733,0.447154098,6200,128,6.275879893,87018,2368,2072.265625,128
-2.345467489,-32521,-18.74073312,-259849,0.137824433,1911,128,6.138343947,85111,2432,2074.21875,128
-1.180558941,-16369,-18.79475222,-260598,0.00930369,129,128,5.954433793,82561,2496,2076.171875,128
-2.342798989,-32484,-18.88115393,-261796,0.918396821,12734,128,5.681453428,78776,2560,2078.125,128
-0.03721476,-516,-18.94397187,-262667,0.920921078,12769,128,5.389577197,74729,2624,2080.078125,128
-0.146479028,-2031,-18.99474549,-263371,0.145902055,2023,128,5.149412173,71399,2688,2082.03125,128
-0.148859042,-2064,-19.07465626,-264479,0.293318664,4067,128,5.017501714,69570,2752,2083.984375,128
-0.147272366,-2042,-19.05366886,-264188,0.041902666,581,128,4.990023373,69189,2816,2085.9375,128
-0.147632974,-2047,-19.04508639,-264069,0.036854152,511,128,4.94869768,68616,2880,2087.890625,128
-0.004110933,-57,-19.08706118,-264651,0.064837344,899,128,4.839217048,67098,2944,2089.84375,128
-0.145469325,-2017,-18.99063456,-263314,0.138401406,1919,128,4.812604167,66729,3008,2091.796875,128
-7.21E-05,-1,-18.93596636,-262556,0.053946978,748,128,4.809070207,66680,3072,2093.75,128
-0.01860738,-258,-18.9240663,-262391,0.036637787,508,128,4.852992279,67289,3136,2095.703125,128
-7.21E-05,-1,-18.92998027,-262473,0.156864543,2175,128,4.888403998,67780,3200,2097.65625,128
-0.021059516,-292,-18.87891816,-261765,0.266705783,3698,128,5.01598716,69549,3264,2099.609375,128
-2.324119487,-32225,-18.85302649,-261406,0.553894109,7680,128,5.027021769,69702,3328,2101.5625,128
-0.589738558,-8177,-18.91829657,-262311,0.525838795,7291,128,5.038344865,69859,3392,2103.515625,128
-0.138834135,-1925,-18.98399937,-263222,0.35159294,4875,128,5.079237828,70426,3456,2105.46875,128
-7.21E-05,-1,-18.98724484,-263267,0.473045763,6559,128,5.078732977,70419,3520,2107.421875,128
-2.354049963,-32640,-18.74808952,-259951,0.072698602,1008,128,5.137584226,71235,3584,2109.375,128
-0.449822599,-6237,-18.78314063,-260437,0.572429368,7937,128,5.0974846,70679,3648,2111.328125,128
-1.038551454,-14400,-18.79951224,-260664,0.581516693,8063,128,5.158643741,71527,3712,2113.28125,128
-1.164908548,-16152,-18.78328488,-260439,0.590748261,8191,128,5.150566119,71415,3776,2115.234375,128
-2.29058293,-31760,-18.83319304,-261131,0.583752463,8094,128,5.152946133,71448,3840,2117.1875,128
-1.042013293,-14448,-18.81018624,-260812,0.581660936,8065,128,5.163259526,71591,3904,2119.140625,128
-2.354049963,-32640,-18.76525447,-260189,0.555552906,7703,128,5.175736567,71764,3968,2121.09375,128
-1.163105507,-16127,-18.80665228,-260763,0.562837191,7804,128,5.14176728,71293,4032,2123.046875,128
-2.309767283,-32026,-18.8550459,-261434,0.553894109,7680,128,5.149989146,71407,4096,2125,128
-2.362199707,-32753,-18.80730138,-260772,0.572357246,7936,128,5.15280189,71446,4160,2126.953125,128
-1.109014286,-15377,-18.84177552,-261250,0.588584612,8161,128,5.136141793,71215,4224,2128.90625,128
-1.108076705,-15364,-18.95154464,-262772,0.43395584,6017,128,5.111620439,70875,4288,2130.859375,128
-0.036493544,-506,-18.86521505,-261575,0.439004354,6087,128,5.131309644,71148,4352,2132.8125,128
-4.615784242,-64000,-18.75818655,-260091,0.557355947,7728,128,5.171914121,71711,4416,2134.765625,128
-1.067183741,-14797,-18.80513773,-260742,0.572285124,7935,128,5.153883714,71461,4480,2136.71875,128
-2.361550613,-32744,-18.8020365,-260699,0.581733058,8066,128,5.172563216,71720,4544,2138.671875,128
-2.221418288,-30801,-18.74542102,-259914,0.590748261,8191,128,5.189079069,71949,4608,2140.625,128
-1.038335089,-14397,-18.83759246,-261192,0.443115287,6144,128,5.16434135,71606,4672,2142.578125,128
-2.36277668,-32761,-18.87581693,-261722,0.588512491,8160,128,5.179198406,71812,4736,2144.53125,128
-1.172337076,-16255,-18.76410052,-260173,0.588584612,8161,128,5.158355255,71523,4800,2146.484375,128
-2.345106881,-32516,-18.8880776,-261892,0.518987241,7196,128,5.173428675,71732,4864,2148.4375,128
-0.124770418,-1730,-18.87884603,-261764,0.554759569,7692,128,5.138233321,71244,4928,2150.390625,128
-2.363065167,-32765,-18.86276291,-261541,0.444846206,6168,128,5.176025054,71768,4992,2152.34375,128
-2.35477118,-32650,-18.74195918,-259866,0.581588814,8064,128,5.191314839,71980,5056,2154.296875,128
-1.034224157,-14340,-18.78364548,-260444,0.443115287,6144,128,5.171986243,71712,5120,2156.25,128
-2.230000762,-30920,-18.8063638,-260759,0.450111085,6241,128,5.184463285,71885,5184,2158.203125,128
-2.215143706,-30714,-18.7576817,-260084,0.581660936,8065,128,5.216629531,72331,5248,2160.15625,128
-1.052326685,-14591,-18.77592847,-260337,0.456385667,6328,128,5.201411867,72120,5312,2162.109375,128
-0.589882802,-8179,-18.81415293,-260867,0.459342654,6369,128,5.181866906,71849,5376,2164.0625,128
-1.034224157,-14340,-18.77751515,-260359,0.500740469,6943,128,5.208696152,72221,5440,2166.015625,128
-0.589089464,-8168,-18.75479683,-260044,0.473117885,6560,128,5.194199704,72020,5504,2167.96875,128
0.119433417,1656,-18.84667979,-261318,0.445423179,6176,128,5.153739471,71459,5568,2169.921875,128
-0.290866529,-4033,-18.90769469,-262164,0.360031171,4992,128,5.177395365,71787,5632,2171.875,128
-0.572429368,-7937,-18.78739581,-260496,0.461506303,6399,128,5.222904113,72418,5696,2173.828125,128
-1.042662387,-14457,-18.80124316,-260688,0.480474291,6662,128,5.191891812,71988,5760,2175.78125,128
-2.289428984,-31744,-18.82100449,-260962,0.448812896,6223,128,5.201483989,72121,5824,2177.734375,128
-1.042950874,-14461,-18.78025577,-260397,0.508818091,7055,128,5.235813884,72597,5888,2179.6875,128
-1.035810832,-14362,-18.77448604,-260317,0.518987241,7196,128,5.24093452,72668,5952,2181.640625,128
-0.590748261,-8191,-18.82165358,-260971,0.452130491,6269,128,5.197156691,72061,6016,2183.59375,128
-2.332124988,-32336,-18.81162868,-260832,0.44369226,6152,128,5.188718461,71944,6080,2185.546875,128
-0.26302758,-3647,-18.79843042,-260649,0.47823852,6631,128,5.203070665,72143,6144,2187.5,128
0.020771029,288,-18.80672441,-260764,0.479897318,6654,128,5.195209407,72034,6208,2189.453125,128
-18.82836089,-261064,-18.82821665,-261062,0.442754679,6139,128,5.168163796,71659,6272,2191.40625,128
-1.035233859,-14354,-18.80153165,-260692,0.489201008,6783,128,5.213311936,72285,6336,2193.359375,128
-0.262883337,-3645,-18.79987285,-260669,0.458044464,6351,128,5.203791881,72153,6400,2195.3125,128
-0.220692184,-3060,-18.8303803,-261092,0.443187409,6145,128,5.200618529,72109,6464,2197.265625,128
-2.216730382,-30736,-18.79193947,-260559,0.516390862,7160,128,5.238482385,72634,6528,2199.21875,128
0.152248758,2111,-18.75609502,-260062,0.586204599,8128,128,5.252978832,72835,6592,2201.171875,128
-1.034007792,-14337,-18.79734859,-260634,0.47996944,6655,128,5.241872101,72681,6656,2203.125,128
-0.149580258,-2074,-18.79965649,-260666,0.476507601,6607,128,5.230693249,72526,6720,2205.078125,128
-0.450399572,-6245,-18.82129298,-260966,0.443331652,6147,128,5.236823587,72611,6784,2207.03125,128
-0.267715486,-3712,-18.8400446,-261226,0.452563221,6275,128,5.198022151,72073,6848,2208.984375,128
-35.48535591,-492021,-18.98039329,-263172,0.445351058,6175,128,5.236174492,72602,6912,2210.9375,128
-0.001153946,-16,-18.99135578,-263324,0.294761097,4087,128,5.266249212,73019,6976,2212.890625,128
0.009447933,131,-18.69255587,-259181,0.553894109,7680,128,5.249156386,72782,7040,2214.84375,128
-0.185280464,-2569,-18.86074351,-261513,0.590748261,8191,128,5.238338141,72632,7104,2216.796875,128
-18.88836609,-261896,-18.78198669,-260421,0.588584612,8161,128,5.241655736,72678,7168,2218.75,128
-2.294044768,-31808,-18.84516523,-261297,0.580434868,8048,128,5.305843986,73568,7232,2220.703125,128
-18.83131788,-261105,-18.8083832,-260787,0.55439896,7687,128,5.24403575,72711,7296,2222.65625,128
-0.588512491,-8160,-18.82057176,-260956,0.531320039,7367,128,5.257738859,72901,7360,2224.609375,128
-0.036854152,-511,-18.79540131,-260607,0.583752463,8094,128,5.272956523,73112,7424,2226.5625,128
-0.445423179,-6176,-18.76777873,-260224,0.588945221,8166,128,5.276851091,73166,7488,2228.515625,128
-18.83730398,-261188,-18.78220305,-260424,0.512424172,7105,128,5.234371452,72577,7552,2230.46875,128
-18.90170859,-262081,-18.75479683,-260044,0.573583314,7953,128,5.27014378,73073,7616,2232.421875,128
-18.75753746,-260082,-18.75782594,-260086,0.555120177,7697,128,5.28875116,73331,7680,2234.375,128
0.004038811,56,-18.79778132,-260640,0.519275727,7200,128,5.273821983,73124,7744,2236.328125,128
-2.217812206,-30751,-18.76496598,-260185,1.038479333,14399,128,5.334115664,73960,7808,2238.28125,128
-0.954962487,-13241,-18.7443392,-259899,1.050090915,14560,128,5.333538691,73952,7872,2240.234375,128
-0.027766827,-385,-18.77823636,-260369,0.582526396,8077,128,5.311397351,73645,7936,2242.1875,128
-0.020698907,-287,-18.78588126,-260475,1.052326685,14591,128,5.335053245,73973,8000,2244.140625,128
-0.286467109,-3972,-18.76828358,-260231,1.070717701,14846,128,5.349549693,74174,8064,2246.09375,128
0.138689892,1923,-18.78660247,-260485,1.061630376,14720,128,5.333682934,73954,8128,2248.046875,128
0.137463824,1906,-18.83824156,-261201,0.904405225,12540,128,5.304762161,73553,8192,2250,128
-0.58670945,-8135,-18.78927097,-260522,1.043095117,14463,128,5.340822976,74053,8256,2251.953125,128
-0.445639544,-6179,-18.78782854,-260502,1.047710901,14527,128,5.357627315,74286,8320,2253.90625,128
-18.77253875,-260290,-18.77225027,-260286,1.077136526,14935,128,5.364767356,74385,8384,2255.859375,128
-0.59024341,-8184,-18.842064,-261254,0.941908472,13060,128,5.364767356,74385,8448,2257.8125,128
-1.180198333,-16364,-18.77556786,-260332,1.173491022,16271,128,5.392317819,74767,8512,2259.765625,128
-0.925608984,-12834,-18.73849735,-259818,1.172337076,16255,128,5.399529982,74867,8576,2261.71875,128
-0.537450378,-7452,-18.78595338,-260476,1.052470929,14593,128,5.373998925,74513,8640,2263.671875,128
-0.44325953,-6146,-18.7736927,-260306,1.091705095,15137,128,5.380201385,74599,8704,2265.625,128
-18.86716233,-261602,-18.77715454,-260354,1.070645579,14845,128,5.381211088,74613,8768,2267.578125,128
-1.179404995,-16353,-18.80477712,-260737,0.960011001,13311,128,5.3702486,74461,8832,2269.53125,128
-18.84141491,-261245,-18.84083794,-261237,0.886735426,12295,128,5.328201691,73878,8896,2271.484375,128
-0.12931408,-1793,-18.74304101,-259881,1.181424401,16381,128,5.424772552,75217,8960,2273.4375,128
-0.590459775,-8187,-18.80722926,-260771,1.035017495,14351,128,5.372412249,74491,9024,2275.390625,128
-2.219975855,-30781,-18.78458307,-260457,1.149546641,15939,128,5.396068143,74819,9088,2277.34375,128
-2.232957749,-30961,-18.77015874,-260257,1.167721292,16191,128,5.400395441,74879,9152,2279.296875,128
-1.127621666,-15635,-18.78097698,-260407,1.151566047,15967,128,5.407174874,74973,9216,2281.25,128
-1.071078309,-14851,-18.80780623,-260779,1.061558254,14719,128,5.381860183,74622,9280,2283.203125,128
-2.195959353,-30448,-18.73893008,-259824,1.177024982,16320,128,5.428162268,75264,9344,2285.15625,128
-1.181640766,-16384,-18.78739581,-260496,1.070501336,14843,128,5.387413548,74699,9408,2287.109375,128
-0.294328367,-4081,-18.89824675,-262033,0.931811444,12920,128,5.349693936,74176,9472,2289.0625,128
-0.003606081,-50,-18.89384733,-261972,0.888610588,12321,128,5.354670328,74245,9536,2291.015625,128
-0.530887309,-7361,-18.82424996,-261007,1.052326685,14591,128,5.382365034,74629,9600,2292.96875,128
-1.168370386,-16200,-18.78083274,-260405,1.172409197,16256,128,5.395274805,74808,9664,2294.921875,128
-0.448885018,-6224,-18.78386185,-260447,1.10786034,15361,128,5.347025436,74139,9728,2296.875,128
-0.166096111,-2303,-18.83088515,-261099,1.036027197,14365,128,5.367363735,74421,9792,2298.828125,128
-2.363281532,-32768,-18.77628908,-260342,1.112187637,15421,128,5.40832882,74989,9856,2300.78125,128
-0.133857743,-1856,-18.85533438,-261438,1.034152035,14339,128,5.345583003,74119,9920,2302.734375,128
-2.362127586,-32752,-18.79193947,-260559,1.06047643,14704,128,5.343996327,74097,9984,2304.6875,128
-18.90517043,-262129,-18.90084313,-262069,0.894957291,12409,128,5.326254407,73851,10048,2306.640625,128
0.110995187,1539,-18.79266069,-260569,0.589089464,8168,128,5.315652527,73704,10112,2308.59375,128
-18.8913952,-261938,-18.87754785,-261746,0.588440369,8159,128,5.254853994,72861,10176,2310.546875,128
-2.216874625,-30738,-18.77383694,-260308,0.590748261,8191,128,5.316517987,73716,10240,2312.5,128
-0.057697303,-800,-18.82086025,-260960,0.527281228,7311,128,5.272018942,73099,10304,2314.453125,128
-7.21E-05,-1,-19.05864526,-264257,0.291876232,4047,128,5.276851091,73166,10368,2316.40625,128
-0.185785316,-2576,-18.81033049,-260814,0.530959431,7362,128,5.25290671,72834,10432,2318.359375,128
-1.037685995,-14388,-18.76684115,-260211,0.575097868,7974,128,5.265167387,73004,10496,2320.3125,128
-0.278173122,-3857,-18.85468529,-261429,0.475425777,6592,128,5.229683546,72512,10560,2322.265625,128
-1.14464237,-15871,-18.86449383,-261565,0.531824891,7374,128,5.25377217,72846,10624,2324.21875,128
-2.36277668,-32761,-18.87935089,-261771,0.589666437,8176,128,5.264301928,72992,10688,2326.171875,128
0.59024341,8184,-18.88180302,-261805,0.58360822,8092,128,5.220091369,72379,10752,2328.125,128
-0.115394606,-1600,-18.91310381,-262239,0.443331652,6147,128,5.179270527,71813,10816,2330.078125,128
-0.018463137,-256,-18.90084313,-262069,0.54949469,7619,128,5.213384058,72286,10880,2332.03125,128
-0.227399496,-3153,-18.79605041,-260616,0.48177248,6680,128,5.19932034,72091,10944,2333.984375,128
-0.155566353,-2157,-18.81227777,-260841,0.476291236,6604,128,5.194848799,72029,11008,2335.9375,128
-1.143560546,-15856,-18.86355625,-261552,0.463886316,6432,128,5.190737866,71972,11072,2337.890625,128
-2.307892121,-32000,-18.84588645,-261307,0.480546413,6663,128,5.218648937,72359,11136,2339.84375,128
-18.90560316,-262135,-18.86853264,-261621,0.452274734,6271,128,5.178765676,71806,11200,2341.796875,128
-1.162961264,-16125,-18.88728427,-261881,0.446577125,6192,128,5.173428675,71732,11264,2343.75,128
3.61E-04,5,-18.86896537,-261627,0.450904423,6252,128,5.177179,71784,11328,2345.703125,128
