Device,Device,Device,Device,Device,Device,Device,Device,Device,Device,Device,Device
ECG Vx-RL,ECG Vx-RL,ECG LA-RA,ECG LA-RA,ExG2 CH1,ExG2 CH1,EXG1 Status,ECG LL-RA,ECG LL-RA,Timestamp,Timestamp,EXG2 Status
CAL,RAW,CAL,RAW,CAL,RAW,RAW,CAL,RAW,CAL,RAW,RAW
mV,No Units,mV,No Units,mV,No Units,No Units,mV,No Units,mSecs,No Units,No Units
-18.90625225,-262144,-11.36701779,-157609,0.943567269,13083,0,-1.71050867,-23717,12001.95313,64,0
-18.90625225,-262144,-11.31920115,-156946,1.149618763,15940,0,-1.656778056,-22972,12003.90625,128,0
-1.164331575,-16144,-8.199940705,-113696,0.487542211,6760,128,-4.23887661,-58774,12005.85938,192,128
-1.164331575,-16144,-8.179818771,-113417,0.487542211,6760,128,-4.279120479,-59332,12007.8125,256,128
-1.153008479,-15987,-8.169000527,-113267,0.472829398,6556,128,-4.254022152,-58984,12009.76563,320,128
-0.251560241,-3488,-8.226986316,-114071,0.442826801,6140,128,-4.287775074,-59452,12011.71875,384,128
-0.230789212,-3200,-8.206864382,-113792,0.442177706,6131,128,-4.292174493,-59513,12013.67188,448,128
-9.419733813,-130609,-8.173472068,-113329,0.583680342,8093,128,-4.251642138,-58951,12015.625,512,128
-9.229909686,-127977,-8.099042547,-112297,0.509467186,7064,128,-4.217095878,-58472,12017.57813,576,128
-9.437475733,-130855,-8.057356245,-111719,0.553894109,7680,128,-4.172668954,-57856,12019.53125,640,128
-9.379634187,-130053,-8.083175788,-112077,0.517544808,7176,128,-4.205484296,-58311,12021.48438,704,128
-8.040984635,-111492,-8.025983337,-111284,0.590748261,8191,128,-4.140719073,-57413,12023.4375,768,128
-4.449327522,-61692,-4.169495603,-57812,0,0,156,-302.5000361,-4194304,12025.39063,832,128
-16.56121749,-229629,326.1009015,4521541,1.180558941,16369,135,4.709830846,65304,12027.34375,896,0
0.294328367,4081,326.1009015,4521541,0.073852548,1024,135,4.709830846,65304,12029.29688,960,128
-0.259421499,-3597,-4.032825116,-55917,0,0,156,-302.5000361,-4194304,12031.25,1024,128
-18.90625225,-262144,-4.032825116,-55917,0,0,156,-302.5000361,-4194304,12033.20313,1088,156
1.181640766,16384,22.45117455,311296,1.107788218,15360,1,524.6173435,7274064,12035.15625,1152,0
0.009159447,127,0.018391015,255,0.016155245,224,1,384.8040849,5335488,12037.10938,1216,128
595.5470181,8257537,0.018391015,255,0.572213003,7934,1,384.8040849,5335488,12039.0625,1280,0
1.181640766,16384,-232.7832309,-3227648,0.581588814,8064,1,-453.7812106,-6291888,12041.01563,1344,128
3.544922298,49152,-232.7832309,-3227648,1.171255251,16240,1,-453.7812106,-6291888,12042.96875,1408,0
-18.8924049,-261952,-7.91498815,-109745,0.899789441,12476,128,-4.086988459,-56668,12044.92188,1472,128
-9.453126127,-131072,-7.94023072,-110095,0.962318893,13343,128,-4.079992661,-56571,12046.875,1536,128
-7.108307732,-98560,-7.989057063,-110772,0.900077927,12480,128,-4.114755287,-57053,12048.82813,1600,128
-9.155552287,-126946,-7.896164405,-109484,0.923084727,12799,128,-4.085329662,-56645,12050.78125,1664,128
-8.269465955,-114660,-7.9508326,-110242,0.904477346,12541,128,-4.130045072,-57265,12052.73438,1728,128
-9.418868353,-130597,-7.921695461,-109838,0.888033615,12313,128,-4.125862017,-57207,12054.6875,1792,128
-9.084007631,-125954,-7.76353273,-107645,1.177529833,16327,128,-3.994240045,-55382,12056.64063,1856,128
-9.298497355,-128928,-7.862916334,-109023,1.033791427,14334,128,-4.06975139,-56429,12058.59375,1920,128
-9.448293978,-131005,-8.017112376,-111161,0.590892505,8193,128,-4.209811593,-58371,12060.54688,1984,128
-9.305565274,-129026,-7.962876912,-110409,0.503192604,6977,128,-4.128891126,-57249,12062.5,2048,128
-7.233006028,-100289,-7.982493995,-110681,0.917098632,12716,128,-4.138050573,-57376,12064.45313,2112,128
-9.15836503,-126985,-7.882533417,-109295,1.034729008,14347,128,-4.047898537,-56126,12066.40625,2176,128
-7.160379548,-99282,-7.783294056,-107919,1.107788218,15360,128,-3.946928256,-54726,12068.35938,2240,128
-8.871248826,-123004,-7.795338368,-108086,1.181352279,16380,128,-3.97144961,-55066,12070.3125,2304,128
-7.686434708,-106576,-7.783798907,-107926,1.105696691,15331,128,-3.97765207,-55152,12072.26563,2368,128
-8.92721521,-123780,-7.874383673,-109182,0.992105125,13756,128,-4.097518217,-56814,12074.21875,2432,128
-9.437043004,-130849,-7.874816403,-109188,0.923084727,12799,128,-4.074006566,-56488,12076.17188,2496,128
-8.899376261,-123394,-7.891043769,-109413,0.919622889,12751,128,-4.114755287,-57053,12078.125,2560,128
-8.127386347,-112690,-7.850727779,-108854,0.918613186,12737,128,-4.103071583,-56891,12080.07813,2624,128
-7.35748796,-102015,-7.886427985,-109349,0.887456642,12305,128,-4.125501409,-57202,12082.03125,2688,128
-4.359391851,-60445,-7.877484903,-109225,0.577766368,8011,128,-4.102927339,-56889,12083.98438,2752,128
-9.333187858,-129409,-7.872003659,-109149,0.920848956,12768,128,-4.088719379,-56692,12085.9375,2816,128
-7.375806853,-102269,-7.903232325,-109582,0.888466345,12319,128,-4.110644354,-56996,12087.89063,2880,128
-9.370114132,-129921,-7.859598739,-108977,1.001336694,13884,128,-3.992797612,-55362,12089.84375,2944,128
-8.894688355,-123329,-7.823898533,-108482,1.035017495,14351,128,-4.014217736,-55659,12091.79688,3008,128
-9.321648398,-129249,-7.820941546,-108441,1.110023988,15391,128,-4.033329968,-55924,12093.75,3072,128
-7.716509428,-106993,-7.76180181,-107621,1.034224157,14340,128,-3.965030785,-54977,12095.70313,3136,128
-7.108091367,-98557,-7.779832218,-107871,1.042662387,14457,128,-4.013785006,-55653,12097.65625,3200,128
-7.699128115,-106752,-7.83486102,-108634,0.951067919,13187,128,-4.070833215,-56444,12099.60938,3264,128
-4.562774845,-63265,-7.829379777,-108558,0.999028802,13852,128,-4.046744591,-56110,12101.5625,3328,128
-4.135814802,-57345,-7.878999457,-109246,0.88824998,12316,128,-4.097878825,-56819,12103.51563,3392,128
-4.439374738,-61554,-7.72725555,-107142,1.168875238,16207,128,-3.996620059,-55415,12105.46875,3456,128
-4.726058212,-65529,-7.815965154,-108372,1.015472533,14080,128,-4.046600347,-56108,12107.42188,3520,128
-4.201733971,-58259,-7.831543426,-108588,1.029319886,14272,128,-4.030733589,-55888,12109.375,3584,128
-7.710667576,-106912,-7.819931843,-108427,0.922940483,12797,128,-4.044436698,-56078,12111.32813,3648,128
-7.122155085,-98752,-7.643378096,-105979,1.181208036,16378,128,-3.881153331,-53814,12113.28125,3712,128
-8.125222698,-112660,-7.727760402,-107149,1.061630376,14720,128,-3.956520433,-54859,12115.23438,3776,128
-4.708172048,-65281,-7.718456712,-107020,1.038479333,14399,128,-3.971810218,-55071,12117.1875,3840,128
-4.722524252,-65480,-7.653547246,-106120,1.036171441,14367,128,-3.838962178,-53229,12119.14063,3904,128
-3.027810219,-41982,-7.730717388,-107190,1.107788218,15360,128,-3.911877145,-54240,12121.09375,3968,128
-2.980642674,-41328,-7.755527229,-107534,1.172625562,16259,128,-3.911516537,-54235,12123.04688,4032,128
-2.961169834,-41058,-7.719971266,-107041,1.162600656,16120,128,-3.883028493,-53840,12125,4096,128
-3.0234108,-41921,-7.768292757,-107711,1.148681182,15927,128,-3.963299866,-54953,12126.95313,4160,128
-4.693170749,-65073,-7.926022759,-109898,0.845770341,11727,128,-4.045446401,-56092,12128.90625,4224,128
-3.424984029,-47489,-7.822744587,-108466,0.920271983,12760,128,-4.030661467,-55887,12130.85938,4288,128
-7.159297724,-99267,-7.820076087,-108429,0.960083122,13312,128,-4.034411792,-55939,12132.8125,4352,128
-3.536123459,-49030,-7.840125899,-108707,0.950130337,13174,128,-4.058139808,-56268,12134.76563,4416,128
-2.506370843,-34752,-7.683261357,-106532,1.038479333,14399,128,-3.900409806,-54081,12136.71875,4480,128
-2.363353653,-32769,-7.529570166,-104401,0.009087325,126,128,-3.752848953,-52035,12138.67188,4544,128
-3.579612801,-49633,-7.621020391,-105669,1.151638168,15968,128,-3.842063408,-53272,12140.625,4608,128
-0.602359844,-8352,-7.745213836,-107391,1.165485521,16160,128,-3.959188933,-54896,12142.57813,4672,128
-0.590892505,-8193,-7.761296959,-107614,1.034440522,14343,128,-3.93776881,-54599,12144.53125,4736,128
-2.962684388,-41079,-7.729996172,-107180,1.172337076,16255,128,-3.921036592,-54367,12146.48438,4800,128
-1.177024982,-16320,-7.706268156,-106851,1.161086102,16099,128,-3.949813122,-54766,12148.4375,4864,128
-2.363858505,-32776,-7.655855138,-106152,1.042013293,14448,128,-3.924209943,-54411,12150.39063,4928,128
-2.954101915,-40960,-7.634723501,-105859,1.14464237,15871,128,-3.868171438,-53634,12152.34375,4992,128
-4.082733283,-56609,-7.638834433,-105916,1.18048682,16368,128,-3.875960574,-53742,12154.29688,5056,128
-2.382321642,-33032,-7.667827328,-106318,1.108797921,15374,128,-3.902068603,-54104,12156.25,5120,128
-2.642536478,-36640,-7.6523933,-106104,1.177097103,16321,128,-3.900265563,-54079,12158.20313,5184,128
-2.363570018,-32772,-7.561159439,-104839,1.055860645,14640,128,-3.813719608,-52879,12160.15625,5248,128
-0.443764382,-6153,-7.702950561,-106805,0.886230574,12288,128,-3.94663977,-54722,12162.10938,5312,128
-7.21E-05,-1,-7.720476117,-107048,1.035017495,14351,128,-3.92449843,-54415,12164.0625,5376,128
-2.38268225,-33037,-7.752786607,-107496,1.070573458,14844,128,-3.950245851,-54772,12166.01563,5440,128
-2.435980134,-33776,-7.696026885,-106709,1.181568644,16383,128,-3.920387497,-54358,12167.96875,5504,128
-0.596229505,-8267,-7.73078951,-107191,1.11629857,15478,128,-3.99315822,-55367,12169.92188,5568,128
-2.396673846,-33231,-7.744925349,-107387,0.943711513,13085,128,-3.984431503,-55246,12171.875,5632,128
-2.65811475,-36856,-7.570679494,-104971,1.130795018,15679,128,-3.826917866,-53062,12173.82813,5696,128
-1.034007792,-14337,-7.770672771,-107744,1.073097715,14879,128,-4.01039529,-55606,12175.78125,5760,128
-1.179404995,-16353,-7.81048391,-108296,0.887312399,12303,128,-4.031166319,-55894,12177.73438,5824,128
-3.323076167,-46076,-7.812647559,-108326,0.905270684,12552,128,-3.978806016,-55168,12179.6875,5888,128
-1.10786034,-15361,-7.733674375,-107231,1.163177629,16128,128,-3.921036592,-54367,12181.64063,5952,128
-0.143233555,-1986,-7.852170211,-108874,0.734919397,10190,128,-4.056553132,-56246,12183.59375,6016,128
-0.073852548,-1024,-7.813080289,-108332,0.945081823,13104,128,-3.977075097,-55144,12185.54688,6080,128
-0.129386202,-1794,-7.747305363,-107420,1.108653678,15372,128,-3.967987772,-55018,12187.5,6144,128
-0.886302696,-12289,-7.778389785,-107851,1.16764917,16190,128,-3.967338677,-55009,12189.45313,6208,128
-2.509904803,-34801,-7.795122003,-108083,1.09855665,15232,128,-3.919594159,-54347,12191.40625,6272,128
-0.665826877,-9232,-7.757690878,-107564,1.179549239,16355,128,-3.915411105,-54289,12193.35938,6336,128
-1.069924363,-14835,-7.753868431,-107511,1.135699288,15747,128,-3.958972568,-54893,12195.3125,6400,128
-0.004615784,-64,-7.707422102,-106867,1.17695286,16319,128,-3.947144621,-54729,12197.26563,6464,128
-0.594931316,-8249,-7.770817014,-107746,1.032204751,14312,128,-3.998855829,-55446,12199.21875,6528,128
-9.305493153,-129025,-7.723072496,-107084,1.054129726,14616,128,-3.931422106,-54511,12201.17188,6592,128
-9.445553356,-130967,-7.765624257,-107674,1.146445411,15896,128,-3.965175028,-54979,12203.125,6656,128
-0.030074719,-417,-7.846111995,-108790,0.886230574,12288,128,-4.05424524,-56214,12205.07813,6720,128
-0.156648178,-2172,-7.921118488,-109830,0.655657727,9091,128,-4.12687172,-57221,12207.03125,6784,128
-9.45283764,-131068,-8.010477186,-111069,0.291659867,4044,128,-4.197911525,-58206,12208.98438,6848,128
-0.041542058,-576,-7.880297647,-109264,0.443620139,6151,128,-4.075881729,-56514,12210.9375,6912,128
-0.590748261,-8191,-7.560438223,-104829,0.055317289,767,128,-3.778307888,-52388,12212.89063,6976,128
-0.221774008,-3075,-7.608399106,-105494,1.179404995,16353,128,-3.792299484,-52582,12214.84375,7040,128
-9.334269683,-129424,-7.637680487,-105900,1.068554052,14816,128,-3.844515544,-53306,12216.79688,7104,128
-1.034512643,-14344,-7.770817014,-107746,1.163105507,16127,128,-3.92716693,-54452,12218.75,7168,128
-9.38684635,-130153,-7.819499114,-108421,0.895678508,12419,128,-4.019987466,-55739,12220.70313,7232,128
-8.870455488,-122993,-7.824763992,-108494,0.918468942,12735,128,-4.013785006,-55653,12222.65625,7296,128
-9.231568483,-128000,-7.837890129,-108676,0.918541064,12736,128,-4.011477114,-55621,12224.60938,7360,128
-7.904314149,-109597,-7.712254252,-106934,0.998091221,13839,128,-3.918440213,-54331,12226.5625,7424,128
-7.62585254,-105736,-7.702589953,-106800,1.03393567,14336,128,-3.917718997,-54321,12228.51563,7488,128
-9.269648703,-128528,-7.807238437,-108251,0.90462159,12543,128,-4.026478413,-55829,12230.46875,7552,128
-0.008149744,-113,-7.753435702,-107505,1.108365191,15368,128,-3.978229043,-55160,12232.42188,7616,128
-8.866921528,-122944,-7.920613637,-109823,0.286106501,3967,128,-4.149301547,-57532,12234.375,7680,128
-7.237477569,-100351,-7.954078073,-110287,0.886230574,12288,128,-4.126366869,-57214,12236.32813,7744,128
-8.234775452,-114179,-7.868109091,-109095,0.922579875,12792,128,-4.03917182,-56005,12238.28125,7808,128
-9.32352356,-129275,-7.882244931,-109291,0.647940713,8984,128,-4.097518217,-56814,12240.23438,7872,128
-7.826134303,-108513,-7.973190304,-110552,0.29533807,4095,128,-4.174904725,-57887,12242.1875,7936,128
-7.20076766,-99842,-7.8738067,-109174,0.590748261,8191,128,-4.068669566,-56414,12244.14063,8000,128
-7.126698747,-98815,-7.761513324,-107617,1.144930857,15875,128,-4.002101302,-55491,12246.09375,8064,128
-7.698551142,-106744,-7.687516533,-106591,1.177313468,16324,128,-3.966833826,-55002,12248.04688,8128,128
-7.125184193,-98794,-7.696387493,-106714,1.181568644,16383,128,-4.000442505,-55468,12250,8192,128
-7.233150272,-100291,-7.608182741,-105491,1.181280158,16379,128,-3.944836729,-54697,12251.95313,8256,128
-9.231568483,-128000,-7.301377332,-101237,0.029641989,411,128,-3.711883868,-51467,12253.90625,8320,128
-7.107442273,-98548,-7.3309472,-101647,0.07349194,1019,128,-3.782923673,-52452,12255.85938,8384,128
-8.273793253,-114720,-7.208124066,-99944,0.003461838,48,128,-3.601105046,-49931,12257.8125,8448,128
-8.880768881,-123136,-7.060274727,-97894,1.186184428,16447,128,-3.415031244,-47351,12259.76563,8512,128
-7.08782519,-98276,-6.984907625,-96849,1.209335471,16768,128,-3.139021771,-43524,12261.71875,8576,128
-7.608038498,-105489,-7.791299557,-108030,1.182650469,16398,128,-3.10800947,-43094,12263.67188,8640,128
-8.344833058,-115705,-7.172135374,-99445,0.575819084,7984,128,-3.017568948,-41840,12265.625,8704,128
-9.374729916,-129985,-7.158720751,-99259,1.126179233,15615,128,-3.010428907,-41741,12267.57813,8768,128
-7.09049369,-98313,-7.241732745,-100410,0.3011078,4175,128,-3.170250436,-43957,12269.53125,8832,128
-9.192334317,-127456,-7.456222469,-103384,0.226101306,3135,128,-3.097407591,-42947,12271.48438,8896,128
-7.606956673,-105474,-7.472377714,-103608,0.001081824,15,128,-3.174721977,-44019,12273.4375,8960,128
-8.862377866,-122881,-7.71881732,-107025,0.292164718,4051,128,-3.368224307,-46702,12275.39063,9024,128
-7.16312017,-99320,-7.883182512,-109304,0.001730919,24,128,-3.515496673,-48744,12277.34375,9088,128
-7.133189694,-98905,-7.80651722,-108241,0.148209947,2055,128,-3.357550306,-46554,12279.29688,9152,128
-8.273288402,-114713,-8.582545946,-119001,0.239876537,3326,128,-3.380629227,-46874,12281.25,9216,128
-1.476473984,-20472,-11.35821895,-157487,0.184054397,2552,128,-3.544705933,-49149,12283.20313,9280,128
-1.181135914,-16377,-11.27578393,-156344,1.181568644,16383,128,-3.555307812,-49296,12285.15625,9344,128
-1.828788141,-25357,-11.33492366,-157164,1.165629764,16162,128,-3.595335316,-49851,12287.10938,9408,128
-1.846241575,-25599,-11.39478462,-157994,0.007356406,102,128,-3.27006677,-45341,12289.0625,9472,128
-1.179404995,-16353,-11.40524225,-158139,0.147632974,2047,128,-3.621731832,-50217,12291.01563,9536,128
-0.032382611,-449,-11.29092947,-156554,1.09855665,15232,128,-3.481455264,-48272,12292.96875,9600,128
-1.814003207,-25152,-11.26503781,-156195,1.179549239,16355,128,-3.476118264,-48198,12294.92188,9664,128
-2.349434179,-32576,-11.22955397,-155703,1.181496523,16382,128,-3.625914887,-50275,12296.875,9728,128
-1.246261745,-17280,-8.525497738,-118210,0.039162044,543,128,-3.451669032,-47859,12298.82813,9792,128
-8.871681556,-123010,-8.566751309,-118782,0.001875162,26,128,-3.428373745,-47536,12300.78125,9856,128
-0.258628161,-3586,-11.29006401,-156542,2.16E-04,3,128,-3.058173425,-42403,12302.73438,9920,128
-0.092315685,-1280,-11.33254365,-157131,0.443620139,6151,128,-3.097191226,-42944,12304.6875,9984,128
-2.104797614,-29184,-11.20229199,-155325,0.455880815,6321,128,-3.481743751,-48276,12306.64063,10048,128
-1.774552676,-24605,-11.25941232,-156117,0.001009703,14,128,-3.313123383,-45938,12308.59375,10112,128
-0.071616777,-993,-11.41086774,-158217,0.036637787,508,128,-3.176236531,-44040,12310.54688,10176,128
-2.071333178,-28720,-11.36290686,-157552,0.120659485,1673,128,-3.424262813,-47479,12312.5,10240,128
-1.167793413,-16192,-11.28494338,-156471,0.31437818,4359,128,-3.193762087,-44283,12314.45313,10304,128
-1.033430819,-14329,-11.33362548,-157146,0.475497899,6593,128,-3.069424399,-42559,12316.40625,10368,128
-0.760522575,-10545,-11.39456825,-157991,0.478527007,6635,128,-3.071011075,-42581,12318.35938,10432,128
-0.689843379,-9565,-11.32439391,-157018,0.888466345,12319,128,-2.894168841,-40129,12320.3125,10496,128
-1.165629764,-16162,-11.43005209,-158483,0.452274734,6271,128,-3.396495986,-47094,12322.26563,10560,128
-2.25250271,-31232,-11.45522254,-158832,0.44412499,6158,128,-3.043100005,-42194,12324.21875,10624,128
-2.040248756,-28289,-11.38879852,-157911,0.461434181,6398,128,-2.992903351,-41498,12326.17188,10688,128
-0.138473527,-1920,-11.32785575,-157066,0.950851554,13184,128,-3.008986474,-41721,12328.125,10752,128
-1.91994988,-26621,-11.3347073,-157161,0.886230574,12288,128,-2.835822443,-39320,12330.07813,10816,128
-0.088348995,-1225,-11.37660997,-157742,1.010712506,14014,128,-2.945519441,-40841,12332.03125,10880,128
-0.034690503,-481,-11.22169271,-155594,0.498504698,6912,128,-2.851112229,-39532,12333.98438,10944,128
-0.572357246,-7936,-11.27664939,-156356,0.589666437,8176,128,-2.846207958,-39464,12335.9375,11008,128
-1.883528457,-26116,-11.33997218,-157234,1.171327373,16241,128,-2.760743828,-38279,12337.89063,11072,128
-2.345395368,-32520,-11.28977553,-156538,1.181568644,16383,128,-2.759373517,-38260,12339.84375,11136,128
-0.623347238,-8643,-11.31559507,-156896,1.147166627,15906,128,-2.79406402,-38741,12341.79688,11200,128
-1.807368017,-25060,-11.46156925,-158920,0.733837573,10175,128,-2.909891356,-40347,12343.75,11264,128
-1.780538771,-24688,-11.39983313,-158064,0.961237068,13328,128,-2.869359001,-39785,12345.70313,11328,128
-0.644046145,-8930,-11.27939001,-156394,1.179332874,16352,128,-2.757858963,-38239,12347.65625,11392,128
-1.114784016,-15457,-11.3807209,-157799,1.034224157,14340,128,-2.785337303,-38620,12349.60938,11456,128
-3.61E-04,-5,-11.37480693,-157717,0.961164947,13327,128,-2.877003893,-39891,12351.5625,11520,128
-0.017958286,-249,-11.24022797,-155851,1.178755901,16344,128,-2.75374803,-38182,12353.51563,11584,128
-1.844077926,-25569,-11.2950404,-156611,1.107499731,15356,128,-2.733121244,-37896,12355.46875,11648,128
-1.77426419,-24601,-11.37523966,-157723,0.920704713,12766,128,-2.846207958,-39464,12357.42188,11712,128
-2.097873938,-29088,-11.32929818,-157086,1.179260752,16351,128,-2.799545264,-38817,12359.375,11776,128
-0.609355642,-8449,-11.2870349,-156500,1.18048682,16368,128,-2.678092441,-37133,12361.32813,11840,128
-0.075944075,-1053,-11.24008372,-155849,0.922868362,12796,128,-2.5885895,-35892,12363.28125,11904,128
-0.294544732,-4084,-11.29143432,-156561,0.902385819,12512,128,-2.73780915,-37961,12365.23438,11968,128
-1.172409197,-16256,-11.29626647,-156628,0.960011001,13311,128,-2.696483457,-37388,12367.1875,12032,128
-0.59731133,-8282,-11.28631369,-156490,0.944432729,13095,128,-2.665976008,-36965,12369.14063,12096,128
-0.94623577,-13120,-11.31040231,-156824,1.052326685,14591,128,-2.60719688,-36150,12371.09375,12160,128
-2.224375275,-30842,-11.22212544,-155600,1.033358697,14328,128,-2.737737028,-37960,12373.04688,12224,128
-1.737842767,-24096,-11.28523186,-156475,1.181063793,16376,128,-2.609288407,-36179,12375,12288,128
-0.738453357,-10239,-11.32273511,-156995,0.943783634,13086,128,-2.556639618,-35449,12376.95313,12352,128
-0.943927877,-13088,-11.26676873,-156219,1.173058292,16265,128,-2.627246693,-36428,12378.90625,12416,128
-0.295265948,-4094,-11.2303473,-155714,1.179837725,16359,128,-2.558298416,-35472,12380.85938,12480,128
-0.03721476,-516,-11.32987515,-157094,1.003860951,13919,128,-2.599479866,-36043,12382.8125,12544,128
-0.018463137,-256,-11.35273771,-157411,0.959794636,13308,128,-2.514664831,-34867,12384.76563,12608,128
-2.208508516,-30622,-11.3567044,-157466,0.959794636,13308,128,-2.596667122,-36004,12386.71875,12672,128
-1.108365191,-15368,-11.30441622,-156741,1.177024982,16320,128,-2.375686452,-32940,12388.67188,12736,128
-0.016732218,-232,-11.38829367,-157904,0.064620979,896,128,-2.239809303,-31056,12390.625,12800,128
-0.07039071,-976,-11.27737061,-156366,1.032781724,14320,128,-2.537383144,-35182,12392.57813,12864,128
-1.809387423,-25088,-11.33001939,-157096,1.172481319,16257,128,-2.371142789,-32877,12394.53125,12928,128
-2.213412787,-30690,-11.3717057,-157674,0.065774925,912,128,-2.297001755,-31849,12396.48438,12992,128
-2.35967545,-32718,-11.36507051,-157582,0.922868362,12796,128,-2.622053936,-36356,12398.4375,13056,128
-0.002452135,-34,-11.23770371,-155816,1.181063793,16376,128,-2.520795169,-34952,12400.39063,13120,128
-2.289140497,-31740,-11.17301061,-154919,0.259565742,3599,128,-2.090589653,-28987,12402.34375,13184,128
-2.132780806,-29572,-11.37798028,-157761,0.298655665,4141,128,-2.128886238,-29518,12404.29688,13248,128
-2.354122085,-32641,-11.3073732,-156782,0.073780426,1023,128,-2.276302847,-31562,12406.25,13312,128
-0.009231568,-128,-11.18952646,-155148,0.263171823,3649,128,-2.183770798,-30279,12408.20313,13376,128
-2.349362057,-32575,-11.24224737,-155879,0.572357246,7936,128,-2.228486208,-30899,12410.15625,13440,128
-1.785298799,-24754,-11.3127102,-156856,0.07039071,976,128,-2.441821985,-33857,12412.10938,13504,128
-0.609067155,-8445,-11.23330429,-155755,1.181568644,16383,128,-2.271182212,-31491,12414.0625,13568,128
-2.362416072,-32756,-11.16536572,-154813,0.257979066,3577,128,-1.972454425,-27349,12416.01563,13632,128
-2.336163799,-32392,-11.30982534,-156816,0.590748261,8191,128,-2.13162686,-29556,12417.96875,13696,128
-1.920166245,-26624,-11.33283214,-157135,1.44E-04,2,128,-2.17857804,-30207,12419.92188,13760,128
-2.307964242,-32001,-11.39262097,-157964,0.018463137,256,128,-2.047677284,-28392,12421.875,13824,128
-0.900150049,-12481,-11.35187225,-157399,0.452418977,6273,128,-1.892399417,-26239,12423.82813,13888,128
-1.790924286,-24832,-11.31775872,-156926,0.004615784,64,128,-2.340202611,-32448,12425.78125,13952,128
-1.800444341,-24964,-11.24570921,-155927,1.03393567,14336,128,-1.603696537,-22236,12427.73438,14016,128
-1.061702497,-14721,-11.25631109,-156074,0.312430896,4332,128,-1.998057604,-27704,12429.6875,14080,128
-2.019766214,-28005,-11.39961677,-158061,0.554182596,7684,128,-1.805637098,-25036,12431.64063,14144,128
-0.286467109,-3972,-11.17971792,-155012,0.562548704,7800,128,-1.949375504,-27029,12433.59375,14208,128
-1.202411795,-16672,-11.17445304,-154939,1.103244555,15297,128,-1.730414239,-23993,12435.54688,14272,128
-0.291876232,-4047,-11.18469431,-155081,0.553821987,7679,128,-1.883600579,-26117,12437.5,14336,128
-0.287116204,-3981,-11.1999841,-155293,1.053264267,14604,128,-1.605715943,-22264,12439.45313,14400,128
-1.322494307,-18337,-11.07182396,-153516,1.051749712,14583,128,-1.700411642,-23577,12441.40625,14464,128
-0.886302696,-12289,-11.30816654,-156793,0.8953179,12414,128,-1.593599509,-22096,12443.35938,14528,128
-0.593488883,-8229,-11.09569622,-153847,1.121635571,15552,128,-1.423464587,-19737,12445.3125,14592,128
-1.251021773,-17346,-11.17928519,-155006,1.034007792,14337,128,-1.684472762,-23356,12447.26563,14656,128
-1.861387117,-25809,-11.28155366,-156424,0.885292993,12275,128,-1.554437465,-21553,12449.21875,14720,128
-1.788544272,-24799,-11.2540032,-156042,1.177674076,16329,128,-1.713032927,-23752,12451.17188,14784,128
-0.591974329,-8208,-11.24253586,-155883,1.06848193,14815,128,-1.577876994,-21878,12453.125,14848,128
-1.774769041,-24608,-11.2636675,-156176,1.179837725,16359,128,-1.647402244,-22842,12455.07813,14912,128
-2.068448313,-28680,-11.36333959,-157558,0.919911375,12755,128,-1.653965313,-22933,12457.03125,14976,128
-2.354122085,-32641,-11.35021345,-157376,0.738092749,10234,128,-1.626486972,-22552,12458.98438,15040,128
-0.628035143,-8708,-11.26676873,-156219,1.167577048,16189,128,-1.634203986,-22659,12460.9375,15104,128
-18.87112902,-261657,-11.1282952,-154299,1.111177935,15407,128,-1.460174496,-20246,12462.89063,15168,128
-18.74469981,-259904,-11.06865061,-153472,1.144786614,15873,128,-1.462698753,-20281,12464.84375,15232,128
-0.330100695,-4577,-11.03944135,-153067,1.146229046,15893,128,-1.357833905,-18827,12466.79688,15296,128
-0.588584612,-8161,-11.20041683,-155299,1.181496523,16382,128,-1.514121475,-20994,12468.75,15360,128
-0.521727863,-7234,-11.16760149,-154844,0.886230574,12288,128,-1.474598822,-20446,12470.70313,15424,128
-1.181785009,-16386,-11.04831231,-153190,1.181352279,16380,128,-1.351775688,-18743,12472.65625,15488,128
-1.313262738,-18209,-11.06641484,-153441,1.033647184,14332,128,-1.335404078,-18516,12474.60938,15552,128
-0.521367254,-7229,-11.16882755,-154861,0.959506149,13304,128,-1.413006951,-19592,12476.5625,15616,128
-0.009231568,-128,-11.17914095,-155004,0.923084727,12799,128,-1.441350751,-19985,12478.51563,15680,128
-0.293679272,-4072,-11.14070012,-154471,0.954313392,13232,128,-1.409761478,-19547,12480.46875,15744,128
0.118784323,1647,-11.19053616,-155162,0.90022217,12482,128,-1.451015049,-20119,12482.42188,15808,128
0.294833218,4088,-11.20359018,-155343,0.923733821,12808,128,-1.40586691,-19493,12484.375,15872,128
-18.75897989,-260102,-11.11913575,-154172,1.029392008,14273,128,-1.331365267,-18460,12486.32813,15936,128
0.14655115,2032,-11.1169721,-154142,1.031627778,14304,128,-1.410122086,-19552,12488.28125,16000,128
-0.536368553,-7437,-11.24455526,-155911,1.035955076,14364,128,-1.448562914,-20085,12490.23438,16064,128
-0.004038811,-56,-11.21880784,-155554,0.958784933,13294,128,-1.413151194,-19594,12492.1875,16128,128
-0.525189701,-7282,-11.12065031,-154193,0.997009396,13824,128,-1.340308349,-18584,12494.14063,16192,128
-1.44E-04,-2,-11.22544303,-155646,1.025785926,14223,128,-1.434066467,-19884,12496.09375,16256,128
0.582093666,8071,-11.2336649,-155760,1.17918863,16350,128,-1.461256321,-20261,12498.04688,16320,128
-0.001153946,-16,-11.23085215,-155721,1.172409197,16256,128,-1.482820688,-20560,12500,16384,128
0.294833218,4088,-11.26756206,-156230,1.05254305,14594,128,-1.564606615,-21694,12501.95313,16448,128
-18.24165144,-252929,-11.16889968,-154862,1.148392695,15923,128,-1.357978148,-18829,12503.90625,16512,128
-18.28312138,-253504,-11.13283886,-154362,1.043383603,14467,128,-1.319393077,-18294,12505.85938,16576,128
-18.75984535,-260114,-11.13456978,-154386,0.962030406,13339,128,-1.38286011,-19174,12507.8125,16640,128
0.258556039,3585,-11.29446343,-156603,1.144714492,15872,128,-1.476473984,-20472,12509.76563,16704,128
-18.3195428,-254009,-11.28393367,-156457,0.888466345,12319,128,-1.474887308,-20450,12511.71875,16768,128
-0.526127282,-7295,-11.18801191,-155127,1.016049506,14088,128,-1.383004353,-19176,12513.67188,16832,128
-0.443187409,-6145,-11.10391809,-153961,1.148753303,15928,128,-1.511092366,-20952,12515.625,16896,128
0.036854152,511,-11.19003131,-155155,0.90022217,12482,128,-1.429594926,-19822,12517.57813,16960,128
-0.45032745,-6244,-11.12952127,-154316,1.031627778,14304,128,-1.350116891,-18720,12519.53125,17024,128
0.22848132,3168,-11.28321246,-156447,0.867767437,12032,128,-1.527680341,-21182,12521.48438,17088,128
-18.42505675,-255472,-11.28588096,-156484,0.858463747,11903,128,-1.544340437,-21413,12523.4375,17152,128
-18.33843867,-254271,-11.28443852,-156464,1.1760874,16307,128,-1.506692947,-20891,12525.39063,17216,128
0.069453129,963,-11.29172281,-156565,1.120481625,15536,128,-1.52191061,-21102,12527.34375,17280,128
-0.286250745,-3969,-11.11322178,-154090,1.063866146,14751,128,-1.34477989,-18646,12529.29688,17344,128
0.609139277,8446,-11.26972571,-156260,0.918541064,12736,128,-1.536839788,-21309,12531.25,17408,128
-0.295410191,-4096,-11.1946471,-155219,0.896543967,12431,128,-1.436518602,-19918,12533.20313,17472,128
-7.21E-05,-1,-11.27455786,-156327,0.888177858,12315,128,-1.509433569,-20929,12535.15625,17536,128
-7.21E-05,-1,-11.29056886,-156549,1.151782412,15970,128,-1.506620825,-20890,12537.10938,17600,128
-18.61545785,-258112,-11.2283279,-155686,0.890774237,12351,128,-1.459309037,-20234,12539.0625,17664,128
-0.5995471,-8313,-11.23085215,-155721,0.886374818,12290,128,-1.476906714,-20478,12541.01563,17728,128
0.512640537,7108,-11.33138971,-157115,1.034079913,14338,128,-1.566914507,-21726,12542.96875,17792,128
-18.46897882,-256081,-11.37927847,-157779,0.886158453,12287,128,-1.595979523,-22129,12544.92188,17856,128
-18.32466344,-254080,-11.25328198,-156032,0.942124837,13063,128,-1.433922223,-19882,12546.875,17920,128
-18.89911221,-262045,-11.20171502,-155317,0.931883565,12921,128,-1.422166398,-19719,12548.82813,17984,128
0.58627672,8129,-11.37264328,-157687,0.8493043,11776,128,-1.585521887,-21984,12550.78125,18048,128
-0.624933913,-8665,-11.4074059,-158169,1.034440522,14343,128,-1.587324928,-22009,12552.73438,18112,128
-0.069236764,-960,-11.26684085,-156220,1.036171441,14367,128,-1.456424171,-20194,12554.6875,18176,128
-18.89009701,-261920,-11.29020826,-156544,1.172337076,16255,128,-1.504962028,-20867,12556.64063,18240,128
0.129169837,1791,-11.39197187,-157955,1.065092214,14768,128,-1.59316678,-22090,12558.59375,18304,128
0.29533807,4095,-11.31819145,-156932,1.144137519,15864,128,-1.588839482,-22030,12560.54688,18368,128
1.44E-04,2,-11.33521215,-157168,1.144714492,15872,128,-1.559341736,-21621,12562.5,18432,128
0.146262663,2028,-11.3667293,-157605,1.066534646,14788,128,-1.590570401,-22054,12564.45313,18496,128
0.572357246,7936,-11.21289387,-155472,1.047927266,14530,128,-1.414882113,-19618,12566.40625,18560,128
-0.013919474,-193,-11.32057146,-156965,1.181568644,16383,128,-1.551841086,-21517,12568.35938,18624,128
0.286178623,3968,-11.2433292,-155894,1.144714492,15872,128,-1.463924821,-20298,12570.3125,18688,128
0.001442433,20,-11.31422476,-156877,1.16764917,16190,128,-1.539508288,-21346,12572.26563,18752,128
-0.017453434,-242,-11.17503001,-154947,1.172841927,16262,128,-1.399952936,-19411,12574.21875,18816,128
0.073780426,1023,-11.17243364,-154911,1.068554052,14816,128,-1.40543418,-19487,12576.17188,18880,128
-18.35293512,-254472,-11.26309052,-156168,1.181568644,16383,128,-1.488734661,-20642,12578.125,18944,128
-18.8463913,-261314,-11.31559507,-156896,1.177097103,16321,128,-1.527752462,-21183,12580.07813,19008,128
-18.68707462,-259105,-11.30210832,-156709,1.163105507,16127,128,-1.498254716,-20774,12582.03125,19072,128
-18.61120267,-258053,-11.35353105,-157422,1.048864847,14543,128,-1.577804873,-21877,12583.98438,19136,128
0.036349301,504,-11.34249644,-157269,1.153369087,15992,128,-1.570520588,-21776,12585.9375,19200,128
-18.35351209,-254480,-11.26446083,-156187,1.042950874,14461,128,-1.468612727,-20363,12587.89063,19264,128
0.073780426,1023,-11.16356267,-154788,1.140098708,15808,128,-1.375431582,-19071,12589.84375,19328,128
0.442826801,6140,-11.39687614,-158023,1.035955076,14364,128,-1.581771562,-21932,12591.79688,19392,128
-18.33007256,-254155,-11.29561738,-156619,1.179404995,16353,128,-1.483181296,-20565,12593.75,19456,128
0.332192222,4606,-11.37588875,-157732,1.035089616,14352,128,-1.574920008,-21837,12595.70313,19520,128
-18.4609012,-255969,-11.36687355,-157607,1.099205744,15241,128,-1.575496981,-21845,12597.65625,19584,128
0.110995187,1539,-11.29576162,-156621,1.177024982,16320,128,-1.499336541,-20789,12599.60938,19648,128
-18.87163387,-261664,-11.13788738,-154432,1.178251049,16337,128,-1.345933836,-18662,12601.5625,19712,128
-16.54297072,-229376,-11.27953425,-156396,0.918757429,12739,128,-1.483902512,-20575,12603.51563,19776,128
-18.86961447,-261636,-11.32778362,-157065,1.112331881,15423,128,-1.524939719,-21144,12605.46875,19840,128
-18.45505934,-255888,-11.28270761,-156440,1.116659178,15483,128,-1.526959124,-21172,12607.42188,19904,128
-18.34781448,-254401,-11.31386415,-156872,1.172481319,16257,128,-1.548595613,-21472,12609.375,19968,128
-18.89716493,-262018,-11.28912643,-156529,1.051749712,14583,128,-1.51303965,-20979,12611.32813,20032,128
-0.013919474,-193,-11.23611703,-155794,0.905703414,12558,128,-1.457866604,-20214,12613.28125,20096,128
0.092243563,1279,-11.28530398,-156476,0.931234471,12912,128,-1.432047061,-19856,12615.23438,20160,128
-18.44481807,-255746,-11.32280723,-156996,0.890774237,12351,128,-1.45548659,-20181,12617.1875,20224,128
0.119938269,1663,-11.25789777,-156096,0.93209993,12924,128,-1.422238519,-19720,12619.14063,20288,128
0.073564061,1020,-11.17704942,-154975,1.151926655,15972,128,-1.349756283,-18715,12621.09375,20352,128
-18.32588951,-254097,-11.34696798,-157331,0.888466345,12319,128,-1.468540605,-20362,12623.04688,20416,128
-18.37543707,-254784,-11.28515974,-156474,0.886302696,12289,128,-1.476834592,-20477,12625,20480,128
-18.34976177,-254428,-11.28761188,-156508,0.886735426,12295,128,-1.476618228,-20474,12626.95313,20544,128
2.88E-04,4,-11.35223286,-157404,1.18048682,16368,128,-1.510154785,-20939,12628.90625,20608,128
-18.83131788,-261105,-11.42543631,-158419,1.035594468,14359,128,-1.556240506,-21578,12630.85938,20672,128
-18.35012237,-254433,-11.29518465,-156613,0.886735426,12295,128,-1.462698753,-20281,12632.8125,20736,128
-18.33396713,-254209,-11.24513224,-155919,1.110168232,15393,128,-1.382211015,-19165,12634.76563,20800,128
-18.46313697,-256000,-11.31920115,-156946,0.895390021,12415,128,-1.46789151,-20353,12636.71875,20864,128
-18.42621069,-255488,-11.33405821,-157152,0.886446939,12291,128,-1.467026051,-20341,12638.67188,20928,128
0.590531896,8188,-11.2506856,-155996,1.109374894,15382,128,-1.401755977,-19436,12640.625,20992,128
0.112942471,1566,-11.22551515,-155647,0.919118037,12744,128,-1.431253723,-19845,12642.57813,21056,128
-18.36151759,-254591,-11.33925096,-157224,0.907073725,12577,128,-1.496163189,-20745,12644.53125,21120,128
-18.67084726,-258880,-11.24397829,-155903,0.903611887,12529,128,-1.393317746,-19319,12646.48438,21184,128
-18.3175234,-253981,-11.30614714,-156765,0.923084727,12799,128,-1.466593321,-20335,12648.4375,21248,128
0.577550003,8008,-11.31833569,-156934,0.888538467,12320,128,-1.475031552,-20452,12650.39063,21312,128
0.59024341,8184,-11.31956176,-156951,0.890846359,12352,128,-1.471353349,-20401,12652.34375,21376,128
0.143522041,1990,-11.26554266,-156202,1.036243562,14368,128,-1.428224615,-19803,12654.29688,21440,128
-18.31766764,-253983,-11.25090197,-155999,1.024920467,14211,128,-1.383653448,-19185,12656.25,21504,128
0.293102299,4064,-11.26460508,-156189,0.923301092,12802,128,-1.425844601,-19770,12658.20313,21568,128
-18.7586914,-260098,-11.42925876,-158472,0.868128046,12037,128,-1.599008632,-22171,12660.15625,21632,128
-18.3248798,-254083,-11.25580624,-156067,0.960011001,13311,128,-1.403270531,-19457,12662.10938,21696,128
0.065630682,910,-11.26179233,-156150,0.997586369,13832,128,-1.399015355,-19398,12664.0625,21760,128
0.459847505,6376,-11.32186965,-156983,0.89488517,12408,128,-1.461400564,-20263,12666.01563,21824,128
-18.35178117,-254456,-11.2977089,-156648,0.922507754,12791,128,-1.445461684,-20042,12667.96875,21888,128
0.525622431,7288,-11.293021,-156583,0.90815555,12592,128,-1.451375657,-20124,12669.92188,21952,128
8.65E-04,12,-11.20993688,-155431,1.18048682,16368,128,-1.353578729,-18768,12671.875,22016,128
-18.83679913,-261181,-11.23005882,-155710,1.109735502,15387,128,-1.378172204,-19109,12673.82813,22080,128
-18.87112902,-261657,-11.19926288,-155283,1.160220642,16087,128,-1.35098235,-18732,12675.78125,22144,128
0.278028879,3855,-11.29496828,-156610,0.922002902,12784,128,-1.440990143,-19980,12677.73438,22208,128
-18.62959369,-258308,-11.25263289,-156023,0.953087324,13215,128,-1.408607532,-19531,12679.6875,22272,128
-18.7603502,-260121,-11.23986736,-155846,1.015977385,14087,128,-1.423753074,-19741,12681.64063,22336,128
0.535430972,7424,-11.35894017,-157497,0.889692413,12336,128,-1.503447473,-20846,12683.59375,22400,128
2.478099165,34360,-11.34581403,-157315,0.8493043,11776,128,-1.434787683,-19894,12685.54688,22464,128
0.005481244,76,-11.29972831,-156676,0.960371609,13316,128,-1.451159293,-20121,12687.5,22528,128
-18.34262172,-254329,-11.32266299,-156994,0.886302696,12289,128,-1.474093971,-20439,12689.45313,22592,128
2.36674337,32816,-11.37098448,-157664,1.178178928,16336,128,-1.489744364,-20656,12691.40625,22656,128
0.58670945,8135,-11.37624936,-157737,1.160869737,16096,128,-1.541094964,-21368,12693.35938,22720,128
-0.018391015,-255,-11.2780197,-156375,1.052254564,14590,128,-1.444451981,-20028,12695.3125,22784,128
-18.31550399,-253953,-11.24614194,-155933,1.172914049,16263,128,-1.356752081,-18812,12697.26563,22848,128
-18.31572036,-253956,-11.25155106,-156008,1.112620367,15427,128,-1.396707463,-19366,12699.21875,22912,128
-18.62007363,-258176,-11.36290686,-157552,1.181568644,16383,128,-1.491042553,-20674,12701.17188,22976,128
0.156720299,2173,-11.36600809,-157595,1.174572846,16286,128,-1.540229504,-21356,12703.125,23040,128
2.363497897,32771,-11.37891786,-157774,1.177024982,16320,128,-1.52234334,-21108,12705.07813,23104,128
2.806396819,38912,-11.35252134,-157408,1.163898845,16138,128,-1.489023148,-20646,12707.03125,23168,128
-18.8913952,-261938,-11.19717135,-155254,1.066751011,14791,128,-1.310377873,-18169,12708.98438,23232,128
0.590748261,8191,-11.3100417,-156819,0.888538467,12320,128,-1.44704836,-20064,12710.9375,23296,128
0.921425929,12776,-11.19039192,-155160,1.181352279,16380,128,-1.349251431,-18708,12712.89063,23360,128
1.144858735,15874,-11.17553487,-154954,1.034945373,14350,128,-1.327470699,-18406,12714.84375,23424,128
-18.28658322,-253552,-11.19637802,-155243,1.034007792,14337,128,-1.292347466,-17919,12716.79688,23488,128
-16.25116661,-225330,-11.28458277,-156466,0.916016807,12701,128,-1.373700663,-19047,12718.75,23552,128
-18.90192496,-262084,-11.17567911,-154956,1.034152035,14339,128,-1.308358468,-18141,12720.70313,23616,128
1.035738711,14361,-11.27664939,-156356,1.02816594,14256,128,-1.442144089,-19996,12722.65625,23680,128
2.508678735,34784,-11.31328718,-156864,0.95777523,13280,128,-1.462410267,-20277,12724.60938,23744,128
-15.95243883,-221188,-11.28263548,-156439,0.904477346,12541,128,-1.4488514,-20089,12726.5625,23808,128
0.005120636,71,-11.34047703,-157241,0.886230574,12288,128,-1.476473984,-20472,12728.51563,23872,128
-18.32935135,-254145,-11.43885093,-158605,0.886158453,12287,128,-1.555591411,-21569,12730.46875,23936,128
-16.39778988,-227363,-11.43611031,-158567,0.867839559,12033,128,-1.548379248,-21469,12732.42188,24000,128
-18.90488194,-262125,-11.3903852,-157933,1.181568644,16383,128,-1.51303965,-20979,12734.375,24064,128
-18.89709281,-262017,-11.34682373,-157329,0.890629994,12349,128,-1.473805484,-20435,12736.32813,24128,128
-18.8347076,-261152,-11.15317716,-154644,1.172481319,16257,128,-1.283115898,-17791,12738.28125,24192,128
0.554038352,7682,-11.25486866,-156054,1.033358697,14328,128,-1.394471692,-19335,12740.23438,24256,128
-18.90625225,-262144,-11.26013354,-156127,1.034007792,14337,128,-1.413656046,-19601,12742.1875,24320,128
0.609355642,8449,-11.20661929,-155385,1.167072197,16182,128,-1.357761783,-18826,12744.14063,24384,128
-15.97991717,-221569,-11.24498799,-155917,1.033430819,14329,128,-1.355237526,-18791,12746.09375,24448,128
0.295193827,4093,-11.26388386,-156179,1.026435021,14232,128,-1.353506607,-18767,12748.04688,24512,128
-18.86932598,-261632,-11.32713453,-157056,0.894957291,12409,128,-1.395625638,-19351,12750,24576,128
2.409655739,33411,-11.32295147,-156998,0.959938879,13310,128,-1.434931926,-19896,12751.95313,24640,128
2.432518295,33728,-11.33175031,-157120,0.887096034,12300,128,-1.453322941,-20151,12753.90625,24704,128
-18.41697912,-255360,-11.32266299,-156994,0.959578271,13305,128,-1.41870456,-19671,12755.85938,24768,128
-18.90185283,-262083,-11.38793306,-157899,1.181568644,16383,128,-1.481378255,-20540,12757.8125,24832,128
-18.35206966,-254460,-11.29165069,-156564,0.953087324,13215,128,-1.437961035,-19938,12759.76563,24896,128
1.040282373,14424,-11.18808403,-155128,1.112259759,15422,128,-1.28852502,-17866,12761.71875,24960,128
7.21E-05,1,-11.50246221,-159487,0.886663304,12294,128,-1.578886697,-21892,12763.67188,25024,128
-16.47027212,-228368,-11.45046251,-158766,0.867695316,12031,128,-1.535397355,-21289,12765.625,25088,128
-18.86925386,-261631,-11.33398608,-157151,1.181568644,16383,128,-1.492701351,-20697,12767.57813,25152,128
-18.89709281,-262017,-11.31891266,-156942,0.90462159,12543,128,-1.441494994,-19987,12769.53125,25216,128
-16.39764564,-227361,-11.22811153,-155683,1.181568644,16383,128,-1.367642446,-18963,12771.48438,25280,128
-18.32004766,-254016,-11.2700142,-156264,1.026939872,14239,128,-1.353218121,-18763,12773.4375,25344,128
0.295121705,4092,-11.30924837,-156808,0.969314691,13440,128,-1.393245625,-19318,12775.39063,25408,128
0.00396669,55,-11.29547313,-156617,0.997009396,13824,128,-1.361007257,-18871,12777.34375,25472,128
0.001009703,14,-11.37689845,-157746,0.901808846,12504,128,-1.461472686,-20264,12779.29688,25536,128
0.287044083,3980,-11.29655496,-156632,0.998019099,13838,128,-1.40146749,-19432,12781.25,25600,128
0.517400565,7174,-11.35973351,-157508,0.957630987,13278,128,-1.429594926,-19822,12783.20313,25664,128
-18.33389501,-254208,-11.33398608,-157151,0.900727022,12489,128,-1.448707157,-20087,12785.15625,25728,128
-16.53842706,-229313,-11.24873832,-155969,1.144353884,15867,128,-1.367858811,-18966,12787.10938,25792,128
0.147632974,2047,-11.24707952,-155946,1.162600656,16120,128,-1.350116891,-18720,12789.0625,25856,128
2.381167696,33016,-11.20755687,-155398,1.061630376,14720,128,-1.30136267,-18044,12791.01563,25920,128
-18.76539871,-260191,-11.23243883,-155743,1.036892657,14377,128,-1.326388875,-18391,12792.96875,25984,128
-0.59024341,-8184,-11.22385636,-155624,1.036099319,14366,128,-1.320258536,-18306,12794.92188,26048,128
-18.31550399,-253953,-11.23640552,-155798,1.024920467,14211,128,-1.384518908,-19197,12796.875,26112,128
-18.43428832,-255600,-11.34429948,-157294,1.160797615,16095,128,-1.497894108,-20769,12798.82813,26176,128
-18.90625225,-262144,-11.20625868,-155380,1.116947665,15487,128,-1.396635341,-19365,12800.78125,26240,128
-18.61516936,-258108,-11.31487385,-156886,0.925392619,12831,128,-1.448346549,-20082,12802.73438,26304,128
-16.41380088,-227585,-11.28451065,-156465,0.888754831,12323,128,-1.419137289,-19677,12804.6875,26368,128
-18.64747985,-258556,-11.36319534,-157556,0.887600885,12307,128,-1.429522804,-19821,12806.64063,26432,128
0.010313393,143,-11.215346,-155506,1.048936969,14544,128,-1.28188983,-17774,12808.59375,26496,128
2.658619602,36863,-11.24989226,-155985,1.033070211,14324,128,-1.330211321,-18444,12810.54688,26560,128
-18.64791258,-258562,-11.27650515,-156354,1.117524638,15495,128,-1.315714874,-18243,12812.5,26624,128
-18.38928442,-254976,-11.36615233,-157597,0.888177858,12315,128,-1.436518602,-19918,12814.45313,26688,128
0.368325158,5107,-11.37509541,-157721,0.905270684,12552,128,-1.455630834,-20183,12816.40625,26752,128
0.004543663,63,-11.35641591,-157462,0.920848956,12768,128,-1.442360454,-19999,12818.35938,26816,128
-18.01994956,-249855,-11.22219756,-155601,1.034440522,14343,128,-1.310377873,-18169,12820.3125,26880,128
0.147632974,2047,-11.24707952,-155946,1.042878752,14460,128,-1.323287645,-18348,12822.26563,26944,128
-18.3431987,-254337,-11.27585605,-156345,1.181568644,16383,128,-1.336990754,-18538,12824.21875,27008,128
2.884576665,39996,-11.21339872,-155479,1.144714492,15872,128,-1.270350369,-17614,12826.17188,27072,128
-17.76074442,-246261,-11.10939933,-154037,1.174212238,16281,128,-1.186617158,-16453,12828.125,27136,128
-17.76074442,-246261,-11.21736541,-155534,1.174212238,16281,128,-1.284918938,-17816,12830.07813,27200,128
-18.31615309,-253962,-11.16889968,-154862,1.179837725,16359,128,-1.223471311,-16964,12832.03125,27264,128
0,0,-11.22263029,-155607,1.18048682,16368,128,-1.280591641,-17756,12833.98438,27328,128
-18.614953,-258105,-11.19868591,-155275,1.12603499,15613,128,-1.267753991,-17578,12835.9375,27392,128
-18.614953,-258105,-11.08632041,-153717,1.12603499,15613,128,-1.157119412,-16044,12837.89063,27456,128
0.138689892,1923,-11.12266971,-154221,1.177890441,16332,128,-1.198084497,-16612,12839.84375,27520,128
0.138689892,1923,-11.13853647,-154441,1.177890441,16332,128,-1.241862326,-17219,12841.79688,27584,128
0.138689892,1923,-11.15476384,-154666,1.177890441,16332,128,-1.231260446,-17072,12843.75,27648,128
-16.54073495,-229345,-11.28443852,-156464,0.902313698,12511,128,-1.369012757,-18982,12845.70313,27712,128
-18.88793336,-261890,-11.21592298,-155514,1.172914049,16263,128,-1.263066085,-17513,12847.65625,27776,128
0.001081824,15,-11.17748215,-154981,1.165485521,16160,128,-1.252896935,-17372,12849.60938,27840,128
-16.54232163,-229367,-11.19955137,-155287,1.151854533,15971,128,-1.27525464,-17682,12851.5625,27904,128
-18.32480768,-254082,-11.23554006,-155786,1.01886225,14127,128,-1.344852012,-18647,12853.51563,27968,128
-18.01836288,-249833,-11.21476903,-155498,1.03040171,14287,128,-1.331725875,-18465,12855.46875,28032,128
0.590748261,8191,-11.2266691,-155663,1.033358697,14328,128,-1.341967147,-18607,12857.42188,28096,128
-18.33447198,-254216,-11.24578133,-155928,1.033863549,14335,128,-1.347304147,-18681,12859.375,28160,128
-18.76373992,-260168,-11.12043394,-154190,1.165413399,16159,128,-1.216403391,-16866,12861.32813,28224,128
2.36010818,32724,-11.17560699,-154955,0.521511498,7231,128,-1.259676368,-17466,12863.28125,28288,128
4.680405221,64896,-11.17560699,-154955,0,0,128,-1.259676368,-17466,12865.23438,28352,152
-604.9265081,-8387588,-355.9694971,-4935683,0.00223577,31,26,0.018391015,255,12867.1875,28416,128
0.018391015,255,-355.9694971,-4935683,0.013847353,192,26,0.018391015,255,12869.14063,28480,128
0,0,-302.5000361,-4194304,0,0,159,-11.37076811,-157661,12871.09375,28544,156
2.354049963,32640,4.720865455,65457,0,0,25,528.1934223,7323648,12873.04688,28608,128
0.006923676,96,-426.3369115,-5911360,1.119544043,15523,0,-291.9578012,-4048131,12875,28672,0
0.001730919,24,-426.3369115,-5911360,5.05E-04,7,0,-291.9578012,-4048131,12876.95313,28736,156
4.578857968,63488,-431.2988795,-5980160,0.886230574,12288,1,-543.5991792,-7537256,12878.90625,28800,128
1.772461149,24576,-431.2988795,-5980160,1.174500725,16285,1,-543.5991792,-7537256,12880.85938,28864,0
0,0,-448.0310974,-6212160,1.04280663,14459,0,-330.6749994,-4584963,12882.8125,28928,128
0.110778822,1536,-11.32843272,-157074,0.946163648,13119,128,-1.377450988,-19099,12884.76563,28992,0
-16.45065504,-228096,-11.41223805,-158236,0.886158453,12287,128,-1.49133104,-20678,12886.71875,29056,128
-18.64574893,-258532,-11.3123496,-156851,0.907217968,12579,128,-1.334033767,-18497,12888.67188,29120,128
0.590531896,8188,-11.30441622,-156741,1.146733898,15900,128,-1.328768889,-18424,12890.625,29184,128
-18.90401648,-262113,-11.33708731,-157194,1.005880357,13947,128,-1.3611515,-18873,12892.57813,29248,128
-18.35214178,-254461,-11.41375261,-158257,0.893659102,12391,128,-1.467747267,-20351,12894.53125,29312,128
-18.32076887,-254026,-11.34595827,-157317,0.923084727,12799,128,-1.409977843,-19550,12896.48438,29376,128
0.521511498,7231,-11.40329497,-158112,0.953015203,13214,128,-1.433705858,-19879,12898.4375,29440,128
2.510914506,34815,-11.35922865,-157501,0.888826953,12324,128,-1.420219114,-19692,12900.39063,29504,128
-18.32004766,-254016,-11.24729589,-155949,1.034152035,14339,128,-1.317806401,-18272,12902.34375,29568,128
2.365373059,32797,-11.18584826,-155097,1.177313468,16324,128,-1.28765956,-17854,12904.29688,29632,128
-16.06732858,-222781,-11.42053204,-158351,0.900150049,12481,128,-1.473805484,-20435,12906.25,29696,128
-18.61084206,-258048,-11.42514782,-158415,1.114928259,15459,128,-1.497894108,-20769,12908.20313,29760,128
0.238866835,3312,-11.4053865,-158141,0.959938879,13310,128,-1.458804185,-20227,12910.15625,29824,128
-18.88836609,-261896,-11.36095957,-157525,0.887312399,12303,128,-1.408679653,-19532,12912.10938,29888,128
0.294833218,4088,-11.22255817,-155606,1.142262357,15838,128,-1.271576437,-17631,12914.0625,29952,128
0.286322866,3970,-11.23691037,-155805,1.098700893,15234,128,-1.314921536,-18232,12916.01563,30016,128
-18.32466344,-254080,-11.23078003,-155720,1.179404995,16353,128,-1.294511115,-17949,12917.96875,30080,128
0.574665138,7968,-11.35187225,-157399,1.026435021,14232,128,-1.374349758,-19056,12919.92188,30144,128
-18.90610801,-262142,-11.27780333,-156372,1.145796316,15887,128,-1.376152799,-19081,12921.875,30208,128
0.517400565,7174,-11.28277973,-156441,1.151349682,15964,128,-1.327326456,-18404,12923.82813,30272,128
0.554110474,7683,-11.40351133,-158115,0.923156848,12800,128,-1.425628236,-19767,12925.78125,30336,128
-18.52883977,-256911,-11.34595827,-157317,0.922507754,12791,128,-1.350261134,-18722,12927.73438,30400,128
0.526127282,7295,-11.30722896,-156780,1.03393567,14336,128,-1.367426082,-18960,12929.6875,30464,128
0.58757491,8147,-11.40358346,-158116,0.899933684,12478,128,-1.473949727,-20437,12931.64063,30528,128
-18.68592068,-259089,-11.31343142,-156866,1.113485827,15439,128,-1.328552524,-18421,12933.59375,30592,128
0.588800977,8164,-11.44014912,-158623,0.959506149,13304,128,-1.473805484,-20435,12935.54688,30656,128
-18.53691739,-257023,-11.44209641,-158650,0.887312399,12303,128,-1.486138283,-20606,12937.5,30720,128
0.589666437,8176,-11.4844318,-159237,1.16764917,16190,128,-1.503808082,-20851,12939.45313,30784,128
0,0,-11.36608021,-157596,1.037397508,14384,128,-1.407020856,-19509,12941.40625,30848,128
0.59067614,8190,-11.36586384,-157593,1.160869737,16096,128,-1.372907325,-19036,12943.35938,30912,128
-18.87394176,-261696,-11.47051233,-159044,0.960011001,13311,128,-1.479719458,-20517,12945.3125,30976,128
0.523314538,7256,-11.30924837,-156808,1.153369087,15992,128,-1.438826494,-19950,12947.26563,31040,128
0.588224004,8156,-11.2283279,-155686,1.181496523,16382,128,-1.448707157,-20087,12949.21875,31104,128
1.03393567,14336,-11.14827289,-154576,0.017886164,248,128,-1.40896814,-19536,12951.17188,31168,128
-16.54239375,-229368,-11.0035969,-152570,0.091810833,1273,128,-1.277346167,-17711,12953.125,31232,128
-18.83701549,-261184,-10.72946259,-148769,1.193108105,16543,128,-1.026795629,-14237,12955.07813,31296,128
-16.61631842,-230393,-10.55579371,-146361,1.702863777,23611,128,-0.858896477,-11909,12957.03125,31360,128
2.081718693,28864,-10.32507662,-143162,1.736111848,24072,128,-0.624861792,-8664,12958.98438,31424,128
-14.47509938,-200704,-10.21920207,-141694,2.077319274,28803,128,-0.525694552,-7289,12960.9375,31488,128
-16.8220093,-233245,-10.34108762,-143384,1.472363051,20415,128,-0.608201695,-8433,12962.89063,31552,128
3.66947635,50879,-10.51706439,-145824,1.254916341,17400,128,-0.607047749,-8417,12964.84375,31616,128
-15.36190693,-213000,-10.71273037,-148537,0.590748261,8191,128,-0.647219497,-8974,12966.79688,31680,128
-17.72468361,-245761,-10.90183328,-151159,0.29533807,4095,128,-0.709748949,-9841,12968.75,31744,128
-17.75829229,-246227,-11.05170203,-153237,0.157153029,2179,128,-0.71335503,-9891,12970.70313,31808,128
-17.78028939,-246532,-11.24989226,-155985,0.027766827,385,128,-0.732178775,-10152,12972.65625,31872,128
-16.47358972,-228414,-11.4824124,-159209,0.47996944,6655,128,-0.943783634,-13086,12974.60938,31936,128
0.016155245,224,-11.39442401,-157989,0.03231049,448,128,-0.939816945,-13031,12976.5625,32000,128
0.572862097,7943,-11.23020306,-155712,0.295121705,4092,128,-0.857381923,-11888,12978.51563,32064,128
-17.76146564,-246271,-11.19039192,-155160,0.309762396,4295,128,-0.90022217,-12482,12980.46875,32128,128
-18.90401648,-262113,-11.17438092,-154938,0.004543663,63,128,-0.989292382,-13717,12982.42188,32192,128
0.064620979,896,-11.16709663,-154837,0.027694705,384,128,-1.008548857,-13984,12984.375,32256,128
-15.97760927,-221537,-11.33651034,-157186,0.0283438,393,128,-1.203133011,-16682,12986.32813,32320,128
-15.98244142,-221604,-11.21159568,-155454,0.017381313,241,128,-1.068554052,-14816,12988.28125,32384,128
0.287044083,3980,-11.28386155,-156456,0.06952525,964,128,-1.191016578,-16514,12990.23438,32448,128
-16.40370386,-227445,-11.28479913,-156469,1.153873939,15999,128,-1.208109404,-16751,12992.1875,32512,128
-18.33396713,-254209,-11.35836319,-157489,1.034440522,14343,128,-1.268907937,-17594,12994.14063,32576,128
-18.41834944,-255379,-11.31927327,-156947,1.14464237,15871,128,-1.226716784,-17009,12996.09375,32640,128
-18.45419388,-255876,-11.36434929,-157572,1.133247153,15713,128,-1.306194819,-18111,12998.04688,32704,128
0.572429368,7937,-11.26229718,-156157,1.12250103,15564,128,-1.24424234,-17252,13000,32768,128
-18.31535975,-253951,-11.23013094,-155711,1.16368248,16135,128,-1.208542133,-16757,13001.95313,32832,128
2.363786383,32775,-11.3827403,-157827,1.070717701,14846,128,-1.368652149,-18977,13003.90625,32896,128
2.369988843,32861,-11.43351393,-158531,1.163754602,16136,128,-1.438970737,-19952,13005.85938,32960,128
-16.50835234,-228896,-11.30795018,-156790,1.006168843,13951,128,-1.305040873,-18095,13007.8125,33024,128
2.40128963,33295,-11.33788065,-157205,1.125962868,15612,128,-1.344635647,-18644,13009.76563,33088,128
0.443331652,6147,-11.35490136,-157441,0.959794636,13308,128,-1.301939643,-18052,13011.71875,33152,128
2.501610816,34686,-11.32850484,-157075,0.997009396,13824,128,-1.352496904,-18753,13013.67188,33216,128
-18.31615309,-253962,-11.23041942,-155715,1.072953471,14877,128,-1.231693176,-17078,13015.625,33280,128
0.059428222,824,-11.20315745,-155337,0.002019406,28,128,-1.223254946,-16961,13017.57813,33344,128
-18.68909403,-259133,-11.33333699,-157142,1.115216746,15463,128,-1.324513712,-18365,13019.53125,33408,128
-18.74015614,-259841,-11.30232469,-156712,1.145219343,15879,128,-1.309656657,-18159,13021.48438,33472,128
-18.88036059,-261785,-11.32987515,-157094,1.12690045,15625,128,-1.309512414,-18157,13023.4375,33536,128
2.363281532,32768,-11.32958666,-157090,1.17471709,16288,128,-1.319681563,-18298,13025.39063,33600,128
2.36674337,32816,-11.3460304,-157318,1.001480937,13886,128,-1.361439986,-18877,13027.34375,33664,128
0.473117885,6560,-11.30629138,-156767,1.029319886,14272,128,-1.374205515,-19054,13029.29688,33728,128
-18.31572036,-253956,-11.39002459,-157928,0.905198563,12551,128,-1.438754372,-19949,13031.25,33792,128
-18.57333882,-257528,-11.48349422,-159224,0.828749636,11491,128,-1.515491785,-21013,13033.20313,33856,128
-18.88786124,-261889,-11.47253173,-159072,1.181568644,16383,128,-1.479647336,-20516,13035.15625,33920,128
-18.01086223,-249729,-11.14610924,-154546,1.18272259,16399,128,-1.180631063,-16370,13037.10938,33984,128
-15.95106851,-221169,-11.14156558,-154483,0.00223577,31,128,-1.156830926,-16040,13039.0625,34048,128
2.435980134,33776,-11.30153135,-156701,1.068986782,14822,128,-1.303526318,-18074,13041.01563,34112,128
2.16E-04,3,-11.3186963,-156939,0.987922071,13698,128,-1.322782793,-18341,13042.96875,34176,128
2.4832198,34431,-11.21952906,-155564,1.082401405,15008,128,-1.263859423,-17524,13044.92188,34240,128
-15.13970019,-209919,-11.37040751,-157656,1.035017495,14351,128,-1.391514706,-19294,13046.875,34304,128
-18.31925432,-254005,-11.30831078,-156795,1.033863549,14335,128,-1.336269538,-18528,13048.82813,34368,128
-18.31197003,-253904,-11.28407792,-156459,1.052326685,14591,128,-1.309873022,-18162,13050.78125,34432,128
2.879095421,39920,-11.36232988,-157544,1.015472533,14080,128,-1.381129191,-19150,13052.73438,34496,128
0.138473527,1920,-11.34963648,-157368,0.960083122,13312,128,-1.352352661,-18751,13054.6875,34560,128
0.522160592,7240,-11.42247932,-158378,0.886230574,12288,128,-1.442432576,-20000,13056.64063,34624,128
-18.90603589,-262141,-11.30347863,-156728,0.89091848,12353,128,-1.335187714,-18513,13058.59375,34688,128
-18.25831154,-253160,-11.15570142,-154679,0.009159447,127,128,-1.173491022,-16271,13060.54688,34752,128
-18.88901518,-261905,-11.20640292,-155382,1.179260752,16351,128,-1.228087095,-17028,13062.5,34816,128
-16.53885979,-229319,-11.21649995,-155522,1.070934066,14849,128,-1.209407593,-16769,13064.45313,34880,128
2.967444416,41145,-11.25796989,-156097,1.179332874,16352,128,-1.246550232,-17284,13066.40625,34944,128
-18.6282955,-258290,-11.24080494,-155859,1.051605469,14581,128,-1.285495911,-17824,13068.35938,35008,128
0.276874933,3839,-11.33687095,-157191,1.030473832,14288,128,-1.353073877,-18761,13070.3125,35072,128
-18.3318756,-254180,-11.3897361,-157924,0.888466345,12319,128,-1.378244326,-19110,13072.26563,35136,128
0.149868745,2078,-11.35324256,-157418,1.144714492,15872,128,-1.321123996,-18318,13074.21875,35200,128
-18.7597011,-260112,-11.22760668,-155676,1.16368248,16135,128,-1.199238443,-16628,13076.17188,35264,128
0.898851859,12463,-11.21303811,-155474,1.116875543,15486,128,-1.247704178,-17300,13078.125,35328,128
-15.95272731,-221192,-11.23070791,-155719,1.039633279,14415,128,-1.295232331,-17959,13080.07813,35392,128
-18.89925646,-262047,-11.22226968,-155602,1.107139123,15351,128,-1.238112001,-17167,13082.03125,35456,128
0.29533807,4095,-11.23395338,-155764,1.042878752,14460,128,-1.254483611,-17394,13083.98438,35520,128
2.935638778,40704,-11.34711222,-157333,1.105480326,15328,128,-1.318671861,-18284,13085.9375,35584,128
2.370205208,32864,-11.36175291,-157536,0.904405225,12540,128,-1.340380471,-18585,13087.89063,35648,128
0.267138513,3704,-11.25147894,-156007,1.144137519,15864,128,-1.238761096,-17176,13089.84375,35712,128
-16.02600289,-222208,-11.3383855,-157212,1.108004583,15363,128,-1.346582931,-18671,13091.79688,35776,128
-18.90603589,-262141,-11.44736128,-158723,1.172914049,16263,128,-1.438898616,-19951,13093.75,35840,128
0.004543663,63,-11.05884207,-153336,0,0,128,-1.091993581,-15141,13095.70313,35904,128
-18.76265809,-260153,-11.2780197,-156375,0.009159447,127,128,-1.318311252,-18279,13097.65625,35968,128
0.59067614,8190,-11.28487125,-156470,1.029319886,14272,128,-1.308069981,-18137,13099.60938,36032,128
-18.31312398,-253920,-11.15447535,-154662,1.177529833,16327,128,-1.154090304,-16002,13101.5625,36096,128
-18.3708934,-254721,-11.36687355,-157607,1.052470929,14593,128,-1.384518908,-19197,13103.51563,36160,128
-14.47041148,-200639,-11.40336709,-158113,0.888466345,12319,128,-1.405794788,-19492,13105.46875,36224,128
-16.27063945,-225600,-11.17127969,-154895,1.103388799,15299,128,-1.136781113,-15762,13107.42188,36288,128
-18.20876398,-252473,-11.11841454,-154162,0.082579265,1145,128,-1.099061501,-15239,13109.375,36352,128
-18.3195428,-254009,-11.24780074,-155956,1.179549239,16355,128,-1.259892733,-17469,13111.32813,36416,128
-18.67553516,-258945,-11.29273251,-156579,1.176808617,16317,128,-1.298982656,-18011,13113.28125,36480,128
-18.62959369,-258308,-11.24751225,-155952,1.057230956,14659,128,-1.268258842,-17585,13115.23438,36544,128
-18.87055205,-261649,-11.16240873,-154772,2.16E-04,3,128,-1.162672777,-16121,13117.1875,36608,128
0.294833218,4088,-11.24982014,-155984,1.142550843,15842,128,-1.231981663,-17082,13119.14063,36672,128
-18.01547802,-249793,-11.17618396,-154963,2.16E-04,3,128,-1.18582382,-16442,13121.09375,36736,128
0.004327298,60,-11.18361249,-155066,1.181063793,16376,128,-1.191377186,-16519,13123.04688,36800,128
-18.00213552,-249608,-11.25472441,-156052,1.180703185,16371,128,-1.263354571,-17517,13125,36864,128
2.38181679,33025,-11.19782045,-155263,1.172409197,16256,128,-1.198012376,-16611,13126.95313,36928,128
-18.31110457,-253892,-11.23409763,-155766,1.181568644,16383,128,-1.248136908,-17306,13128.90625,36992,128
0.546898311,7583,-11.30859927,-156799,1.14817633,15920,128,-1.29119352,-17903,13130.85938,37056,128
-18.61545785,-258112,-11.36499838,-157581,1.063866146,14751,128,-1.33150951,-18462,13132.8125,37120,128
0.271682176,3767,-11.23359278,-155759,1.181063793,16376,128,-1.213879134,-16831,13134.76563,37184,128
0.594859194,8248,-11.14033951,-154466,0.002019406,28,128,-1.17471709,-16288,13136.71875,37248,128
-18.24244478,-252940,-11.16781785,-154847,1.17031767,16227,128,-1.19556024,-16577,13138.67188,37312,128
0.738381235,10238,-11.11019267,-154048,0.036926274,512,128,-1.111466421,-15411,13140.625,37376,128
2.372224614,32892,-11.20258048,-155329,0.004327298,60,128,-1.196281457,-16587,13142.57813,37440,128
-16.50972265,-228915,-11.17279424,-154916,0.002812744,39,128,-1.212653066,-16814,13144.53125,37504,128
-16.52465183,-229122,-11.28097669,-156416,1.108725799,15373,128,-1.258666665,-17452,13146.48438,37568,128
0.585916112,8124,-11.24895468,-155972,1.180342577,16366,128,-1.249867827,-17330,13148.4375,37632,128
-15.93210053,-220906,-11.20568171,-155372,1.176664373,16315,128,-1.197002673,-16597,13150.39063,37696,128
0.920848956,12768,-11.19010343,-155156,0,0,128,-1.144714492,-15872,13152.34375,37760,128
0.730087248,10123,-11.10478355,-153973,0.110778822,1536,128,-1.067688592,-14804,13154.29688,37824,128
-18.88598608,-261863,-11.16147115,-154759,0.018535259,257,128,-1.121563449,-15551,13156.25,37888,128
-18.90625225,-262144,-11.19774833,-155262,2.16E-04,3,128,-1.149113911,-15933,13158.20313,37952,128
1.109807624,15388,-11.14740743,-154564,0.034762625,482,128,-1.125530139,-15606,13160.15625,38016,128
0.590820383,8192,-11.11026479,-154049,0.035195355,488,128,-1.013164641,-14048,13162.10938,38080,128
1.017780425,14112,-11.10312475,-153950,0.16559126,2296,128,-0.990446328,-13733,13164.0625,38144,128
-16.54044647,-229341,-11.06576575,-153432,0.222639468,3087,128,-0.969603177,-13444,13166.01563,38208,128
-16.47142607,-228384,-11.11531331,-154119,0.014063718,195,128,-1.053985483,-14614,13167.96875,38272,128
0.00223577,31,-11.20344594,-155341,0.083084116,1152,128,-1.142983573,-15848,13169.92188,38336,128
2.408285428,33392,-11.17805912,-154989,0.050773627,704,128,-1.128919855,-15653,13171.875,38400,128
-16.4925577,-228677,-11.1099763,-154045,0.014063718,195,128,-1.057952173,-14669,13173.82813,38464,128
-18.79107401,-260547,-11.0892774,-153758,0.033103828,459,128,-1.015039803,-14074,13175.78125,38528,128
-18.90524255,-262130,-11.08985437,-153766,0.19436779,2695,128,-1.012587668,-14040,13177.73438,38592,128
-17.97855174,-249281,-11.10146595,-153927,0.147921461,2051,128,-0.993042707,-13769,13179.6875,38656,128
1.15877821,16067,-11.00828481,-152635,0.219538238,3044,128,-0.875340208,-12137,13181.64063,38720,128
1.144786614,15873,-11.06504453,-153422,0.533267323,7394,128,-0.962607379,-13347,13183.59375,38784,128
3.000187635,41599,-11.17026999,-154881,0.074429521,1032,128,-1.078146229,-14949,13185.54688,38848,128
2.954174036,40961,-11.18051126,-155023,0.02524257,350,128,-1.083555351,-15024,13187.5,38912,128
-17.72807333,-245808,-11.11783756,-154154,0.177635572,2463,128,-1.002562762,-13901,13189.45313,38976,128
0.595147681,8252,-11.1309637,-154336,0.147128123,2040,128,-1.034512643,-14344,13191.40625,39040,128
2.428984336,33679,-11.16940453,-154869,0.145397204,2016,128,-1.04763878,-14526,13193.35938,39104,128
-18.7586914,-260098,-11.08336342,-153676,0.14878692,2063,128,-1.010279776,-14008,13195.3125,39168,128
-18.16989042,-251934,-11.08235372,-153662,0.174173733,2415,128,-0.970540758,-13457,13197.26563,39232,128
0.87007533,12064,-11.03857589,-153055,0.295265948,4094,128,-0.892288791,-12372,13199.21875,39296,128
-17.72576543,-245776,-11.15317716,-154644,0.147632974,2047,128,-1.048720604,-14541,13201.17188,39360,128
-16.53381128,-229249,-11.16637542,-154827,0.00223577,31,128,-1.099494231,-15245,13203.125,39424,128
-18.28203956,-253489,-11.06526089,-153425,0.166096111,2303,128,-0.969531056,-13443,13205.07813,39488,128
-15.6112314,-216457,-11.1636348,-154789,0.004543663,63,128,-1.044393306,-14481,13207.03125,39552,128
1.149258155,15935,-11.156639,-154692,0.091882955,1274,128,-1.062495835,-14732,13208.98438,39616,128
3.399452972,47135,-11.07766582,-153597,0.147560852,2046,128,-1.00515914,-13937,13210.9375,39680,128
3.027882341,41983,-11.16933241,-154868,0.042551761,590,128,-1.048071509,-14532,13212.89063,39744,128
0.087916265,1219,-11.19904652,-155280,0.003461838,48,128,-1.121202841,-15546,13214.84375,39808,128
0.655441362,9088,-11.11971272,-154180,0.073419818,1018,128,-1.073818931,-14889,13216.79688,39872,128
-18.01720894,-249817,-11.20993688,-155431,0.028199557,391,128,-1.172409197,-16256,13218.75,39936,128
-17.87173961,-247800,-11.25054136,-155994,5.05E-04,7,128,-1.162889142,-16124,13220.70313,40000,128
0.222639468,3087,-11.33932308,-157225,5.77E-04,8,128,-1.212292458,-16809,13222.65625,40064,128
-18.41935914,-255393,-11.32980303,-157093,1.163105507,16127,128,-1.203637863,-16689,13224.60938,40128,128
2.363353653,32769,-11.33023576,-157099,1.177457711,16326,128,-1.222317364,-16948,13226.5625,40192,128
-18.63882525,-258436,-11.28357307,-156452,0.008149744,113,128,-1.174644968,-16287,13228.51563,40256,128
-18.90625225,-262144,-11.2123169,-155464,0.036998396,513,128,-1.129641072,-15663,13230.46875,40320,128
2.97025716,41184,-11.21635571,-155520,0.036782031,510,128,-1.149763006,-15942,13232.42188,40384,128
0.590820383,8192,-11.22537091,-155645,0.003461838,48,128,-1.14110841,-15822,13234.375,40448,128
-18.90524255,-262130,-11.16702451,-154836,0.074068913,1027,128,-1.101513636,-15273,13236.32813,40512,128
0.66683658,9246,-11.13356008,-154372,0.126934067,1760,128,-1.05384124,-14612,13238.28125,40576,128
0.034618382,480,-11.20221987,-155324,0.143233555,1986,128,-1.088026892,-15086,13240.23438,40640,128
-18.86961447,-261636,-11.14380135,-154514,0.002956987,41,128,-1.073386201,-14883,13242.1875,40704,128
-17.75108013,-246127,-11.20604231,-155377,0.258988769,3591,128,-1.153657574,-15996,13244.14063,40768,128
-16.26133576,-225471,-11.3470401,-157332,1.070789822,14847,128,-1.293140804,-17930,13246.09375,40832,128
-16.54210526,-229364,-11.25818625,-156100,1.112043394,15419,128,-1.211138512,-16793,13248.04688,40896,128
-16.54275436,-229373,-11.28018335,-156405,1.172769806,16261,128,-1.230178622,-17057,13250,40960,128
-18.82525966,-261021,-11.29323736,-156586,1.145796316,15887,128,-1.223471311,-16964,13251.95313,41024,128
-16.53821069,-229310,-11.2956895,-156620,1.145652073,15885,128,-1.177241347,-16323,13253.90625,41088,128
0.046085721,639,-11.14812865,-154574,0.004471541,62,128,-1.056293375,-14646,13255.85938,41152,128
0.028848652,400,-11.24751225,-155952,0,0,128,-1.175149819,-16294,13257.8125,41216,128
2.400063562,33278,-11.27347604,-156312,1.144714492,15872,128,-1.201690579,-16662,13259.76563,41280,128
-18.62007363,-258176,-11.23395338,-155764,0.036854152,511,128,-1.1477436,-15914,13261.71875,41344,128
0.006923676,96,-11.22097149,-155584,0.073275575,1016,128,-1.127405301,-15632,13263.67188,41408,128
-18.34081868,-254304,-11.28775612,-156510,1.140315073,15811,128,-1.231909541,-17081,13265.625,41472,128
2.381672547,33023,-11.28696278,-156499,1.179332874,16352,128,-1.229962257,-17054,13267.57813,41536,128
0.003606081,50,-11.10658659,-153998,1.186112307,16446,128,-1.04013813,-14422,13269.53125,41600,128
-17.94645762,-248836,-11.15375413,-154652,2.16E-04,3,128,-1.060909159,-14710,13271.48438,41664,128
0.443115287,6144,-11.35454075,-157436,1.145147222,15878,128,-1.254483611,-17394,13273.4375,41728,128
0.475425777,6592,-11.303695,-156731,1.17471709,16288,128,-1.206739093,-16732,13275.39063,41792,128
-18.89702069,-262016,-11.26871601,-156246,7.21E-05,1,128,-1.170606157,-16231,13277.34375,41856,128
-18.61113055,-258052,-11.35533409,-157447,1.108870042,15375,128,-1.254627854,-17396,13279.29688,41920,128
0.47996944,6655,-11.31819145,-156932,1.181352279,16380,128,-1.251815111,-17357,13281.25,41984,128
-18.68289157,-259047,-11.28162578,-156425,1.145219343,15879,128,-1.201474214,-16659,13283.20313,42048,128
-18.3175234,-253981,-11.28104881,-156417,0.064548858,895,128,-1.181280158,-16379,13285.15625,42112,128
2.917752614,40456,-11.35475711,-157439,1.140098708,15808,128,-1.226356176,-17004,13287.10938,42176,128
-18.31781188,-253985,-11.21058598,-155440,0.012044312,167,128,-1.090046297,-15114,13289.0625,42240,128
-16.53943676,-229327,-11.19608953,-155239,0.145036595,2011,128,-1.100648177,-15261,13291.01563,42304,128
0.138473527,1920,-11.23611703,-155794,0.049475437,686,128,-1.158056993,-16057,13292.96875,42368,128
0.556129879,7711,-11.24578133,-155928,0.010818244,150,128,-1.144498127,-15869,13294.92188,42432,128
0.588440369,8159,-11.11552967,-154122,0.034618382,480,128,-1.016842844,-14099,13296.875,42496,128
0.604739857,8385,-11.21325448,-155477,0.22848132,3168,128,-1.101441515,-15272,13298.82813,42560,128
-18.43032163,-255545,-11.30362288,-156730,7.21E-05,1,128,-1.17695286,-16319,13300.78125,42624,128
0.137391703,1905,-11.2726827,-156301,1.179332874,16352,128,-1.216259148,-16864,13302.73438,42688,128
-18.45448237,-255880,-11.36456565,-157575,1.043095117,14463,128,-1.284630452,-17812,13304.6875,42752,128
-16.15856244,-224046,-11.43661516,-158574,0.900582779,12487,128,-1.370383068,-19001,13306.64063,42816,128
-18.86947022,-261634,-11.34343402,-157282,1.144786614,15873,128,-1.248209029,-17307,13308.59375,42880,128
-18.62000151,-258175,-11.28725127,-156503,2.16E-04,3,128,-1.181135914,-16377,13310.54688,42944,128
0.590820383,8192,-11.22522667,-155643,0,0,128,-1.143055694,-15849,13312.5,43008,128
0.895390021,12415,-11.21750965,-155536,0.017309191,240,128,-1.131732599,-15692,13314.45313,43072,128
-18.90538679,-262132,-11.19724348,-155255,0.036998396,513,128,-1.128775612,-15651,13316.40625,43136,128
0.521511498,7231,-11.26720146,-156225,0.017309191,240,128,-1.164331575,-16144,13318.35938,43200,128
0.440807395,6112,-11.37790816,-157760,1.176448009,16312,128,-1.270350369,-17614,13320.3125,43264,128
-18.40111237,-255140,-11.27924577,-156392,1.112331881,15423,128,-1.185318969,-16435,13322.26563,43328,128
-18.87502359,-261711,-11.17820337,-154991,0.073780426,1023,128,-1.082473526,-15009,13324.21875,43392,128
2.889480935,40064,-11.27845243,-156381,0.004471541,62,128,-1.137862937,-15777,13326.17188,43456,128
-16.02953685,-222257,-11.35720925,-157473,1.176808617,16317,128,-1.258666665,-17452,13328.125,43520,128
0.166384598,2307,-11.22991457,-155708,1.179765604,16358,128,-1.159355183,-16075,13330.07813,43584,128
2.392346548,33171,-11.24643043,-155937,0.069236764,960,128,-1.167937656,-16194,13332.03125,43648,128
-18.75905201,-260103,-11.26914874,-156252,0.036277179,503,128,-1.175943157,-16305,13333.98438,43712,128
-18.38892381,-254971,-11.27333179,-156310,1.153441209,15993,128,-1.200320268,-16643,13335.9375,43776,128
0.259637864,3600,-11.25443593,-156048,1.163177629,16128,128,-1.195488119,-16576,13337.89063,43840,128
-18.3165137,-253967,-11.23590067,-155791,0.032526855,451,128,-1.162961264,-16125,13339.84375,43904,128
-18.75897989,-260102,-11.23409763,-155766,0.057625181,799,128,-1.142478721,-15841,13341.79688,43968,128
2.940759413,40775,-11.2390019,-155834,0.068948277,956,128,-1.131155626,-15684,13343.75,44032,128
2.365300937,32796,-11.21895209,-155556,0.018318894,254,128,-1.111971272,-15418,13345.70313,44096,128
2.945880049,40846,-11.24318495,-155892,0.055389411,768,128,-1.12379922,-15582,13347.65625,44160,128
0.521583619,7232,-11.26590327,-156207,2.88E-04,4,128,-1.144353884,-15867,13349.60938,44224,128
2.377417371,32964,-11.21145144,-155452,0.016443731,228,128,-1.098196041,-15227,13351.5625,44288,128
0.516967835,7168,-11.29020826,-156544,0.001153946,16,128,-1.180198333,-16364,13353.51563,44352,128
0.553894109,7680,-11.26251355,-156160,0.035772328,496,128,-1.145796316,-15887,13355.46875,44416,128
-18.90625225,-262144,-11.22558728,-155648,0.055317289,767,128,-1.129641072,-15663,13357.42188,44480,128
0.290794407,4032,-11.26640812,-156214,0.073564061,1020,128,-1.114928259,-15459,13359.375,44544,128
-18.34889631,-254416,-11.23878553,-155831,0.00223577,31,128,-1.116514935,-15481,13361.32813,44608,128
-18.27590922,-253404,-11.21347084,-155480,0.128160134,1777,128,-1.063649781,-14748,13363.28125,44672,128
-16.39072196,-227265,-11.31357566,-156868,0.005120636,71,128,-1.191521429,-16521,13365.23438,44736,128
2.658619602,36863,-11.27607242,-156348,0.008077622,112,128,-1.162744899,-16122,13367.1875,44800,128
-16.39771776,-227362,-11.24347344,-155896,0.018391015,255,128,-1.124881044,-15597,13369.14063,44864,128
-16.34110228,-226577,-11.33420245,-157154,1.121851936,15555,128,-1.232991366,-17096,13371.09375,44928,128
-18.31983129,-254013,-11.35966138,-157507,1.145219343,15879,128,-1.231188325,-17071,13373.04688,44992,128
-16.46926242,-228354,-11.26806692,-156237,2.16E-04,3,128,-1.128775612,-15651,13375,45056,128
-18.67719396,-258968,-11.27347604,-156312,0.036854152,511,128,-1.147310871,-15908,13376.95313,45120,128
0.51761693,7177,-11.29186705,-156567,1.172553441,16258,128,-1.190728091,-16510,13378.90625,45184,128
0.059716709,828,-11.31350354,-156867,1.174140116,16280,128,-1.208181525,-16752,13380.85938,45248,128
0.294833218,4088,-11.30225257,-156711,0,0,128,-1.168586751,-16203,13382.8125,45312,128
0.295193827,4093,-11.27859667,-156383,0.055389411,768,128,-1.144714492,-15872,13384.76563,45376,128
-16.24994054,-225313,-11.23258307,-155745,0.016660096,231,128,-1.093652379,-15164,13386.71875,45440,128
-18.3431987,-254337,-11.25364259,-156037,0.069741615,967,128,-1.116514935,-15481,13388.67188,45504,128
-18.33742897,-254257,-11.2850155,-156472,0.032238368,447,128,-1.149907249,-15944,13390.625,45568,128
-16.54275436,-229373,-11.29345373,-156589,1.165413399,16159,128,-1.198445105,-16617,13392.57813,45632,128
-18.32466344,-254080,-11.39110641,-157943,1.038479333,14399,128,-1.316291847,-18251,13394.53125,45696,128
0.521511498,7231,-11.27758697,-156369,0.004327298,60,128,-1.172914049,-16263,13396.48438,45760,128
0.900077927,12480,-11.10370172,-153958,1.21856704,16896,128,-0.990951179,-13740,13398.4375,45824,128
-15.97010862,-221433,-11.29446343,-156603,7.21E-05,1,128,-1.173779508,-16275,13400.39063,45888,128
-18.31557611,-253954,-11.27217785,-156294,1.144930857,15875,128,-1.167432805,-16187,13402.34375,45952,128
-18.90581952,-262138,-11.27830819,-156379,0.07262648,1007,128,-1.171687981,-16246,13404.29688,46016,128
-18.75905201,-260103,-11.35908441,-157499,1.181568644,16383,128,-1.220442202,-16922,13406.25,46080,128
-16.3975014,-227359,-11.20524898,-155366,0.066568263,923,128,-1.07201589,-14864,13408.20313,46144,128
-18.01129496,-249735,-11.2196733,-155566,0.080992589,1123,128,-1.117813124,-15499,13410.15625,46208,128
-18.90250193,-262092,-11.23929039,-155838,0.124842539,1731,128,-1.102811826,-15291,13412.10938,46272,128
2.824859956,39168,-11.31775872,-156926,0.001298189,18,128,-1.168514629,-16202,13414.0625,46336,128
0.461289938,6396,-11.35677652,-157467,2.88E-04,4,128,-1.170966765,-16236,13416.01563,46400,128
0.002307892,32,-11.13940193,-154453,1.181640766,16384,128,-1.013164641,-14048,13417.96875,46464,128
-18.8860582,-261864,-11.20056107,-155301,0.073347696,1017,128,-1.055067307,-14629,13419.92188,46528,128
-18.61177964,-258061,-11.25421956,-156045,0.069020399,957,128,-1.11319734,-15435,13421.875,46592,128
0.661788066,9176,-11.17769851,-154984,0.138473527,1920,128,-1.0397054,-14416,13423.82813,46656,128
-18.31925432,-254005,-11.2940307,-156597,0.005697609,79,128,-1.165701886,-16163,13425.78125,46720,128
-16.27987102,-225728,-11.33059637,-157104,1.173202535,16267,128,-1.199382687,-16630,13427.73438,46784,128
0.17713072,2456,-11.34199158,-157262,1.144714492,15872,128,-1.20926335,-16767,13429.6875,46848,128
0.29447261,4083,-11.26922086,-156253,2.88E-04,4,128,-1.139810221,-15804,13431.64063,46912,128
0.563197799,7809,-11.25320986,-156031,0.008654595,120,128,-1.098917258,-15237,13433.59375,46976,128
-18.83218334,-261117,-11.2747021,-156329,0.004687906,65,128,-1.139593856,-15801,13435.54688,47040,128
-18.30648879,-253828,-11.20943203,-155424,0.083733211,1161,128,-1.097907555,-15223,13437.5,47104,128
0.145974177,2024,-11.24808922,-155960,0.007500649,104,128,-1.102451217,-15286,13439.45313,47168,128
0.293102299,4064,-11.36283474,-157551,1.18048682,16368,128,-1.225851324,-16997,13441.40625,47232,128
-18.38474076,-254913,-11.25155106,-156008,0.018391015,255,128,-1.125890747,-15611,13443.35938,47296,128
-18.31781188,-253985,-11.35446863,-157435,0.034834747,483,128,-1.229168919,-17043,13445.3125,47360,128
-16.53381128,-229249,-11.35627167,-157460,1.052182442,14589,128,-1.18358805,-16411,13447.26563,47424,128
0.572357246,7936,-11.29511253,-156612,0.003461838,48,128,-1.111682786,-15414,13449.21875,47488,128
-18.90221344,-262088,-11.27874092,-156385,1.178106806,16335,128,-1.121419206,-15549,13451.17188,47552,128
-16.48541766,-228578,-11.18202581,-155044,1.189934753,16499,128,-1.063721903,-14749,13453.125,47616,128
0.27896646,3868,-11.24253586,-155883,0.070246466,974,128,-1.110384597,-15396,13455.07813,47680,128
0.221774008,3075,-11.28458277,-156466,0.053225762,738,128,-1.13533868,-15742,13457.03125,47744,128
-18.61091418,-258049,-11.22969821,-155705,0.017381313,241,128,-1.098196041,-15227,13458.98438,47808,128
0.163788219,2271,-11.30196408,-156707,0.004038811,56,128,-1.141829627,-15832,13460.9375,47872,128
1.163249751,16129,-11.1303146,-154327,1.227798608,17024,128,-0.987056611,-13686,13462.89063,47936,128
0.295121705,4092,-11.24289647,-155888,0.004038811,56,128,-1.094445717,-15175,13464.84375,48000,128
2.434681944,33758,-11.46402138,-158954,1.177601955,16328,128,-1.313551225,-18213,13466.79688,48064,128
-16.08146442,-222977,-11.34278492,-157273,5.05E-04,7,128,-1.180558941,-16369,13468.75,48128,128
0.589666437,8176,-11.23236671,-155742,0.110778822,1536,128,-1.066101917,-14782,13470.70313,48192,128
2.592988919,35953,-11.34898738,-157359,1.178323171,16338,128,-1.203421498,-16686,13472.65625,48256,128
-18.62000151,-258175,-11.23287156,-155749,0.1107067,1535,128,-1.073602566,-14886,13474.60938,48320,128
0.003245473,45,-11.2223418,-155603,0.006923676,96,128,-1.11009611,-15392,13476.5625,48384,128
0.001081824,15,-11.22457757,-155634,0.092027198,1276,128,-1.095599663,-15191,13478.51563,48448,128
-16.53849918,-229314,-11.38757245,-157894,1.181568644,16383,128,-1.251093894,-17347,13480.46875,48512,128
0.020482543,284,-11.21195629,-155459,1.151638168,15968,128,-1.042085414,-14449,13482.42188,48576,128
-18.24648359,-252996,-11.21772602,-155539,0.290866529,4033,128,-1.063000687,-14739,13484.375,48640,128
2.621693328,36351,-11.2330158,-155751,0.004615784,64,128,-1.112620367,-15427,13486.32813,48704,128
-18.35062723,-254440,-11.29143432,-156561,0.007428528,103,128,-1.136348383,-15756,13488.28125,48768,128
2.888831841,40055,-11.26316264,-156169,0.073564061,1020,128,-1.126828328,-15624,13490.23438,48832,128
-18.89759766,-262024,-11.18094399,-155029,0.147632974,2047,128,-1.046052104,-14504,13492.1875,48896,128
-16.5428986,-229375,-11.1966665,-155247,0.13061227,1811,128,-1.046124225,-14505,13494.14063,48960,128
-18.64322467,-258497,-11.25897959,-156111,0.072770723,1009,128,-1.118101611,-15503,13496.09375,49024,128
0.036998396,513,-11.32908181,-157083,1.15394606,16000,128,-1.208181525,-16752,13498.04688,49088,128
0.887889372,12311,-11.21484115,-155499,0.078324089,1086,128,-1.08485354,-15042,13500,49152,128
0.590099167,8182,-11.27030269,-156268,0.14655115,2032,128,-1.100503933,-15259,13501.95313,49216,128
0.003461838,48,-11.21274963,-155470,0.082507143,1144,128,-1.091560852,-15135,13503.90625,49280,128
2.926335088,40575,-11.29381434,-156594,0.003461838,48,128,-1.173563143,-16272,13505.85938,49344,128
2.917680492,40455,-11.29662708,-156633,0.004615784,64,128,-1.174861333,-16290,13507.8125,49408,128
-16.54275436,-229373,-11.21361509,-155482,0.083011995,1151,128,-1.098700893,-15234,13509.76563,49472,128
-16.24763265,-225281,-11.23965099,-155843,0.013919474,193,128,-1.0937245,-15165,13511.71875,49536,128
-18.64892228,-258576,-11.26590327,-156207,0.036854152,511,128,-1.110168232,-15393,13513.67188,49600,128
-16.53662402,-229288,-11.18289127,-155056,0.238938956,3313,128,-1.005014897,-13935,13515.625,49664,128
1.042085414,14449,-11.17358758,-154927,0.258483918,3584,128,-0.995494842,-13803,13517.57813,49728,128
0.7359291,10204,-11.10377384,-153959,0.294256245,4080,128,-0.916954388,-12714,13519.53125,49792,128
-16.5412398,-229352,-11.25616685,-156072,0.164076705,2275,128,-1.073746809,-14888,13521.48438,49856,128
-18.31773976,-253984,-11.19017556,-155157,0.152248758,2111,128,-1.008188249,-13979,13523.4375,49920,128
-17.72576543,-245776,-11.16817846,-154852,0.151960272,2107,128,-0.985614179,-13666,13525.39063,49984,128
-17.74127158,-245991,-11.18418946,-155074,0.258411796,3583,128,-0.963256474,-13356,13527.34375,50048,128
2.507452668,34767,-11.22796729,-155681,0.155782718,2160,128,-1.01886225,-14127,13529.29688,50112,128
-16.54275436,-229373,-11.22169271,-155594,2.16E-04,3,128,-1.058889754,-14682,13531.25,50176,128
0.572429368,7937,-11.23878553,-155831,0.018463137,256,128,-1.044970279,-14489,13533.20313,50240,128
-18.2741783,-253380,-11.1859925,-155099,0.193790817,2687,128,-0.987849949,-13697,13535.15625,50304,128
-18.38704865,-254945,-11.29287676,-156581,0.082002292,1137,128,-1.102811826,-15291,13537.10938,50368,128
1.181496523,16382,-11.15303292,-154642,0.253868133,3520,128,-1.000182748,-13868,13539.0625,50432,128
-18.31773976,-253984,-11.2463583,-155936,0.147632974,2047,128,-1.083483229,-15023,13541.01563,50496,128
-18.61228449,-258068,-11.22962609,-155704,0.018391015,255,128,-1.089685689,-15109,13542.96875,50560,128
-18.16801526,-251908,-11.13788738,-154432,0.295049583,4091,128,-0.999750018,-13862,13544.92188,50624,128
-17.74769041,-246080,-11.10067261,-153916,0.260719688,3615,128,-0.921065321,-12771,13546.875,50688,128
-16.5418889,-229361,-11.18079974,-155027,0.217158224,3011,128,-0.976310489,-13537,13548.82813,50752,128
1.144786614,15873,-11.14704682,-154559,0.230212239,3192,128,-0.94270181,-13071,13550.78125,50816,128
0.663518985,9200,-11.09973503,-153903,0.588512491,8160,128,-0.851251584,-11803,13552.73438,50880,128
-15.65508135,-217065,-11.14791228,-154571,0.222350982,3083,128,-0.939672701,-13029,13554.6875,50944,128
0.595291924,8254,-11.156639,-154692,0.230212239,3192,128,-0.95424127,-13231,13556.64063,51008,128
-18.62656458,-258266,-11.2593402,-156116,0.124265566,1723,128,-1.057952173,-14669,13558.59375,51072,128
-18.30057482,-253746,-11.215346,-155506,0.156431813,2169,128,-1.009053708,-13991,13560.54688,51136,128
-18.31550399,-253953,-11.25378683,-156039,0.139555352,1935,128,-1.071294674,-14854,13562.5,51200,128
-16.54095132,-229348,-11.20236411,-155326,0.018391015,255,128,-1.034152035,-14339,13564.45313,51264,128
-18.89009701,-261920,-11.21390357,-155486,0.036854152,511,128,-1.0343684,-14342,13566.40625,51328,128
2.950640076,40912,-11.22890487,-155694,0.017886164,248,128,-1.075333485,-14910,13568.35938,51392,128
-16.5418889,-229361,-11.19695499,-155251,0.018391015,255,128,-1.074035296,-14892,13570.3125,51456,128
-17.75461409,-246176,-11.14452256,-154524,0.222062495,3079,128,-1.032348994,-14314,13572.26563,51520,128
0.733837573,10175,-11.13925769,-154451,0.129241959,1792,128,-1.044032698,-14476,13574.21875,51584,128
1.1760874,16307,-11.15699961,-154697,0.073708305,1022,128,-1.040282373,-14424,13576.17188,51648,128
0.005481244,76,-11.04470623,-153140,1.209623958,16772,128,-0.895101535,-12411,13578.125,51712,128
-18.29494933,-253668,-11.16846695,-154856,0.027622584,383,128,-1.043744212,-14472,13580.07813,51776,128
0.961164947,13327,-11.15101351,-154614,0.165014287,2288,128,-1.000038505,-13866,13582.03125,51840,128
2.506370843,34752,-11.24729589,-155949,0.073852548,1024,128,-1.100648177,-15261,13583.98438,51904,128
-16.45094352,-228100,-11.28155366,-156424,0.076088318,1055,128,-1.106129421,-15337,13585.9375,51968,128
2.377128884,32960,-11.37653784,-157741,0,0,128,-1.177890441,-16332,13587.89063,52032,128
-15.95222246,-221185,-11.24527648,-155921,0.018679502,259,128,-1.046989685,-14517,13589.84375,52096,128
-18.75897989,-260102,-11.25371471,-156038,0.147632974,2047,128,-1.049225455,-14548,13591.79688,52160,128
-18.35235814,-254464,-11.33117334,-157112,0.022429827,311,128,-1.160509129,-16091,13593.75,52224,128
0.632290319,8767,-11.17950155,-155009,0.256608755,3558,128,-0.998307586,-13842,13595.70313,52288,128
0.004543663,63,-11.14726319,-154562,0.294400489,4082,128,-0.976959583,-13546,13597.65625,52352,128
0.147416609,2044,-11.22926548,-155699,0.065486439,908,128,-1.039921765,-14419,13599.60938,52416,128
7.21E-05,1,-11.15187897,-154626,0.163716097,2270,128,-0.958568568,-13291,13601.5625,52480,128
-18.89709281,-262017,-11.20258048,-155329,0.238506226,3307,128,-1.002202153,-13896,13603.51563,52544,128
0.553821987,7679,-11.26265779,-156162,0.138762014,1924,128,-1.058457024,-14676,13605.46875,52608,128
-16.39533775,-227329,-11.25796989,-156097,0.145469325,2017,128,-1.091272365,-15131,13607.42188,52672,128
2.954606766,40967,-11.21585086,-155513,0.149436015,2072,128,-1.025281075,-14216,13609.375,52736,128
2.363281532,32768,-11.20712414,-155392,0.148137826,2054,128,-1.011577965,-14026,13611.32813,52800,128
0.147849339,2050,-11.3523771,-157406,0.029425625,408,128,-1.152070898,-15974,13613.28125,52864,128
0.023583773,327,-11.42298417,-158385,1.126251355,15616,128,-1.237030177,-17152,13615.23438,52928,128
0.157153029,2179,-11.30499319,-156749,0.008077622,112,128,-1.130867139,-15680,13617.1875,52992,128
-18.64726348,-258553,-11.25284925,-156026,0.035988693,499,128,-1.077569256,-14941,13619.14063,53056,128
0.554975933,7695,-11.25955656,-156119,0.064476736,894,128,-1.118173733,-15504,13621.09375,53120,128
0.039162044,543,-11.4084156,-158183,1.144714492,15872,128,-1.213230039,-16822,13623.04688,53184,128
-18.90625225,-262144,-11.36521475,-157584,0.018102529,251,128,-1.170461913,-16229,13625,53248,128
2.954029793,40959,-11.23957887,-155842,0.140204446,1944,128,-1.042013293,-14448,13626.95313,53312,128
-16.4668824,-228321,-11.29121796,-156558,0.032815341,455,128,-1.079155931,-14963,13628.90625,53376,128
0.901159752,12495,-11.17265,-154914,1.198949957,16624,128,-0.963328596,-13357,13630.85938,53440,128
0.600556803,8327,-11.19753196,-155259,0.258916647,3590,128,-0.993259072,-13772,13632.8125,53504,128
-18.37312917,-254752,-11.26619175,-156211,0.002091527,29,128,-1.073963174,-14891,13634.76563,53568,128
0.267571243,3710,-11.25357047,-156036,0.018463137,256,128,-1.087666284,-15081,13636.71875,53632,128
0.59024341,8184,-11.30210832,-156709,0.009087325,126,128,-1.139665978,-15802,13638.67188,53696,128
0.29757384,4126,-11.48298937,-159217,1.069707998,14832,128,-1.286866222,-17843,13640.625,53760,128
0.006923676,96,-11.32929818,-157086,0.042551761,590,128,-1.13000168,-15668,13642.57813,53824,128
-18.7770103,-260352,-11.38865428,-157909,1.180991671,16375,128,-1.201979065,-16666,13644.53125,53888,128
-16.42988401,-227808,-11.25537351,-156061,0.120082512,1665,128,-1.095888149,-15195,13646.48438,53952,128
-16.39533775,-227329,-11.42197447,-158371,1.146950262,15903,128,-1.216980364,-16874,13648.4375,54016,128
0.572285124,7935,-11.39644341,-158017,1.181496523,16382,128,-1.182938955,-16402,13650.39063,54080,128
-16.02513743,-222196,-11.28818885,-156516,0.077819237,1079,128,-1.103821528,-15305,13652.34375,54144,128
0.572501489,7938,-11.2433292,-155894,0.03894568,540,128,-1.129424707,-15660,13654.29688,54208,128
-18.86947022,-261634,-11.19269981,-155192,1.199454808,16631,128,-1.089974176,-15113,13656.25,54272,128
-18.90401648,-262113,-11.07665611,-153583,1.292635953,17923,128,-1.05650974,-14649,13658.20313,54336,128
2.363281532,32768,-10.9115697,-151294,1.467963632,20354,128,-0.920704713,-12766,13660.15625,54400,128
-17.72951576,-245828,-10.71467766,-148564,1.522848192,21115,128,-0.757926197,-10509,13662.10938,54464,128
-17.7303091,-245839,-10.64969607,-147663,1.643435555,22787,128,-0.715230193,-9917,13664.0625,54528,128
-16.55112047,-229489,-10.56935258,-146549,1.76719627,24503,128,-0.596085262,-8265,13666.01563,54592,128
-15.34301106,-212738,-10.45085674,-144906,2.290799295,31763,128,-0.339260142,-4704,13667.96875,54656,128
-15.17439069,-210400,-10.44782763,-144864,2.354122085,32641,128,-0.276153717,-3829,13669.92188,54720,128
-15.17439069,-210400,-10.59264786,-146872,2.354122085,32641,128,-0.26302758,-3647,13671.875,54784,128
-15.98799479,-221681,-10.70212849,-148390,1.141180532,15823,128,-0.265623959,-3683,13673.82813,54848,128
-15.98799479,-221681,-10.81709037,-149984,1.141180532,15823,128,-0.274206433,-3802,13675.78125,54912,128
0.147777217,2049,-11.0222764,-152829,0.85016976,11788,128,-0.331471006,-4596,13677.73438,54976,128
0.682559095,9464,-11.2426801,-155885,0.745737642,10340,128,-0.464968141,-6447,13679.6875,55040,128
0.682559095,9464,-11.24138191,-155867,0.745737642,10340,128,-0.435831003,-6043,13681.64063,55104,128
-18.3298562,-254152,-11.27809182,-156376,0.595652532,8259,128,-0.474920925,-6585,13683.59375,55168,128
0.589161585,8169,-11.22955397,-155703,0.720927801,9996,128,-0.497927725,-6904,13685.54688,55232,128
2.438792877,33815,-11.28624157,-156489,0.281274352,3900,128,-0.623924211,-8651,13687.5,55296,128
2.884216056,39991,-11.29547313,-156617,0.291082894,4036,128,-0.710542287,-9852,13689.45313,55360,128
0.948543662,13152,-11.18116035,-155032,0.588224004,8156,128,-0.686525784,-9519,13691.40625,55424,128
-16.54066283,-229344,-11.31941751,-156949,0.295915043,4103,128,-0.877143249,-12162,13693.35938,55488,128
-18.887717,-261887,-11.28061608,-156411,0.304281152,4219,128,-0.868200167,-12038,13695.3125,55552,128
-18.34889631,-254416,-11.29590586,-156623,0.120515242,1671,128,-0.910607685,-12626,13697.26563,55616,128
-18.61552997,-258113,-11.26727358,-156226,0.131333486,1821,128,-0.902890671,-12519,13699.21875,55680,128
-16.25217631,-225344,-11.2850155,-156472,0.128015891,1775,128,-0.947966689,-13144,13701.17188,55744,128
1.366200014,18943,-11.2850155,-156472,0,0,128,-0.947966689,-13144,13703.125,55808,128
2.36320941,32767,4.722524252,65480,0,0,25,-147.7050957,-2048000,13705.07813,55872,128
-300.4137737,-4165377,-268.2695965,-3719683,0.018391015,255,18,0.018391015,255,13707.03125,55936,128
5.05E-04,7,-268.2695965,-3719683,0,0,18,0.018391015,255,13708.98438,56000,128
4.721947279,65472,4.722668495,65482,0,0,27,-459.6582579,-6373376,13710.9375,56064,159
3.544922298,49152,4.722668495,65482,0,0,27,-459.6582579,-6373376,13712.89063,56128,128
5.05E-04,7,-447.5510559,-6205504,4.33E-04,6,0,-247.6647356,-3433987,13714.84375,56192,0
0,0,-11.18555977,-155093,1.181568644,16383,128,-0.97018015,-13452,13716.79688,56256,0
0,0,-302.5000361,-4194304,1.1424066,15840,159,-11.24924317,-155976,13718.75,56320,0
0.013847353,192,-302.5000361,-4194304,0.571780273,7928,159,-11.24924317,-155976,13720.70313,56384,159
-18.90221344,-262088,-11.23856917,-155828,0.217013981,3009,128,-0.991600274,-13749,13722.65625,56448,128
-18.6293052,-258304,-11.31343142,-156866,0.018391015,255,128,-1.027516845,-14247,13724.60938,56512,128
0.147705096,2048,-11.32367269,-157008,0.11424066,1584,128,-1.083915959,-15029,13726.5625,56576,128
2.94458186,40828,-11.18253066,-155051,0.254300863,3526,128,-0.919983497,-12756,13728.51563,56640,128
-17.85839711,-247615,-11.25991717,-156124,0.286250745,3969,128,-0.981935976,-13615,13730.46875,56704,128
0.277451906,3847,-11.19190648,-155181,0.28603438,3966,128,-0.923950186,-12811,13732.42188,56768,128
-18.31478278,-253943,-11.3100417,-156819,0.06108702,847,128,-1.066174038,-14783,13734.375,56832,128
-18.38481288,-254914,-11.33261577,-157132,0.12974681,1799,128,-1.077569256,-14941,13736.32813,56896,128
-18.6806558,-259016,-11.22053876,-155578,0.120515242,1671,128,-1.014390709,-14065,13738.28125,56960,128
-18.31088821,-253889,-11.2550129,-156056,0.201002979,2787,128,-1.036171441,-14367,13740.23438,57024,128
0.29533807,4095,-11.3470401,-157332,0.110923065,1538,128,-1.143199938,-15851,13742.1875,57088,128
0.258195431,3580,-11.1859925,-155099,0.124626175,1728,128,-0.979844449,-13586,13744.14063,57152,128
-17.85414193,-247556,-11.1539705,-154655,0.281490717,3903,128,-0.91969501,-12752,13746.09375,57216,128
2.954246158,40962,-11.24304071,-155890,0.188670181,2616,128,-0.987777828,-13696,13748.04688,57280,128
-18.68289157,-259047,-11.2540032,-156042,0.152825731,2119,128,-0.988571166,-13707,13750,57344,128
0.579497287,8035,-11.16882755,-154861,0.256176025,3552,128,-0.942773931,-13072,13751.95313,57408,128
0.07839621,1087,-11.27131239,-156282,0.230933455,3202,128,-1.035522346,-14358,13753.90625,57472,128
0.017886164,248,-11.4700796,-159038,0.003894568,54,128,-1.208181525,-16752,13755.85938,57536,128
0.521439376,7230,-11.42435448,-158404,0.036349301,504,128,-1.154450912,-16007,13757.8125,57600,128
-18.72385665,-259615,-11.34321765,-157279,0.143161433,1985,128,-1.096320879,-15201,13759.76563,57664,128
0.461578424,6400,-11.27340392,-156311,0.071544656,992,128,-1.029103521,-14269,13761.71875,57728,128
0.586132477,8127,-11.19868591,-155275,0.292525326,4056,128,-0.935489647,-12971,13763.67188,57792,128
-18.83961187,-261220,-11.16882755,-154861,0.29490534,4089,128,-0.957054014,-13270,13765.625,57856,128
-16.26148,-225473,-11.30477682,-156746,9.38E-04,13,128,-1.081175337,-14991,13767.57813,57920,128
-18.38070194,-254857,-11.24556497,-155925,0.045076018,625,128,-1.002130032,-13895,13769.53125,57984,128
0.608995033,8444,-11.19601741,-155238,0.225596455,3128,128,-0.927844754,-12865,13771.48438,58048,128
-17.85392557,-247553,-11.20474412,-155359,0.291299259,4039,128,-0.941547864,-13055,13773.4375,58112,128
0.554975933,7695,-11.28941492,-156533,0.064620979,896,128,-1.0316999,-14305,13775.39063,58176,128
0.027334097,379,-11.1709912,-154891,0.284303461,3942,128,-0.934407822,-12956,13777.34375,58240,128
0.904910076,12547,-11.20806172,-155405,0.294256245,4080,128,-0.988859652,-13711,13779.29688,58304,128
0.598825884,8303,-11.09389318,-153822,1.181929252,16388,128,-0.820527771,-11377,13781.25,58368,128
1.029319886,14272,-11.14351286,-154510,0.516967835,7168,128,-0.885509358,-12278,13783.20313,58432,128
-18.27864984,-253442,-11.18296339,-155057,0.286106501,3967,128,-0.900005805,-12479,13785.15625,58496,128
2.952731604,40941,-11.22097149,-155584,0.151166934,2096,128,-0.957703109,-13279,13787.10938,58560,128
-16.54167253,-229358,-11.22681334,-155665,0.179366491,2487,128,-0.975589272,-13527,13789.0625,58624,128
0.608995033,8444,-11.13752677,-154427,0.287332569,3984,128,-0.913348307,-12664,13791.01563,58688,128
0.733981816,10177,-11.14365711,-154512,0.294256245,4080,128,-0.920993199,-12770,13792.96875,58752,128
1.179332874,16352,-11.23453036,-155772,0.222423103,3084,128,-0.970468637,-13456,13794.92188,58816,128
0.528290931,7325,-11.28580884,-156483,0.036782031,510,128,-0.997730612,-13834,13796.875,58880,128
1.034007792,14337,-11.19291618,-155195,0.516967835,7168,128,-0.886230574,-12288,13798.82813,58944,128
-18.30973426,-253873,-11.22695759,-155667,0.294761097,4087,128,-0.949913973,-13171,13800.78125,59008,128
-18.31680218,-253971,-11.19825318,-155269,0.260719688,3615,128,-0.914069523,-12674,13802.73438,59072,128
2.377056763,32959,-11.1062981,-153994,0.586204599,8128,128,-0.853631598,-11836,13804.6875,59136,128
1.01489556,14072,-11.18822827,-155130,0.459414775,6370,128,-0.917891969,-12727,13806.64063,59200,128
-16.00306821,-221890,-11.3747348,-157716,0.036854152,511,128,-1.089397203,-15105,13808.59375,59264,128
0.018391015,255,-11.31775872,-156926,0.009087325,126,128,-1.047855144,-14529,13810.54688,59328,128
-16.39533775,-227329,-11.18036701,-155021,0.277019176,3841,128,-0.933758728,-12947,13812.5,59392,128
3.255858809,45144,-11.27426938,-156323,0.149868745,2078,128,-1.046412712,-14509,13814.45313,59456,128
2.373162195,32905,-11.12880005,-154306,0.286178623,3968,128,-0.931090227,-12910,13816.40625,59520,128
0.10847093,1504,-11.19760408,-155260,0.290505921,4028,128,-0.97018015,-13452,13818.35938,59584,128
0.890557872,12348,-11.24030009,-155852,0.276947054,3840,128,-0.983306287,-13634,13820.3125,59648,128
-16.39641957,-227344,-11.37307601,-157693,0.045220261,627,128,-1.128054396,-15641,13822.26563,59712,128
-18.90517043,-262129,-11.11740483,-154148,1.181857131,16387,128,-0.851107341,-11801,13824.21875,59776,128
2.379869506,32998,-11.08913315,-153756,1.183804415,16414,128,-0.838341813,-11624,13826.17188,59840,128
4.20613339,58320,-11.20892718,-155417,0.276947054,3840,128,-0.947966689,-13144,13828.125,59904,128
2.42609947,33639,-11.09144105,-153788,0.294256245,4080,128,-0.865531667,-12001,13830.07813,59968,128
-16.4668824,-228321,-10.94582748,-151769,1.311387576,18183,128,-0.722802964,-10022,13832.03125,60032,128
2.542215293,35249,-11.04766322,-153181,0.586493085,8132,128,-0.796511268,-11044,13833.98438,60096,128
-18.76085505,-260128,-11.11675574,-154139,1.199887538,16637,128,-0.849520665,-11779,13835.9375,60160,128
0.88601421,12285,-11.03540254,-153011,0.549422568,7618,128,-0.778480861,-10794,13837.89063,60224,128
0.588224004,8156,-11.22811153,-155683,0.018318894,254,128,-0.942918175,-13074,13839.84375,60288,128
-18.31550399,-253953,-11.28133729,-156421,0.072049507,999,128,-0.985109327,-13659,13841.79688,60352,128
1.176808617,16317,-11.08682526,-153724,0.572357246,7936,128,-0.814036824,-11287,13843.75,60416,128
2.956409807,40992,-11.20221987,-155324,0.295698678,4100,128,-0.93520116,-12967,13845.70313,60480,128
-15.89452516,-220385,-11.19904652,-155280,0.22581282,3131,128,-0.983739017,-13640,13847.65625,60544,128
-18.83463548,-261151,-11.2806882,-156412,0.018391015,255,128,-1.006890059,-13961,13849.60938,60608,128
2.954029793,40959,-11.19839742,-155271,0.161552448,2240,128,-0.922579875,-12792,13851.5625,60672,128
2.49252349,34560,-11.15260019,-154636,0.290217434,4024,128,-0.916233172,-12704,13853.51563,60736,128
2.474060354,34304,-11.11913575,-154172,0.278677974,3864,128,-0.852189166,-11816,13855.46875,60800,128
-17.93174481,-248632,-11.08372403,-153681,0.526127282,7295,128,-0.815046527,-11301,13857.42188,60864,128
0.018318894,254,-11.14235892,-154494,0.512352051,7104,128,-0.832572083,-11544,13859.375,60928,128
-17.87347053,-247824,-11.10875024,-154028,0.517039957,7169,128,-0.791606997,-10976,13861.32813,60992,128
-18.28961233,-253594,-11.11466421,-154110,0.556129879,7711,128,-0.837259988,-11609,13863.28125,61056,128
2.954462523,40965,-11.0989417,-153892,0.521295133,7228,128,-0.859401328,-11916,13865.23438,61120,128
-16.51513177,-228990,-11.09778775,-153876,0.533339445,7395,128,-0.83776484,-11616,13867.1875,61184,128
-14.32789914,-198663,-11.14733531,-154563,0.44765895,6207,128,-0.873897776,-12117,13869.14063,61248,128
1.137718694,15775,-10.96566093,-152044,1.199671173,16634,128,-0.686742149,-9522,13871.09375,61312,128
2.690930091,37311,-10.86122881,-150596,1.301506913,18046,128,-0.620967224,-8610,13873.04688,61376,128
-18.76539871,-260191,-10.95549178,-151903,0.585555504,8119,128,-0.671163877,-9306,13875,61440,128
-18.01865137,-249837,-11.14084436,-154473,0.358949346,4977,128,-0.822691419,-11407,13876.95313,61504,128
0.58670945,8135,-11.22868851,-155691,0.14655115,2032,128,-0.90685736,-12574,13878.90625,61568,128
-18.79605041,-260616,-11.02306974,-152840,0.53535885,7423,128,-0.686309419,-9516,13880.85938,61632,128
2.400135684,33279,-11.06482817,-153419,0.516823592,7166,128,-0.715951409,-9927,13882.8125,61696,128
0.86877714,12046,-10.99869263,-152502,0.58981068,8178,128,-0.66907235,-9277,13884.76563,61760,128
-18.09387423,-250880,-11.08523859,-153702,0.588584612,8161,128,-0.741338222,-10279,13886.71875,61824,128
0.625438765,8672,-11.05336083,-153260,0.443115287,6144,128,-0.734053938,-10178,13888.67188,61888,128
2.970473524,41187,-11.05134142,-153232,0.586204599,8128,128,-0.767229887,-10638,13890.625,61952,128
-17.72482785,-245763,-11.10759629,-154012,0.520501795,7217,128,-0.750137061,-10401,13892.57813,62016,128
3.184314154,44152,-11.02306974,-152840,0.521006646,7224,128,-0.675130567,-9361,13894.53125,62080,128
2.49252349,34560,-10.97503674,-152174,0.583896707,8096,128,-0.611663534,-8481,13896.48438,62144,128
-18.17688622,-252031,-11.01347757,-152707,0.53535885,7423,128,-0.678736648,-9411,13898.4375,62208,128
-17.86863838,-247757,-11.13024248,-154326,0.572429368,7937,128,-0.790020322,-10954,13900.39063,62272,128
-17.93953394,-248740,-11.09367682,-153819,0.442754679,6139,128,-0.74566552,-10339,13902.34375,62336,128
-18.05226005,-250303,-10.94388019,-151742,1.181712887,16385,128,-0.57964153,-8037,13904.29688,62400,128
-17.74220917,-246004,-11.13002612,-154323,0.517472686,7175,128,-0.763335319,-10584,13906.25,62464,128
-15.80458949,-219138,-10.98448467,-152305,0.590748261,8191,128,-0.624068454,-8653,13908.20313,62528,128
-17.78930459,-246657,-10.99919748,-152509,0.574160287,7961,128,-0.625943616,-8679,13910.15625,62592,128
0.734414546,10183,-10.98513377,-152314,0.572213003,7934,128,-0.61635144,-8546,13912.10938,62656,128
-18.89709281,-262017,-11.18180945,-155041,0.324186721,4495,128,-0.827523569,-11474,13914.0625,62720,128
0.145108717,2012,-11.22868851,-155691,0.311421193,4318,128,-0.852189166,-11816,13916.01563,62784,128
0.069164642,959,-11.16572632,-154818,0.366810604,5086,128,-0.815262892,-11304,13917.96875,62848,128
0.009087325,126,-11.20726838,-155394,0.461289938,6396,128,-0.870291694,-12067,13919.92188,62912,128
-18.17169346,-251959,-11.1426474,-154498,0.475497899,6593,128,-0.808771945,-11214,13921.875,62976,128
2.363570018,32772,-11.13911344,-154449,0.475714263,6596,128,-0.796294903,-11041,13923.82813,63040,128
0.073708305,1022,-11.06179906,-153377,0.572357246,7936,128,-0.725543585,-10060,13925.78125,63104,128
-18.76352355,-260165,-11.16507723,-154809,0.443187409,6145,128,-0.801776147,-11117,13927.73438,63168,128
-14.79834852,-205186,-11.24506012,-155918,0.073347696,1017,128,-0.929647795,-12890,13929.6875,63232,128
-17.76261959,-246287,-11.14762379,-154567,0.454726869,6305,128,-0.826297501,-11457,13931.64063,63296,128
-17.93636059,-248696,-11.14625348,-154548,0.571131178,7919,128,-0.804805256,-11159,13933.59375,63360,128
2.380590723,33008,-11.12375154,-154236,0.576828787,7998,128,-0.767878982,-10647,13935.54688,63424,128
-16.53446037,-229258,-11.14033951,-154466,0.582093666,8071,128,-0.809781648,-11228,13937.5,63488,128
-18.76893267,-260240,-11.15137412,-154619,0.556129879,7711,128,-0.800838566,-11104,13939.45313,63552,128
2.392923521,33179,-11.22493818,-155639,0.313873328,4352,128,-0.913348307,-12664,13941.40625,63616,128
0.589594315,8175,-11.33672671,-157189,0.018318894,254,128,-0.982873557,-13628,13943.35938,63680,128
0.286611353,3974,-11.21642783,-155521,0.225163725,3122,128,-0.885220872,-12274,13945.3125,63744,128
-17.86532079,-247711,-11.23539582,-155784,0.44765895,6207,128,-0.916738023,-12711,13947.26563,63808,128
2.397972035,33249,-11.24383405,-155901,0.130107418,1804,128,-0.919045915,-12743,13949.21875,63872,128
-18.31139306,-253896,-11.22140422,-155590,0.276874933,3839,128,-0.912266482,-12649,13951.17188,63936,128
0.594426464,8242,-11.18938222,-155146,0.443115287,6144,128,-0.867118343,-12023,13953.125,64000,128
-17.78230879,-246560,-11.20885506,-155416,0.293607151,4071,128,-0.90375613,-12531,13955.07813,64064,128
0.001081824,15,-11.22486606,-155638,0.443115287,6144,128,-0.883417831,-12249,13957.03125,64128,128
0.027117732,376,-11.16486086,-154806,0.589666437,8176,128,-0.831850866,-11534,13958.98438,64192,128
2.474276718,34307,-11.15245594,-154634,0.549278325,7616,128,-0.840289097,-11651,13960.9375,64256,128
-16.47402244,-228420,-11.15909113,-154726,0.515164794,7143,128,-0.835529069,-11585,13962.89063,64320,128
0.605461074,8395,-11.1356516,-154401,0.535142486,7420,128,-0.831634501,-11531,13964.84375,64384,128
-17.73384306,-245888,-11.1293049,-154313,0.577766368,8011,128,-0.850386125,-11791,13966.79688,64448,128
2.965352889,41116,-11.23373702,-155761,0.278677974,3864,128,-0.896255481,-12427,13968.75,64512,128
2.891211854,40088,-11.22984245,-155707,0.143089311,1984,128,-0.885653601,-12280,13970.70313,64576,128
-18.01086223,-249729,-11.16926028,-154867,0.445351058,6175,128,-0.863151653,-11968,13972.65625,64640,128
-16.52631063,-229145,-11.16024508,-154742,0.553821987,7679,128,-0.848655206,-11767,13974.60938,64704,128
0.581588814,8064,-11.26208082,-156154,0.142800825,1980,128,-0.920199862,-12759,13976.5625,64768,128
0.590820383,8192,-11.21101871,-155446,0.452058369,6268,128,-0.871157154,-12079,13978.51563,64832,128
-18.31435005,-253937,-11.2089993,-155418,0.451986248,6267,128,-0.872166857,-12093,13980.46875,64896,128
-16.39649169,-227345,-11.20128229,-155311,0.258700282,3587,128,-0.88248025,-12236,13982.42188,64960,128
0.605893803,8401,-11.13319947,-154367,0.555913515,7708,128,-0.842092138,-11676,13984.375,65024,128
0.608129574,8432,-11.1159624,-154128,0.590531896,8188,128,-0.814974405,-11300,13986.32813,65088,128
-15.50038046,-214920,-11.21750965,-155536,0.461073573,6393,128,-0.87274383,-12101,13988.28125,65152,128
2.363786383,32775,-11.18656947,-155107,0.57697303,8000,128,-0.825504163,-11446,13990.23438,65216,128
1.052326685,14591,-11.1523117,-154632,0.533267323,7394,128,-0.795213079,-11026,13992.1875,65280,128
2.917175641,40448,-11.25530139,-156060,0.143089311,1984,128,-0.939456336,-13026,13994.14063,65344,128
-16.29833416,-225984,-11.2763609,-156352,0.091955077,1275,128,-0.943711513,-13085,13996.09375,65408,128
0.534204904,7407,-11.28220275,-156433,0.282428298,3916,128,-0.936427228,-12984,13998.04688,65472,128
-18.31088821,-253889,-11.16579845,-154819,1.181857131,16387,128,-0.843318205,-11693,14000,0,128
0.888466345,12319,-11.12288608,-154224,1.181640766,16384,128,-0.810574986,-11239,14001.95313,64,128
-18.31499914,-253946,-11.3127102,-156856,0.110850943,1537,128,-0.98388326,-13642,14003.90625,128,128
-18.31557611,-253954,-11.17791488,-154987,0.220908549,3063,128,-0.913564672,-12667,14005.85938,192,128
-16.46940666,-228356,-11.18620887,-155102,0.535935823,7431,128,-0.875484452,-12139,14007.8125,256,128
4.154999155,57611,-11.19450285,-155217,0.294833218,4088,128,-0.859617693,-11919,14009.76563,320,128
2.968093511,41154,-11.21887996,-155555,0.445423179,6176,128,-0.888322102,-12317,14011.71875,384,128
-18.31723491,-253977,-11.31321505,-156863,0.309762396,4295,128,-0.951067919,-13187,14013.67188,448,128
0.281490717,3903,-11.3747348,-157716,0,0,128,-1.028093818,-14255,14015.625,512,128
0.44765895,6207,-11.38310091,-157832,4.33E-04,6,128,-1.052182442,-14589,14017.57813,576,128
0.036854152,511,-11.22544303,-155646,0.290794407,4032,128,-0.906713117,-12572,14019.53125,640,128
-16.50380868,-228833,-11.16478874,-154805,1.191809916,16525,128,-0.854641301,-11850,14021.48438,704,128
2.364363356,32783,-11.21260538,-155468,0.528363052,7326,128,-0.878225074,-12177,14023.4375,768,128
-15.94840001,-221132,-11.21253326,-155467,0.522088471,7239,128,-0.88118206,-12218,14025.39063,832,128
-16.5412398,-229352,-11.20301321,-155335,0.522665444,7247,128,-0.871589884,-12085,14027.34375,896,128
-15.65652378,-217085,-11.22537091,-155645,0.276442203,3833,128,-0.908660401,-12599,14029.29688,960,128
-15.95676612,-221248,-11.28552035,-156479,0.13017954,1805,128,-0.940970891,-13047,14031.25,1024,128
0.914934983,12686,-11.19688287,-155250,0.585050653,8112,128,-0.854713423,-11851,14033.20313,1088,128
-16.5338834,-229250,-11.18188157,-155042,0.443331652,6147,128,-0.846780043,-11741,14035.15625,1152,128
-18.36858551,-254689,-11.35317044,-157417,0.036277179,503,128,-1.006890059,-13961,14037.10938,1216,128
-18.7966995,-260625,-11.26424447,-156184,0.262017877,3633,128,-0.911545266,-12639,14039.0625,1280,128
0.660057147,9152,-11.11221208,-154076,1.210777904,16788,128,-0.789876078,-10952,14041.01563,1344,128
0.020194056,280,-11.18217006,-155046,0.563125677,7808,128,-0.839207272,-11636,14042.96875,1408,128
-16.53842706,-229313,-11.07117487,-153507,1.209840323,16775,128,-0.751363129,-10418,14044.92188,1472,128
-18.18611779,-252159,-11.29359797,-156591,0.572285124,7935,128,-0.972343799,-13482,14046.875,1536,128
-15.95676612,-221248,-11.30232469,-156712,0.12931408,1793,128,-0.970540758,-13457,14048.82813,1600,128
2.622198179,36358,-11.27160087,-156286,0.232952861,3230,128,-0.937869661,-13004,14050.78125,1664,128
-15.95222246,-221185,-11.26518205,-156197,0.25105539,3481,128,-0.940826647,-13045,14052.73438,1728,128
0.590820383,8192,-11.24909893,-155974,0.44412499,6158,128,-0.905991901,-12562,14054.6875,1792,128
-18.79323766,-260577,-11.28047184,-156409,0.260719688,3615,128,-0.89712094,-12439,14056.64063,1856,128
-18.28434745,-253521,-11.10146595,-153927,1.184165023,16419,128,-0.75100252,-10413,14058.59375,1920,128
-18.61156328,-258058,-11.06735242,-153454,1.182145617,16391,128,-0.723884788,-10037,14060.54688,1984,128
0.593056153,8223,-11.18685796,-155111,0.443115287,6144,128,-0.848943692,-11771,14062.5,2048,128
1.068770417,14819,-11.15613415,-154685,1.195488119,16576,128,-0.815767743,-11311,14064.45313,2112,128
-17.96492076,-249092,-11.1759676,-154960,0.369190618,5119,128,-0.819878676,-11368,14066.40625,2176,128
0.590748261,8191,-11.34566979,-157313,2.88E-04,4,128,-0.977103827,-13548,14068.35938,2240,128
3.995321869,55397,-11.34985284,-157371,0,0,128,-1.018285277,-14119,14070.3125,2304,128
-16.50611657,-228865,-11.26359537,-156175,0.257402093,3569,128,-0.928854457,-12879,14072.26563,2368,128
2.481633125,34409,-11.2480171,-155959,0.294544732,4084,128,-0.9263302,-12844,14074.21875,2432,128
-15.94753455,-221120,-11.21909633,-155558,0.29447261,4083,128,-0.887168156,-12301,14076.17188,2496,128
-18.61552997,-258113,-11.23950675,-155841,0.443187409,6145,128,-0.873465046,-12111,14078.125,2560,128
-18.9057474,-262137,-11.21585086,-155513,0.571131178,7919,128,-0.832067231,-11537,14080.07813,2624,128
1.111827029,15416,-11.21779814,-155540,0.535142486,7420,128,-0.877359614,-12165,14082.03125,2688,128
-15.93484115,-220944,-11.23380914,-155762,0.287260447,3983,128,-0.952654594,-13209,14083.98438,2752,128
0.590748261,8191,-11.24058857,-155856,0.288486515,4000,128,-0.901953089,-12506,14085.9375,2816,128
2.432518295,33728,-11.21411994,-155489,0.516967835,7168,128,-0.822691419,-11407,14087.89063,2880,128
-16.08254624,-222992,-11.34595827,-157317,0.11777462,1633,128,-0.959866757,-13309,14089.84375,2944,128
2.921791425,40512,-11.23683825,-155804,0.277812514,3852,128,-0.906929482,-12575,14091.79688,3008,128
0.58981068,8178,-11.12685277,-154279,0.291659867,4044,128,-0.777471158,-10780,14093.75,3072,128
1.153873939,15999,-11.15187897,-154626,1.181929252,16388,128,-0.791823362,-10979,14095.70313,3136,128
-16.54210526,-229364,-11.24715164,-155947,0.44765895,6207,128,-0.909237374,-12607,14097.65625,3200,128
-18.31600884,-253960,-11.18743493,-155119,0.281057987,3897,128,-0.87007533,-12064,14099.60938,3264,128
0.888538467,12320,-11.20928779,-155422,0.444413477,6162,128,-0.871085032,-12078,14101.5625,3328,128
-16.39533775,-227329,-11.23993948,-155847,0.451409275,6259,128,-0.870796546,-12074,14103.51563,3392,128
-18.29891602,-253723,-11.14156558,-154483,1.190655969,16509,128,-0.757204981,-10499,14105.46875,3456,128
1.148753303,15928,-11.10146595,-153927,0.589666437,8176,128,-0.762541981,-10573,14107.42188,3520,128
-15.27839008,-211842,-11.29078523,-156552,0.091955077,1275,128,-0.947822445,-13142,14109.375,3584,128
-16.48318189,-228547,-11.33196668,-157123,0.072770723,1009,128,-0.960732217,-13321,14111.32813,3648,128
-16.54246587,-229369,-11.18772342,-155123,0.590315532,8185,128,-0.831346015,-11527,14113.28125,3712,128
-16.39706867,-227353,-11.24823347,-155962,0.293030178,4063,128,-0.88868271,-12322,14115.23438,3776,128
-15.94472181,-221081,-11.21815875,-155545,0.287548934,3987,128,-0.891856061,-12366,14117.1875,3840,128
0.111427916,1545,-11.15108563,-154615,1.183660171,16412,128,-0.810647107,-11240,14119.14063,3904,128
-18.90170859,-262081,-11.17409243,-154934,0.586420964,8131,128,-0.836394529,-11597,14121.09375,3968,128
2.373739168,32913,-11.18361249,-155066,0.45119291,6256,128,-0.83069692,-11518,14123.04688,4032,128
-16.48325401,-228548,-11.16262509,-154775,0.572862097,7943,128,-0.804084039,-11149,14125,4096,128
1.04280663,14459,-11.1443062,-154521,0.570049354,7904,128,-0.806103445,-11177,14126.95313,4160,128
-16.24929145,-225304,-11.29222766,-156572,0.147632974,2047,128,-0.983666895,-13639,14128.90625,4224,128
-15.95654976,-221245,-11.2966992,-156634,0.055894262,775,128,-0.940898769,-13046,14130.85938,4288,128
0.004543663,63,-11.14279165,-154500,0.291948353,4048,128,-0.790957903,-10967,14132.8125,4352,128
-15.37034516,-213117,-11.14704682,-154559,1.181712887,16385,128,-0.835961799,-11591,14134.76563,4416,128
-16.40291052,-227434,-11.30434409,-156740,0.304569638,4223,128,-0.914574375,-12681,14136.71875,4480,128
-18.31781188,-253985,-11.23258307,-155745,0.534781877,7415,128,-0.87317656,-12107,14138.67188,4544,128
-18.24172357,-252930,-11.15548505,-154676,0.513433875,7119,128,-0.833509664,-11557,14140.625,4608,128
2.383908318,33054,-11.27679363,-156358,0.293102299,4064,128,-0.900005805,-12479,14142.57813,4672,128
-16.51304025,-228961,-11.19594529,-155237,0.489201008,6783,128,-0.840793948,-11658,14144.53125,4736,128
-18.32004766,-254016,-11.26510993,-156196,0.293030178,4063,128,-0.889331804,-12331,14146.48438,4800,128
-16.40420871,-227452,-11.25299349,-156028,0.28956834,4015,128,-0.892505156,-12375,14148.4375,4864,128
-14.77887568,-204916,-11.23416975,-155767,0.520501795,7217,128,-0.882696615,-12239,14150.39063,4928,128
-16.54059071,-229343,-11.15844204,-154717,0.586420964,8131,128,-0.820239284,-11373,14152.34375,4992,128
-16.50813598,-228893,-11.26929298,-156254,0.119938269,1663,128,-0.917098632,-12716,14154.29688,5056,128
2.844477039,39440,-11.33514003,-157167,0.065630682,910,128,-0.967295285,-13412,14156.25,5120,128
0.589017342,8167,-11.22739032,-155673,0.553894109,7680,128,-0.840505462,-11654,14158.20313,5184,128
0.576684544,7996,-11.24707952,-155946,0.506582321,7024,128,-0.832932691,-11549,14160.15625,5248,128
-16.5428986,-229375,-11.23849705,-155827,0.590315532,8185,128,-0.838846664,-11631,14162.10938,5312,128
2.917175641,40448,-11.26712933,-156224,0.293102299,4064,128,-0.892937886,-12381,14164.0625,5376,128
-18.29689661,-253695,-11.21173992,-155456,0.572285124,7935,128,-0.861564977,-11946,14166.01563,5440,128
-16.48238855,-228536,-11.12649216,-154274,1.18272259,16399,128,-0.773432347,-10724,14167.96875,5504,128
2.377273128,32962,-11.34841041,-157351,0.443115287,6144,128,-0.962174649,-13341,14169.92188,5568,128
-18.83917914,-261214,-11.26092687,-156138,0.253940255,3521,128,-0.900438535,-12485,14171.875,5632,128
2.954029793,40959,-11.25472441,-156052,0.292958056,4062,128,-0.907578577,-12584,14173.82813,5696,128
-18.31492702,-253945,-11.27794758,-156374,0.500451982,6939,128,-0.899068224,-12466,14175.78125,5760,128
2.93664848,40718,-11.29525677,-156614,0.258195431,3580,128,-0.926041713,-12840,14177.73438,5824,128
1.179837725,16359,-11.14452256,-154524,1.217413094,16880,128,-0.741843074,-10286,14179.6875,5888,128
0.717682328,9951,-11.1356516,-154401,0.59067614,8190,128,-0.74919948,-10388,14181.64063,5952,128
2.367608829,32828,-11.25385895,-156040,0.448885018,6224,128,-0.861637099,-11947,14183.59375,6016,128
0.673832378,9343,-11.14618136,-154547,0.575819084,7984,128,-0.790453051,-10960,14185.54688,6080,128
2.40835755,33393,-11.32821635,-157071,0.119721904,1660,128,-0.943927877,-13088,14187.5,6144,128
-16.25051752,-225321,-11.23777583,-155817,0.515164794,7143,128,-0.837404232,-11611,14189.45313,6208,128
-16.47834974,-228480,-11.24231949,-155880,0.499009549,6919,128,-0.848799449,-11769,14191.40625,6272,128
0.901303995,12497,-11.19190648,-155181,0.581588814,8064,128,-0.821176865,-11386,14193.35938,6336,128
2.381239817,33017,-11.19378164,-155207,0.521006646,7224,128,-0.808916188,-11216,14195.3125,6400,128
0.591325234,8199,-11.20669141,-155386,0.515813889,7152,128,-0.81785927,-11340,14197.26563,6464,128
-18.31896583,-254001,-11.26518205,-156197,0.443620139,6151,128,-0.880100236,-12203,14199.21875,6528,128
0.600268316,8323,-11.16385116,-154792,0.572357246,7936,128,-0.801704025,-11116,14201.17188,6592,128
2.363281532,32768,-11.21109083,-155447,0.521439376,7230,128,-0.836538772,-11599,14203.125,6656,128
-16.51044387,-228925,-11.1266364,-154276,0.558437772,7743,128,-0.765715333,-10617,14205.07813,6720,128
0.738453357,10239,-11.15952386,-154732,1.181640766,16384,128,-0.830119947,-11510,14207.03125,6784,128
2.370133086,32863,-11.26972571,-156260,0.443115287,6144,128,-0.881542669,-12223,14208.98438,6848,128
-18.31608097,-253961,-11.29157857,-156563,0.443331652,6147,128,-0.870580181,-12071,14210.9375,6912,128
2.94458186,40828,-11.17243364,-154911,0.516823592,7166,128,-0.790597295,-10962,14212.89063,6976,128
2.372585222,32897,-11.21426418,-155491,0.484368859,6716,128,-0.842020016,-11675,14214.84375,7040,128
2.435042552,33763,-11.30989746,-156817,0.074285278,1030,128,-0.959650392,-13306,14216.79688,7104,128
0.590315532,8185,-11.31263808,-156855,0.222423103,3084,128,-0.943062418,-13076,14218.75,7168,128
-18.64812894,-258565,-11.27210573,-156293,0.29533807,4095,128,-0.900150049,-12481,14220.70313,7232,128
-18.01973319,-249852,-11.18029489,-155020,0.589738558,8177,128,-0.815479257,-11307,14222.65625,7296,128
2.908809532,40332,-11.27924577,-156392,0.444269233,6160,128,-0.866613491,-12016,14224.60938,7360,128
2.366671248,32815,-11.26849964,-156243,0.293102299,4064,128,-0.906640995,-12571,14226.5625,7424,128
-16.53431613,-229256,-11.19825318,-155269,0.589594315,8175,128,-0.82759569,-11475,14228.51563,7488,128
4.707522953,65272,-11.24462739,-155912,0.521295133,7228,128,-0.860194666,-11927,14230.46875,7552,128
-16.4691903,-228353,-11.084301,-153689,1.186472915,16451,128,-0.714148368,-9902,14232.42188,7616,128
-15.80451737,-219137,-11.11516906,-154117,0.581660936,8065,128,-0.765859576,-10619,14234.375,7680,128
0.890774237,12351,-11.21808663,-155544,0.466194208,6464,128,-0.824782947,-11436,14236.32813,7744,128
-18.62908883,-258301,-11.24044433,-155854,0.507952631,7043,128,-0.819662311,-11365,14238.28125,7808,128
0.590820383,8192,-11.1149527,-154114,0.554471082,7688,128,-0.714292611,-9904,14240.23438,7872,128
-18.24186781,-252932,-11.06396271,-153407,1.218494918,16895,128,-0.646426159,-8963,14242.1875,7936,128
2.365517302,32799,-11.22457757,-155634,0.555625028,7704,128,-0.781870578,-10841,14244.14063,8000,128
-18.01583862,-249798,-11.17791488,-154987,0.553966231,7681,128,-0.741770952,-10285,14246.09375,8064,128
-17.87123476,-247793,-11.31025807,-156822,0.442466193,6135,128,-0.880749331,-12212,14248.04688,8128,128
-18.38877957,-254969,-11.30311803,-156723,0.295915043,4103,128,-0.909021009,-12604,14250,8192,128
-16.54275436,-229373,-11.1769773,-154974,0.590748261,8191,128,-0.78951547,-10947,14251.95313,8256,128
-16.41488271,-227600,-11.13428129,-154382,0.590748261,8191,128,-0.749632209,-10394,14253.90625,8320,128
-16.54246587,-229369,-11.10045625,-153913,1.209984566,16777,128,-0.709027732,-9831,14255.85938,8384,128
-17.86777292,-247745,-11.07420398,-153549,1.216619756,16869,128,-0.668928107,-9275,14257.8125,8448,128
-17.73283335,-245874,-11.03071463,-152946,1.253401786,17379,128,-0.624933913,-8665,14259.76563,8512,128
-18.8924049,-261952,-11.03165222,-152959,0.569977232,7903,128,-0.648661929,-8994,14261.71875,8576,128
-15.61981387,-216576,-11.18404522,-155072,0.531897012,7375,128,-0.797593093,-11059,14263.67188,8640,128
-15.80394039,-219129,-11.05321658,-153258,1.18979051,16497,128,-0.723452058,-10031,14265.625,8704,128
-16.41942637,-227663,-11.1016102,-153929,0.563053556,7807,128,-0.768023225,-10649,14267.57813,8768,128
-15.73124179,-218121,-11.01506424,-152729,1.182145617,16391,128,-0.645921307,-8956,14269.53125,8832,128
