Device,Device,Device,Device,Device,Device,Device,Device,Device,Device,Device,Device
ECG Vx-RL,ECG Vx-RL,ECG LA-RA,ECG LA-RA,ExG2 CH1,ExG2 CH1,EXG1 Status,ECG LL-RA,ECG LL-RA,Timestamp,Timestamp,EXG2 Status
CAL,RAW,CAL,RAW,CAL,RAW,RAW,RAW,CAL,RAW,CAL,RAW
mV,No Units,mV,No Units,mV,No Units,No Units,No Units,mV,No Units,mSecs,No Units
4.688554965,65009,-0.035700206,-495,0.034762625,482,0,-123864,-8.933273427,64,1.953125,0
4.725120631,65516,-0.008654595,-120,0.027694705,384,0,-123516,-8.9081751,128,3.90625,0
-73.26179961,-1015809,1.291986858,17914,0.921065321,12771,128,9679,0.698065245,192,5.859375,128
-73.70022699,-1021888,1.334827105,18508,1.016554358,14095,128,10009,0.721865382,256,7.8125,128
0.29533807,4095,1.456207807,20191,1.171255251,16240,128,11108,0.801127052,320,9.765625,128
-73.26201597,-1015812,1.462338145,20276,1.163105507,16127,128,10899,0.786053632,384,11.71875,128
-75.59111185,-1048106,1.506188095,20884,1.181568644,16383,128,11772,0.849015814,448,13.671875,128
-73.33341638,-1016802,1.48383039,20574,1.126179233,15615,128,11469,0.82716296,512,15.625,128
-75.56745596,-1047778,1.368003055,18968,1.153873939,15999,128,10871,0.784034226,576,17.578125,128
-75.44960921,-1046144,1.386105583,19219,1.181424401,16381,128,11113,0.801487661,640,19.53125,128
0.119721904,1660,1.426277331,19776,1.181352279,16380,128,10902,0.786269997,704,21.484375,128
-18.89889585,-262042,-127.6121542,-1769402,0.004327298,60,149,40,0.002884865,768,23.4375,0
0.002307892,32,-127.6121542,-1769402,0,0,149,40,0.002884865,832,25.390625,128
0,0,0,0,0.013847353,192,10,4496832,324.3188482,896,27.34375,128
1.051821834,14584,0.652340132,9045,0,0,0,-4194304,-302.5000361,960,29.296875,128
4.135742681,57344,0.652340132,9045,0,0,0,-4194304,-302.5000361,1024,31.25,0
0,0,0,0,0,0,14,4834240,348.6532627,1088,33.203125,0
0.013847353,192,0,0,1.841697912,25536,14,4834240,348.6532627,1152,35.15625,0
4.135742681,57344,1.533954922,21269,1.181063793,16376,128,12151,0.876349911,1216,37.109375,128
-37.81250451,-524288,1.420868209,19701,1.144714492,15872,128,9906,0.714436855,1280,39.0625,128
-37.81250451,-524288,1.479503093,20514,0.239948659,3327,128,10182,0.734342424,1344,41.015625,0
591.4088954,8200160,1.334682862,18506,1.163177629,16128,128,9379,0.676428756,1408,42.96875,0
-37.68326255,-522496,1.296530521,17977,0.888033615,12313,128,9824,0.708522881,1472,44.921875,128
1.218494918,16895,1.287803803,17856,1.034512643,14344,128,10211,0.736433951,1536,46.875,128
2.326355258,32256,1.308719076,18146,1.033791427,14334,128,10488,0.756411643,1600,48.828125,128
-35.46552246,-491746,1.290111696,17888,1.110023988,15391,128,10237,0.738309114,1664,50.78125,128
-37.70367297,-522779,1.295809304,17967,1.024487737,14205,128,9629,0.694459163,1728,52.734375,128
-37.81034086,-524258,1.331365267,18460,1.164259453,16143,128,10286,0.741843074,1792,54.6875,128
1.181640766,16384,1.401395369,19431,1.070861944,14848,128,10482,0.755978913,1856,56.640625,128
-37.61171789,-521504,1.39302926,19315,1.108004583,15363,128,9190,0.662797768,1920,58.59375,128
2.291664754,31775,1.346078079,18664,0.959506149,13304,128,9808,0.707368935,1984,60.546875,128
0.149796623,2077,1.236813812,17149,0.886230574,12288,128,8875,0.640079455,2048,62.5,128
-36.63093586,-507905,1.207243944,16739,0.62565513,8675,128,8451,0.609499885,2112,64.453125,128
0.12931408,1793,1.301434791,18045,0.914790739,12684,128,10251,0.739318817,2176,66.40625,128
0.036854152,511,1.201329971,16657,0.886230574,12288,128,9326,0.67260631,2240,68.359375,128
-36.5943702,-507398,1.199815416,16636,0.886446939,12291,128,8876,0.640151577,2304,70.3125,128
0.036926274,512,1.231765298,17079,0.962391014,13344,128,9793,0.706287111,2368,72.265625,128
-37.81012449,-524255,1.321340361,18321,1.038479333,14399,128,11054,0.797232484,2432,74.21875,128
1.994235157,27651,1.289462601,17879,1.181496523,16382,128,9534,0.687607609,2496,76.171875,128
1.220730689,16926,1.294438993,17948,0.955467338,13248,128,9161,0.660706241,2560,78.125,128
1.840760331,25523,1.32263855,18339,1.177024982,16320,128,9426,0.679818473,2624,80.078125,128
2.329961339,32306,1.490393459,20665,1.18048682,16368,128,12229,0.881975398,2688,82.03125,128
-37.51709432,-520192,1.576578805,21860,0.004543663,63,128,14192,1.023550156,2752,83.984375,128
-37.30952827,-517314,1.396202611,19359,1.033863549,14335,128,13254,0.955900068,2816,85.9375,128
0.028127435,390,1.408391167,19528,1.031627778,14304,128,14521,1.047278171,2880,87.890625,128
0.260863931,3617,1.375359461,19070,1.144137519,15864,128,16345,1.178828022,2944,89.84375,128
-37.81142268,-524273,1.346222323,18666,0.018391015,255,128,17254,1.244386583,3008,91.796875,128
2.068159827,28676,1.297684467,17993,0.018318894,254,128,18777,1.354227824,3072,93.75,128
-37.80240748,-524148,1.307997859,18136,0.138545649,1921,128,21405,1.543763464,3136,95.703125,128
1.290111696,17888,1.307781495,18133,0.332047979,4604,128,23034,1.661249597,3200,97.65625,128
0.036709909,509,1.289895331,17885,0.553894109,7680,128,23696,1.708994115,3264,99.609375,128
0.004543663,63,1.434066467,19884,1.052398807,14592,128,26410,1.904732216,3328,101.5625,128
1.735534875,24064,1.495514094,20736,1.135627167,15746,128,28436,2.050850636,3392,103.515625,128
1.330427686,18447,1.324441591,18364,1.093075406,15156,128,26248,1.893048512,3456,105.46875,128
-37.7981523,-524089,1.402116585,19441,0.959434028,13303,128,23994,1.730486361,3520,107.421875,128
0.287909542,3992,1.309440292,18156,0.298295057,4136,128,19468,1.404063869,3584,109.375,128
0.028199557,391,1.200680876,16648,0.037935977,526,128,14939,1.077425012,3648,111.328125,128
1.215754296,16857,1.304896629,18093,1.033647184,14332,128,13890,1.001769424,3712,113.28125,128
-37.79404137,-524032,1.298189318,18000,0.904765833,12545,128,9776,0.705061043,3776,115.234375,128
1.182217739,16392,1.284918938,17816,0.590531896,8188,128,7836,0.565145083,3840,117.1875,128
1.251093894,17347,1.25224784,17363,0.534565512,7412,128,6388,0.460712965,3904,119.140625,128
1.19995966,16638,1.290255939,17890,0.553894109,7680,128,6003,0.432946138,3968,121.09375,128
-36.55708332,-506881,1.144137519,15864,0.133641378,1853,128,5053,0.36443059,4032,123.046875,128
-37.51716644,-520193,1.060404308,14703,0.06685675,927,128,5406,0.389889525,4096,125,128
-36.70002838,-508863,1.202051187,16667,0.512279929,7103,128,7926,0.57163603,4160,126.953125,128
-35.45044904,-491537,1.338649552,18561,1.093868744,15167,128,9091,0.655657727,4224,128.90625,128
-36.54814023,-506757,1.202844525,16678,0.579353044,8033,128,6857,0.494538009,4288,130.859375,128
1.182506225,16396,1.217629459,16883,0.572357246,7936,128,8030,0.579136679,4352,132.8125,128
0.073780426,1023,1.303454197,18073,1.114567651,15454,128,10121,0.729943005,4416,134.765625,128
0.014063718,195,1.260109098,17472,1.163610359,16134,128,8770,0.632506684,4480,136.71875,128
0.009159447,127,1.228880433,17039,0.582742761,8080,128,8111,0.584978531,4544,138.671875,128
-35.45138662,-491550,1.290400182,17892,1.051316983,14577,128,9493,0.684650622,4608,140.625,128
-37.81077359,-524264,1.271937045,17636,0.960011001,13311,128,9389,0.677149973,4672,142.578125,128
0.037431125,519,1.31333486,18210,1.126107112,15614,128,9774,0.7049168,4736,144.53125,128
0.223865536,3104,1.373772785,19048,1.042590266,14456,128,10760,0.776028726,4800,146.484375,128
2.289428984,31744,1.316580333,18255,1.163177629,16128,128,11355,0.818941095,4864,148.4375,128
0.008510352,118,1.22520223,16988,1.035666589,14360,128,9250,0.667125066,4928,150.390625,128
0.018318894,254,1.302083886,18054,0.953015203,13214,128,9653,0.696190083,4992,152.34375,128
2.353977842,32639,1.30136267,18044,1.029608372,14276,128,10205,0.736001222,5056,154.296875,128
-37.77622733,-523785,1.327542821,18407,1.034007792,14337,128,10899,0.786053632,5120,156.25,128
-37.81192753,-524280,1.426854304,19784,1.045403009,14495,128,12475,0.899717319,5184,158.203125,128
-36.51092547,-506241,1.418488195,19668,1.171038886,16237,128,12109,0.873320803,5248,160.15625,128
-37.79454622,-524039,1.373267934,19041,1.034440522,14343,128,10876,0.784394835,5312,162.109375,128
1.919877758,26620,1.29472748,17952,1.111250056,15408,128,10015,0.722298112,5376,164.0625,128
2.306666053,31983,1.366200014,18943,1.005952478,13948,128,10512,0.758142562,5440,166.015625,128
1.957020397,27135,1.39526503,19346,1.036676292,14374,128,10923,0.787784551,5504,167.96875,128
-36.40880125,-504825,1.298333561,18002,1.038479333,14399,128,9679,0.698065245,5568,169.921875,128
-37.81199966,-524281,1.30316571,18069,0.92279624,12795,128,10029,0.723307815,5632,171.875,128
0.156792421,2174,1.37398915,19051,1.172409197,16256,128,11448,0.825648406,5696,173.828125,128
1.253329665,17378,1.378100083,19108,1.113269462,15436,128,11386,0.821176865,5760,175.78125,128
-35.96626293,-498689,1.245179921,17265,1.125313774,15603,128,11094,0.80011735,5824,177.734375,128
2.291664754,31775,1.365983649,18940,1.163177629,16128,128,10941,0.78908274,5888,179.6875,128
2.358377261,32700,1.389711665,19269,1.03393567,14336,128,10587,0.763551684,5952,181.640625,128
0.184559248,2559,1.348602336,18699,1.172409197,16256,128,11029,0.795429444,6016,183.59375,128
5.05E-04,7,1.235299258,17128,1.03393567,14336,128,9622,0.693954312,6080,185.546875,128
1.213734891,16829,1.213734891,16829,0.738092749,10234,128,10246,0.738958208,6144,187.5,128
0.036565666,507,1.284414087,17809,1.015472533,14080,128,9959,0.718259301,6208,189.453125,128
-37.66948732,-522305,1.281240735,17765,0.978474138,13567,128,9659,0.696622812,6272,191.40625,128
2.331692258,32330,1.298910534,18010,1.033791427,14334,128,10238,0.738381235,6336,193.359375,128
-35.45023268,-491534,1.377955839,19106,1.174933454,16291,128,11810,0.851756436,6400,195.3125,128
-37.73814711,-523257,1.262344868,17503,1.122717395,15567,128,10446,0.753382534,6464,197.265625,128
0.204320574,2833,1.367498203,18961,1.176736495,16316,128,11696,0.84353457,6528,199.21875,128
-36.0381682,-499686,1.372907325,19036,1.143488424,15855,128,11266,0.81252227,6592,201.171875,128
1.77693269,24638,1.237030177,17152,0.914502253,12680,128,9513,0.686093055,6656,203.125,128
0.553894109,7680,1.121924057,15556,0.65976866,9148,128,9204,0.663807471,6720,205.078125,128
0.007140041,99,1.267609747,17576,1.024704102,14208,128,10871,0.784034226,6784,207.03125,128
-36.55715544,-506882,1.329490105,18434,1.144786614,15873,128,11883,0.857021315,6848,208.984375,128
0.235404996,3264,1.357256932,18819,1.107788218,15360,128,10658,0.768672319,6912,210.9375,128
-37.80226324,-524146,1.35184781,18744,1.036748414,14375,128,11460,0.826513866,6976,212.890625,128
0.217518832,3016,1.319320955,18293,1.181352279,16380,128,10858,0.783096645,7040,214.84375,128
-37.77932856,-523828,1.254123003,17389,0.959866757,13309,128,9539,0.687968217,7104,216.796875,128
-36.55758817,-506888,1.288669263,17868,0.960299487,13315,128,9744,0.702753151,7168,218.75,128
-35.67626186,-494668,1.426493696,19779,1.166567345,16175,128,11254,0.81165681,7232,220.703125,128
-18.61113055,-258052,1.363315149,18903,1.108870042,15375,128,11013,0.794275498,7296,222.65625,128
-35.46667641,-491762,1.320474901,18309,1.179404995,16353,128,11789,0.850241882,7360,224.609375,128
0.286106501,3967,1.357906027,18828,0.922579875,12792,128,12128,0.874691114,7424,226.5625,128
0.149796623,2077,1.381345556,19153,1.18048682,16368,128,11643,0.839712124,7488,228.515625,128
-35.52415735,-492559,1.367498203,18961,1.112331881,15423,128,11454,0.826081136,7552,230.46875,128
1.804483152,25020,1.278283748,17724,1.18048682,16368,128,11121,0.802064634,7616,232.421875,128
2.23569837,30999,1.354011459,18774,1.176880738,16318,128,12216,0.881037817,7680,234.375,128
2.216009166,30726,1.380552218,19142,1.163177629,16128,128,11016,0.794491863,7744,236.328125,128
-18.75854716,-260096,1.339947741,18579,1.16411521,16141,128,10525,0.759080143,7808,238.28125,128
0.204248453,2832,1.367714568,18964,1.03393567,14336,128,11008,0.79391489,7872,240.234375,128
-18.63045915,-258320,1.373484298,19044,1.181568644,16383,128,10883,0.784899686,7936,242.1875,128
-17.54005224,-243201,1.356535716,18809,1.144786614,15873,128,11386,0.821176865,8000,244.140625,128
0.018895867,262,1.365334554,18931,1.144714492,15872,128,10378,0.748478263,8064,246.09375,128
-18.62007363,-258176,1.417622735,19656,1.180558941,16369,128,10702,0.771845671,8128,248.046875,128
-18.74037251,-259844,1.277778897,17717,1.07511712,14907,128,11317,0.816200473,8192,250,128
0.037142639,515,1.264580639,17534,1.117019786,15488,128,12007,0.865964397,8256,251.953125,128
-18.90517043,-262129,1.38242738,19168,1.034440522,14343,128,13250,0.955611581,8320,253.90625,128
0.151743907,2104,1.272946748,17650,1.177024982,16320,128,11448,0.825648406,8384,255.859375,128
-18.84401129,-261281,1.271215829,17626,1.052038199,14587,128,10646,0.76780686,8448,257.8125,128
-17.54812986,-243313,1.348169607,18693,1.110023988,15391,128,10938,0.788866376,8512,259.765625,128
1.920094123,26623,1.372041866,19024,1.144714492,15872,128,9729,0.701671326,8576,261.71875,128
-16.68815156,-231389,1.426854304,19784,1.172337076,16255,128,11029,0.795429444,8640,263.671875,128
-18.87408601,-261698,1.416324546,19638,1.178106806,16335,128,10784,0.777759645,8704,265.625,128
1.800155854,24960,1.27301887,17651,1.035955076,14364,128,10777,0.777254793,8768,267.578125,128
-17.11525585,-237311,1.241718083,17217,0.88558148,12279,128,10388,0.74919948,8832,269.53125,128
1.181785009,16386,1.190439605,16506,1.068554052,14816,128,10720,0.77314386,8896,271.484375,128
1.366200014,18943,1.362449689,18891,1.145147222,15878,128,11798,0.850890976,8960,273.4375,128
-17.10039879,-237105,1.284197722,17806,1.113485827,15439,128,11593,0.836106042,9024,275.390625,128
1.780538771,24688,1.26241699,17504,1.163177629,16128,128,11370,0.820022919,9088,277.34375,128
0.152176637,2110,1.35184781,18744,1.181352279,16380,128,12208,0.880460844,9152,279.296875,128
0.035628085,494,1.32220582,18333,0.886230574,12288,128,11984,0.864305599,9216,281.25,128
0.001081824,15,1.247704178,17300,1.107211245,15352,128,11028,0.795357322,9280,283.203125,128
-18.83247183,-261121,1.323215523,18347,1.160653372,16093,128,11978,0.863872869,9344,285.15625,128
-18.64726348,-258553,1.394255327,19332,1.176375887,16311,128,11801,0.851107341,9408,287.109375,128
-18.90603589,-262141,1.4178391,19659,1.14464237,15871,128,11152,0.804300404,9472,289.0625,128
0.013847353,192,1.410987545,19564,1.061630376,14720,128,11818,0.852333409,9536,291.015625,128
0.009375812,130,1.348458093,18697,1.172409197,16256,128,11369,0.819950798,9600,292.96875,128
-18.62007363,-258176,1.358122391,18831,1.173346779,16269,128,12056,0.869498357,9664,294.921875,128
0.152032393,2108,1.339875619,18578,1.177169225,16322,128,11883,0.857021315,9728,296.875,128
0.257834823,3575,1.396851706,19368,1.181496523,16382,128,12328,0.88911544,9792,298.828125,128
-18.61185177,-258062,1.469694551,20378,1.070501336,14843,128,12428,0.896327602,9856,300.78125,128
1.406660248,19504,1.377450988,19099,1.144570249,15870,128,11459,0.826441744,9920,302.734375,128
-18.89420794,-261977,1.316940941,18260,1.164259453,16143,128,11788,0.85016976,9984,304.6875,128
1.18358805,16411,1.275326762,17683,1.107788218,15360,128,11717,0.845049124,10048,306.640625,128
0.06952525,964,1.246622353,17285,0.888538467,12320,128,12456,0.898347008,10112,308.59375,128
-17.65075894,-244736,1.278716478,17730,1.181135914,16377,128,11049,0.796871876,10176,310.546875,128
-18.68382915,-259060,1.407525707,19516,0.922507754,12791,128,12647,0.912122239,10240,312.5,128
-18.88757275,-261885,1.350333256,18723,0.959722514,13307,128,13299,0.959145541,10304,314.453125,128
0.156359691,2168,1.344996255,18649,1.163466115,16132,128,11532,0.831706623,10368,316.40625,128
-16.62115057,-230460,1.395481395,19349,1.054634578,14623,128,12575,0.906929482,10432,318.359375,128
-16.61242385,-230339,1.434715561,19893,1.070789822,14847,128,13311,0.960011001,10496,320.3125,128
2.290438687,31758,1.299415386,18017,0.886230574,12288,128,11886,0.85723768,10560,322.265625,128
-18.84134279,-261244,1.256863625,17427,0.867983802,12035,128,10833,0.781293605,10624,324.21875,128
-17.13162746,-237538,1.337639849,18547,1.108870042,15375,128,11066,0.798097944,10688,326.171875,128
2.049913055,28423,1.333817403,18494,1.116875543,15486,128,11993,0.864954694,10752,328.125,128
-18.90517043,-262129,1.361944838,18884,0.92322897,12801,128,13438,0.969170447,10816,330.078125,128
1.933580867,26810,1.362016959,18885,0.930369011,12900,128,12736,0.918541064,10880,332.03125,128
-17.67376574,-245055,1.404063869,19468,1.108004583,15363,128,13934,1.004942775,10944,333.984375,128
-16.59951408,-230160,1.391514706,19294,1.116947665,15487,128,12601,0.908804644,11008,335.9375,128
-18.9040886,-262114,1.360646648,18866,1.178106806,16335,128,11689,0.843029719,11072,337.890625,128
7.21E-05,1,1.40190022,19438,0.895173656,12412,128,13121,0.946307891,11136,339.84375,128
-18.61552997,-258113,1.471136984,20398,1.163393994,16131,128,13989,1.008909465,11200,341.796875,128
-18.68447825,-259069,1.346943539,18676,0.968809839,13433,128,12829,0.925248376,11264,343.75,128
-18.7770103,-260352,1.311603941,18186,0.895390021,12415,128,12525,0.9033234,11328,345.703125,128
5.05E-04,7,1.349467796,18711,0.904549468,12542,128,13270,0.957054014,11392,347.65625,128
-18.90192496,-262084,1.28722683,17848,0.888322102,12317,128,13341,0.962174649,11456,349.609375,128
-17.57582457,-243697,1.348602336,18699,0.958280082,13287,128,13126,0.946668499,11520,351.5625,128
-18.66738542,-258832,1.430893115,19840,1.106706394,15345,128,13281,0.957847352,11584,353.515625,128
1.25664726,17424,1.425195506,19761,1.114423408,15452,128,13392,0.965852853,11648,355.46875,128
0.281057987,3897,1.374566123,19059,1.03393567,14336,128,12680,0.914502253,11712,357.421875,128
0.23071709,3199,1.439475589,19959,1.067400106,14800,128,13269,0.956981892,11776,359.375,128
-17.70845624,-245536,1.3071324,18124,0.923084727,12799,128,12226,0.881759033,11840,361.328125,128
1.195920848,16582,1.266455801,17560,1.174428603,16284,128,11568,0.834303002,11904,363.28125,128
1.216475513,16867,1.255998165,17415,1.145724195,15886,128,11499,0.829326609,11968,365.234375,128
-18.88901518,-261905,1.203277254,16684,0.873465046,12111,128,11666,0.841370921,12032,367.1875,128
2.141940253,29699,1.261551531,17492,0.922002902,12784,128,11999,0.865387424,12096,369.140625,128
1.215970661,16860,1.354372067,18779,1.144714492,15872,128,13011,0.938374512,12160,371.09375,128
-18.74008402,-259840,1.435869507,19909,1.099061501,15239,128,13819,0.996648788,12224,373.046875,128
-18.33302955,-254196,1.432984642,19869,1.14464237,15871,128,12949,0.933902971,12288,375,128
-16.83960698,-233489,1.414521505,19613,1.036171441,14367,128,13529,0.975733516,12352,376.953125,128
1.182145617,16391,1.319176712,18291,1.181063793,16376,128,11788,0.85016976,12416,378.90625,128
1.199743295,16635,1.254195124,17390,1.144426005,15868,128,11458,0.826369623,12480,380.859375,128
2.16E-04,3,1.199671173,16634,1.043167239,14464,128,10634,0.7669414,12544,382.8125,128
2.071910151,28728,1.193180226,16544,1.03480113,14348,128,10253,0.73946306,12608,384.765625,128
-17.12080921,-237388,1.268475207,17588,1.108293069,15367,128,11271,0.812882878,12672,386.71875,128
-18.76698539,-260213,1.304680265,18090,1.180847428,16373,128,11125,0.80235312,12736,388.671875,128
-17.02654624,-236081,1.288885628,17871,1.179549239,16355,128,11234,0.810214378,12800,390.625,128
2.298876917,31875,1.412574221,19586,1.178755901,16344,128,12689,0.915151348,12864,392.578125,128
-17.43951469,-241807,1.466881808,20339,1.073097715,14879,128,12822,0.924743524,12928,394.53125,128
2.362127586,32752,1.356175107,18804,1.160869737,16096,128,11913,0.859184964,12992,396.484375,128
-18.9040886,-262114,1.266311558,17558,1.052326685,14591,128,10392,0.749487966,13056,398.4375,128
-18.32963983,-254149,1.153513331,15994,0.664600809,9215,128,10111,0.729221789,13120,400.390625,128
0.562043853,7793,1.077713499,14943,0.627746657,8704,128,9472,0.683136068,13184,402.34375,128
1.177097103,16321,1.199310565,16629,0.904549468,12542,128,10164,0.733044235,13248,404.296875,128
0.064620979,896,1.280447397,17754,1.150339979,15950,128,11207,0.808267094,13312,406.25,128
-17.13328625,-237561,1.22433677,16976,1.17695286,16319,128,9486,0.684145771,13376,408.203125,128
0.073780426,1023,1.255276949,17405,1.001048207,13880,128,10749,0.775235388,13440,410.15625,128
0.111211552,1542,1.290688669,17896,1.164620061,16148,128,11395,0.82182596,13504,412.109375,128
-18.61199601,-258064,1.355814499,18799,1.172192832,16253,128,11359,0.819229581,13568,414.0625,128
0.184559248,2559,1.286505614,17838,1.126107112,15614,128,10926,0.788000916,13632,416.015625,128
0.056182749,779,1.30092994,18038,1.162889142,16124,128,11276,0.813243486,13696,417.96875,128
-16.6032644,-230212,1.244025975,17249,1.112331881,15423,128,11139,0.803362823,13760,419.921875,128
-17.72417876,-245754,1.237462907,17158,1.033286575,14327,128,10229,0.737732141,13824,421.875,128
-17.7019653,-245446,1.204286957,16698,0.960299487,13315,128,9634,0.694819772,13888,423.828125,128
0.004038811,56,1.198372984,16616,0.887961493,12312,128,9530,0.687319122,13952,425.78125,128
0.023151043,321,1.205368782,16713,1.031483535,14302,128,10202,0.735784857,14016,427.734375,128
0.004543663,63,1.186184428,16447,0.960227366,13314,128,9390,0.677222094,14080,429.6875,128
0.009231568,128,1.303886927,18079,1.105480326,15328,128,11176,0.806031323,14144,431.640625,128
0.220331576,3055,1.39923172,19401,1.152792114,15984,128,12499,0.901448238,14208,433.59375,128
-17.59450407,-243956,1.317517914,18268,1.176375887,16311,128,10023,0.722875085,14272,435.546875,128
-16.60989959,-230304,1.288452898,17865,1.045835739,14501,128,10917,0.787351821,14336,437.5,128
2.35614149,32669,1.321628847,18325,1.164331575,16144,128,12052,0.86920987,14400,439.453125,128
1.880787835,26078,1.297323858,17988,1.177024982,16320,128,11245,0.811007716,14464,441.40625,128
-9.451178843,-131045,1.246333867,17281,1.144209641,15865,128,10808,0.779490564,14528,443.359375,128
-17.13270928,-237553,1.182506225,16396,1.034296278,14341,128,9843,0.709893192,14592,445.3125,128
0.590748261,8191,1.152575749,15981,0.896039116,12424,128,9307,0.671235999,14656,447.265625,128
-17.12802137,-237488,1.226428297,17005,0.996937275,13823,128,9383,0.676717243,14720,449.21875,128
1.195632362,16578,1.24957934,17326,0.941619985,13056,128,9159,0.660561998,14784,451.171875,128
-16.72789058,-231940,1.339731376,18576,1.096753609,15207,128,9391,0.677294216,14848,453.125,128
-16.82020626,-233220,1.249435097,17324,1.013236763,14049,128,10492,0.756700129,14912,455.078125,128
-9.300877369,-128961,1.34917931,18707,1.16368248,16135,128,11208,0.808339215,14976,457.03125,128
-18.86910961,-261629,1.285568033,17825,1.181568644,16383,128,10478,0.755690426,15040,458.984375,128
-9.310036815,-129088,1.311459698,18184,1.043095117,14463,128,10349,0.746386736,15104,460.9375,128
0.113014592,1567,1.294438993,17948,1.024704102,14208,128,10112,0.72929391,15168,462.890625,128
0.090584766,1256,1.265301855,17544,1.032204751,14312,128,10184,0.734486667,15232,464.84375,128
0.011178852,155,1.285135303,17819,1.121635571,15552,128,10435,0.752589196,15296,466.796875,128
2.076814422,28796,1.208542133,16757,1.061630376,14720,128,10628,0.766508671,15360,468.75,128
0.146695393,2034,1.287948047,17858,1.068554052,14816,128,11108,0.801127052,15424,470.703125,128
-9.377326295,-130021,1.262056382,17499,1.116947665,15487,128,10619,0.765859576,15488,472.65625,128
-9.34653036,-129594,1.288813506,17870,1.179260752,16351,128,10719,0.773071739,15552,474.609375,128
1.179332874,16352,1.142550843,15842,0.920848956,12768,128,9065,0.653782565,15616,476.5625,128
-9.452693397,-131066,1.33150951,18462,1.163393994,16131,128,10058,0.725399342,15680,478.515625,128
-8.140007632,-112865,1.301506913,18046,1.033863549,14335,128,10133,0.730808464,15744,480.46875,128
-8.261171968,-114545,1.259243638,17460,0.977320192,13551,128,9391,0.677294216,15808,482.421875,128
-9.453126127,-131072,1.270855221,17621,1.026939872,14239,128,10369,0.747829169,15872,484.375,128
0.036349301,504,1.248858124,17316,1.025136831,14214,128,10866,0.783673618,15936,486.328125,128
1.181640766,16384,1.222461608,16950,1.039128427,14408,128,9924,0.715735044,16000,488.28125,128
1.215682175,16856,1.259892733,17469,1.172409197,16256,128,11779,0.849520665,16064,490.234375,128
2.100109708,29119,1.285351668,17822,1.170245549,16226,128,10617,0.765715333,16128,492.1875,128
-8.179818771,-113417,1.257007868,17429,1.180558941,16369,128,10903,0.786342119,16192,494.140625,128
0.071544656,992,1.250877529,17344,1.172553441,16258,128,10888,0.785260294,16256,496.09375,128
1.181712887,16385,1.280952249,17761,1.03393567,14336,128,11108,0.801127052,16320,498.046875,128
-8.267085942,-114627,1.296819007,17981,1.180558941,16369,128,10945,0.789371227,16384,500,128
0.003317595,46,1.244530826,17256,1.177024982,16320,128,10893,0.785620902,16448,501.953125,128
1.194478416,16562,1.23140469,17074,1.103172434,15296,128,10955,0.790092443,16512,503.90625,128
-7.31147436,-101377,1.249507219,17325,1.031555656,14303,128,10207,0.736145465,16576,505.859375,128
-7.680664978,-106496,1.188564442,16480,1.039633279,14415,128,10331,0.745088547,16640,507.8125,128
1.190295361,16504,1.333961646,18496,1.181063793,16376,128,11746,0.847140652,16704,509.765625,128
1.199743295,16635,1.193901443,16554,1.061630376,14720,128,10667,0.769321414,16768,511.71875,128
-8.271413239,-114687,1.232053784,17083,1.174212238,16281,128,10553,0.761099548,16832,513.671875,128
2.069025286,28688,1.201402092,16658,1.025136831,14214,128,10142,0.731457559,16896,515.625,128
-8.270403537,-114673,1.258738787,17453,1.043095117,14463,128,10823,0.780572388,16960,517.578125,128
-9.419301083,-130603,1.275471005,17685,1.108870042,15375,128,11309,0.8156235,17024,519.53125,128
-9.370691105,-129929,1.239482312,17186,1.174789211,16289,128,10651,0.768167468,17088,521.484375,128
0.004615784,64,1.188348077,16477,0.959506149,13304,128,10114,0.729438153,17152,523.4375,128
0.00223577,31,1.174067995,16279,0.950851554,13184,128,10136,0.731024829,17216,525.390625,128
2.100398195,29123,1.225562838,16993,1.18048682,16368,128,11446,0.825504163,17280,527.34375,128
-9.434446625,-130813,1.306339062,18113,1.040787225,14431,128,10988,0.792472457,17344,529.296875,128
-8.271485361,-114688,1.327110091,18401,1.172625562,16259,128,12286,0.886086331,17408,531.25,128
-7.607100917,-105476,1.283332262,17794,1.135410802,15743,128,11255,0.811728932,17472,533.203125,128
2.103860033,29171,1.292635953,17923,1.146878141,15902,128,11362,0.819445946,17536,535.15625,128
-8.243790656,-114304,1.285207425,17820,1.180991671,16375,128,10596,0.764200779,17600,537.109375,128
-9.45283764,-131068,1.257584841,17437,1.174644968,16287,128,10653,0.768311711,17664,539.0625,128
1.216763999,16871,1.203493619,16687,0.88738452,12304,128,9396,0.677654824,17728,541.015625,128
0.029930476,415,1.204503322,16701,0.964121933,13368,128,9456,0.681982122,17792,542.96875,128
0.037070517,514,1.219865229,16914,1.015472533,14080,128,9484,0.684001527,17856,544.921875,128
-9.450890356,-131041,1.381489799,19155,1.146950262,15903,128,10839,0.781726334,17920,546.875,128
-9.338885467,-129488,1.273163113,17653,1.179260752,16351,128,11231,0.809998013,17984,548.828125,128
-9.305998004,-129032,1.317229428,18264,1.05030728,14563,128,10979,0.791823362,18048,550.78125,128
0.023944381,332,1.280591641,17756,1.179332874,16352,128,10658,0.768672319,18112,552.734375,128
1.167793413,16192,1.169235846,16212,0.955467338,13248,128,10129,0.730519978,18176,554.6875,128
-8.21609595,-113920,1.218711283,16898,1.013092519,14047,128,9374,0.676068148,18240,556.640625,128
-8.253599197,-114440,1.347376269,18682,1.177241347,16323,128,11715,0.844904881,18304,558.59375,128
-8.156811971,-113098,1.300785697,18036,1.034440522,14343,128,10918,0.787423943,18368,560.546875,128
-8.255330116,-114464,1.218350675,16893,1.177241347,16323,128,10782,0.777615401,18432,562.5,128
-9.010587813,-124936,1.249435097,17324,1.108870042,15375,128,11838,0.853775841,18496,564.453125,128
-9.26907173,-128520,1.402477193,19446,1.110023988,15391,128,12027,0.867406829,18560,566.40625,128
-7.678573451,-106467,1.193829321,16553,1.12603499,15613,128,10469,0.755041332,18624,568.359375,128
-7.384100841,-102384,1.278427992,17726,0.92279624,12795,128,10091,0.727779356,18688,570.3125,128
-9.310613788,-129096,1.250877529,17344,1.04280663,14459,128,10254,0.739535181,18752,572.265625,128
1.166062494,16168,1.110673083,15400,0.738381235,10238,128,9900,0.714004125,18816,574.21875,128
-8.862377866,-122881,1.16988494,16221,1.14464237,15871,128,10601,0.764561387,18880,576.171875,128
2.298588431,31871,1.264580639,17534,1.036099319,14366,128,10838,0.781654213,18944,578.125,128
2.226466802,30871,1.231765298,17079,1.145002978,15876,128,10293,0.742347925,19008,580.078125,128
0.295554435,4098,0.925032011,12826,0.980854151,13600,128,9505,0.685516082,19072,582.03125,128
-7.530724112,-104417,1.340813201,18591,1.181424401,16381,128,11089,0.799756741,19136,583.984375,128
1.180414698,16367,1.168730994,16205,1.176736495,16316,128,12076,0.870940789,19200,585.9375,128
-9.387206958,-130158,1.100143325,15254,1.180991671,16375,128,11047,0.796727633,19264,587.890625,128
0.028848652,400,1.250084192,17333,1.180342577,16366,128,11628,0.838630299,19328,589.84375,128
0.005048514,70,0.457251126,6340,1.112115516,15420,128,11636,0.839207272,19392,591.796875,128
-4.286981736,-59441,1.00826037,13980,1.036171441,14367,128,10941,0.78908274,19456,593.75,128
-8.566895553,-118784,0.910607685,12626,1.033863549,14335,128,10239,0.738453357,19520,595.703125,128
-4.708388413,-65284,1.051821834,14584,1.172914049,16263,128,10646,0.76780686,19584,597.65625,128
0.278750095,3865,0.851107341,11801,1.107643975,15358,128,10994,0.792905187,19648,599.609375,128
-4.712859954,-65346,0.375753686,5210,1.068770417,14819,128,9861,0.711191381,19712,601.5625,128
-4.717403617,-65409,0.419387271,5815,0.895245778,12413,128,9393,0.677438459,19776,603.515625,128
0.668279012,9266,0.331038276,4590,1.14904179,15932,128,9751,0.703258002,19840,605.46875,128
0.036854152,511,0.816921689,11327,0.891423332,12360,128,9470,0.682991825,19904,607.421875,128
-8.41226678,-116640,0.577622125,8009,1.032132629,14311,128,10688,0.770835968,19968,609.375,128
0.139338987,1932,0.963761325,13363,1.172120711,16252,128,11881,0.856877071,20032,611.328125,128
0.016011002,222,0.638709144,8856,1.158561845,16064,128,11986,0.864449843,20096,613.28125,128
-4.689708911,-65025,0.733765451,10174,1.089541446,15107,128,11051,0.79701612,20160,615.234375,128
0.27629796,3831,0.233457712,3237,1.144570249,15870,128,11570,0.834447245,20224,617.1875,128
0,0,0.613971426,8513,1.019944074,14142,128,10042,0.724245396,20288,619.140625,128
-0.076521048,-1061,-0.07659317,-1062,1.177529833,16327,128,10055,0.725182977,20352,621.09375,128
0.12974681,1799,0.099744213,1383,1.181352279,16380,128,10476,0.755546183,20416,623.046875,128
0.065774925,912,0.049836045,691,1.181352279,16380,128,10808,0.779490564,20480,625,128
-0.072770723,-1009,-0.216148521,-2997,1.144930857,15875,128,10754,0.775595996,20544,626.953125,128
0.255310566,3540,0.255310566,3540,1.090190541,15116,128,11032,0.795645809,20608,628.90625,128
0.29533807,4095,0.196026587,2718,1.154955763,16014,128,10888,0.785260294,20672,630.859375,128
-0.051062113,-708,-0.346472305,-4804,1.071150431,14852,128,10981,0.791967606,20736,632.8125,128
-0.036060814,-500,-0.103278172,-1432,1.034440522,14343,128,10948,0.789587592,20800,634.765625,128
-4.724327293,-65505,0.0850314,1179,1.146950262,15903,128,10388,0.74919948,20864,636.71875,128
-0.280408893,-3888,-0.169630071,-2352,1.111827029,15416,128,10296,0.74256429,20928,638.671875,128
-0.002884865,-40,-0.487470089,-6759,0.890774237,12351,128,9080,0.654864389,20992,640.625,128
-0.036926274,-512,-0.504274428,-6992,0.90462159,12543,128,9066,0.653854686,21056,642.578125,128
-0.016155245,-224,-0.57964153,-8037,0.96441042,13372,128,9769,0.704556192,21120,644.53125,128
-0.583319734,-8088,-0.268508824,-3723,1.033791427,14334,128,9929,0.716095652,21184,646.484375,128
-0.146623271,-2033,-0.16119184,-2235,1.015472533,14080,128,11115,0.801631904,21248,648.4375,128
-0.032526855,-451,-0.512856902,-7111,1.10786034,15361,128,12053,0.869281992,21312,650.390625,128
-0.503264726,-6978,-0.484945832,-6724,1.179332874,16352,128,12143,0.875772938,21376,652.34375,128
-0.281418595,-3902,-0.538171594,-7462,1.116947665,15487,128,11519,0.830769042,21440,654.296875,128
-0.205402399,-2848,-0.507592023,-7038,1.029824737,14279,128,9988,0.720350828,21504,656.25,128
-0.452418977,-6273,-0.510188402,-7074,1.171904346,16249,128,10057,0.725327221,21568,658.203125,128
-0.493961035,-6849,-0.489850103,-6792,1.040787225,14431,128,10334,0.745304912,21632,660.15625,128
-0.591325234,-8199,-0.594787073,-8247,1.032709602,14319,128,10063,0.72575995,21696,662.109375,128
-0.522232714,-7241,-0.522232714,-7241,1.052326685,14591,128,10479,0.755762548,21760,664.0625,128
-0.004327298,-60,-0.603802276,-8372,0.98078203,13599,128,9531,0.687391244,21824,666.015625,128
-0.146046298,-2025,-0.573222706,-7948,1.02419925,14201,128,9819,0.708162273,21888,667.96875,128
-0.518121781,-7184,-0.545311635,-7561,1.035955076,14364,128,10329,0.744944304,21952,669.921875,128
-0.519275727,-7200,-0.40294354,-5587,1.181568644,16383,128,11260,0.81208954,22016,671.875,128
-0.581083963,-8057,-0.543003743,-7529,1.153873939,15999,128,10328,0.744872182,22080,673.828125,128
-0.004543663,-63,-0.419964244,-5823,1.1450751,15877,128,11333,0.817354419,22144,675.78125,128
-0.168404003,-2335,-0.463525708,-6427,1.18091955,16374,128,11622,0.83819757,22208,677.734375,128
-0.590748261,-8191,-0.551946825,-7653,1.159066696,16071,128,11479,0.827884177,22272,679.6875,128
-0.886807547,-12296,-0.5738718,-7957,1.116442813,15480,128,11594,0.836178164,22336,681.640625,128
-0.590315532,-8185,-0.564423867,-7826,0.955467338,13248,128,16899,1.218783405,22400,683.59375,128
-0.295049583,-4091,-0.528002444,-7321,0.957919473,13282,128,19723,1.422454884,22464,685.546875,128
-0.461578424,-6400,-0.381018565,-5283,1.042590266,14456,128,11274,0.813099243,22528,687.5,128
-0.257906945,-3576,-0.539397662,-7479,1.108870042,15375,128,11533,0.831778745,22592,689.453125,128
-0.293246543,-4066,-0.524035755,-7266,1.17962136,16356,128,12229,0.881975398,22656,691.40625,128
-0.534493391,-7411,-0.526415768,-7299,1.146950262,15903,128,11805,0.851395828,22720,693.359375,128
-0.27896646,-3868,-0.573799679,-7956,1.153657574,15996,128,11464,0.826802352,22784,695.3125,128
-0.502831996,-6972,-0.502255023,-6964,1.051461226,14579,128,12738,0.918685307,22848,697.265625,128
-0.293246543,-4066,-0.533411566,-7396,1.028021697,14254,128,14124,1.018645885,22912,699.21875,128
-0.583896707,-8096,-0.512352051,-7104,0.004543663,63,128,16953,1.222677973,22976,701.171875,128
-0.039017801,-541,-0.636184887,-8821,0.08279563,1148,128,17524,1.263859423,23040,703.125,128
-0.590820383,-8192,-0.578992436,-8028,0.293102299,4064,128,20456,1.475320038,23104,705.078125,128
-0.58981068,-8178,-0.50831324,-7048,1.038479333,14399,128,12474,0.899645197,23168,707.03125,128
-0.556274123,-7713,-0.455375964,-6314,1.163393994,16131,128,14123,1.018573763,23232,708.984375,128
-0.222206738,-3081,-0.476074872,-6601,1.101297271,15270,128,15268,1.101153028,23296,710.9375,128
-0.296564138,-4112,-0.439581327,-6095,1.156109709,16030,128,16026,1.155821223,23360,712.890625,128
-0.147705096,-2048,-0.443115287,-6144,1.06624616,14784,128,26946,1.943389409,23424,714.84375,128
-0.294328367,-4081,-0.550648636,-7635,0.891134845,12356,128,24789,1.787823056,23488,716.796875,128
-0.29533807,-4095,-0.566082664,-7849,0.131405608,1822,128,20316,1.46522301,23552,718.75,128
-0.091522347,-1269,-0.53002185,-7349,0.886807547,12296,128,28681,2.068520435,23616,720.703125,128
-0.58627672,-8129,-0.53579158,-7429,1.148392695,15923,128,19456,1.403198409,23680,722.65625,128
-0.286250745,-3969,-0.524107876,-7267,0.145541447,2018,128,22888,1.650719839,23744,724.609375,128
-0.032382611,-449,-0.555985636,-7709,0.006923676,96,128,26027,1.877109632,23808,726.5625,128
-0.558077163,-7738,-0.562260218,-7796,0.902818549,12518,128,24974,1.801165557,23872,728.515625,128
-0.480041561,-6656,-0.475425777,-6592,1.174572846,16286,128,14234,1.026579264,23936,730.46875,128
-0.553966231,-7681,-0.297790205,-4129,1.24647811,17283,128,19346,1.39526503,24000,732.421875,128
-5.77E-04,-8,-0.399625945,-5541,0.290794407,4032,128,19664,1.418199708,24064,734.375,128
-0.03721476,-516,-0.48177248,-6680,1.167721292,16191,128,31524,2.273562226,24128,736.328125,128
-1.038551454,-14400,-0.741482465,-10281,0.046157842,640,128,22178,1.599513483,24192,738.28125,128
-0.014352204,-199,-0.80812285,-11205,1.105480326,15328,128,31661,2.283442889,24256,740.234375,128
-0.007500649,-104,-0.635175185,-8807,0.07349194,1019,128,36499,2.632367329,24320,742.1875,128
-0.664672931,-9216,-0.62832363,-8712,0.573366949,7950,128,40728,2.937369697,24384,744.140625,128
-0.001803041,-25,-0.657316525,-9114,1.117452516,15494,128,28068,2.024309876,24448,746.09375,128
-0.627818778,-8705,-0.627963022,-8707,0.041469937,575,128,33343,2.404751468,24512,748.046875,128
-0.277091298,-3842,-0.536873405,-7444,0.222423103,3084,128,35900,2.589166473,24576,750,128
-0.518193903,-7185,-0.472324547,-6549,0.553966231,7681,128,21029,1.516645732,24640,751.953125,128
-0.147272366,-2042,-0.442105584,-6130,0.571131178,7919,128,40621,2.929652683,24704,753.90625,128
-0.12931408,-1793,-0.425301245,-5897,0.06909252,958,128,33714,2.431508593,24768,755.859375,128
-0.577117273,-8002,-0.560096569,-7766,0.886519061,12292,128,41244,2.974584457,24832,757.8125,128
-0.276586446,-3835,-0.566226908,-7851,0.917964091,12728,128,41274,2.976748106,24896,759.765625,128
-0.260575445,-3613,-0.545888608,-7569,0.942485445,13068,128,38076,2.746103137,24960,761.71875,128
-0.553677744,-7677,-0.557572312,-7731,0.452346856,6272,128,41344,2.98179662,25024,763.671875,128
-0.263243945,-3650,-0.569905111,-7902,1.177890441,16332,128,32584,2.350011152,25088,765.625,128
-0.886302696,-12289,-0.615269615,-8531,0.960083122,13312,128,42036,3.031704787,25152,767.578125,128
-0.020771029,-288,-0.537594621,-7454,0.452418977,6273,128,20611,1.486498891,25216,769.53125,128
-0.478382764,-6633,-0.478599129,-6636,0.533050958,7391,128,21723,1.566698142,25280,771.484375,128
-0.587070058,-8140,-0.573222706,-7948,0.585843991,8123,128,39867,2.875272974,25344,773.4375,128
-1.09855665,-15232,-0.636689739,-8828,0.54949469,7619,128,40387,2.912776221,25408,775.390625,128
-0.583896707,-8096,-0.546826189,-7582,0.461289938,6396,128,39153,2.823778131,25472,777.34375,128
-0.629693941,-8731,-0.788938497,-10939,0.293390786,4068,128,36836,2.656672318,25536,779.296875,128
-0.554254717,-7685,-0.554326839,-7686,1.048792726,14542,128,41694,3.00703919,25600,781.25,128
-0.002380014,-33,-0.514876308,-7139,0.455159599,6311,128,39343,2.837481241,25664,783.203125,128
-0.018318894,-254,-0.807906486,-11202,5.77E-04,8,128,33866,2.44247108,25728,785.15625,128
-1.144786614,-15873,-0.708667124,-9826,0.587286423,8143,128,40606,2.928570858,25792,787.109375,128
-0.591180991,-8197,-0.608490182,-8437,1.036171441,14367,128,41817,3.015910151,25856,789.0625,128
-0.50831324,-7048,-0.501894415,-6959,0.279327068,3873,128,19301,1.392019557,25920,791.015625,128
-0.553966231,-7681,-0.56723661,-7865,1.128559247,15648,128,42276,3.049013978,25984,792.96875,128
-0.600196195,-8322,-0.604235006,-8378,0.952510351,13207,128,41783,3.013458015,26048,794.921875,128
-0.002307892,-32,-0.618370845,-8574,0.145397204,2016,128,34665,2.500096262,26112,796.875,128
-0.702176178,-9736,-0.70448407,-9768,1.035089616,14352,128,41328,2.980642674,26176,798.828125,128
-0.813459851,-11279,-0.838702421,-11629,0.904765833,12545,128,41253,2.975233552,26240,800.78125,128
-0.002163649,-30,-0.504707158,-6998,0.58670945,8135,128,40716,2.936504237,26304,802.734375,128
-0.060077317,-833,-0.79881916,-11076,0.014712812,204,128,34509,2.488845287,26368,804.6875,128
-0.221701887,-3074,-0.769826266,-10674,0.348996562,4839,128,38639,2.786707614,26432,806.640625,128
-0.009231568,-128,-0.67303904,-9332,0.590531896,8188,128,40916,2.950928563,26496,808.59375,128
-0.518410268,-7188,-0.527641836,-7316,1.117019786,15488,128,41108,2.964775916,26560,810.546875,128
-0.581733058,-8066,-0.563269921,-7810,1.181280158,16379,128,30186,2.177063486,26624,812.5,128
-0.032382611,-449,-0.660129268,-9153,0.586132477,8127,128,40879,2.948260063,26688,814.453125,128
-0.553966231,-7681,-0.55483169,-7693,0.515813889,7152,128,37732,2.721293297,26752,816.40625,128
-1.116514935,-15481,-0.986263274,-13675,0.553605622,7676,128,39420,2.843034606,26816,818.359375,128
-0.644767361,-8940,-0.637843685,-8844,0.886230574,12288,128,40993,2.956481928,26880,820.3125,128
-1.172481319,-16257,-0.886374818,-12290,1.052110321,14588,128,41452,2.989585756,26944,822.265625,128
-1.163538237,-16133,-0.723379937,-10030,0.445134693,6172,128,39193,2.826662997,27008,824.21875,128
-0.59997983,-8319,-0.792905187,-10994,0.574376652,7964,128,40410,2.914435019,27072,826.171875,128
-0.447875315,-6210,-0.448308044,-6216,0.032238368,447,128,41919,3.023266557,27136,828.125,128
-0.110490335,-1532,-0.685660325,-9507,0.264253648,3664,128,36433,2.627607301,27200,830.078125,128
-0.110490335,-1532,-0.502615631,-6969,0.264253648,3664,128,42818,3.088103901,27264,832.03125,128
-0.295410191,-4096,-0.535430972,-7424,1.107139123,15351,128,44006,3.173784396,27328,833.984375,128
-0.284447704,-3944,-0.819806554,-11367,1.17031767,16227,128,45891,3.309733666,27392,835.9375,128
-1.042662387,-14457,-1.359564824,-18851,1.181063793,16376,128,45648,3.29220811,27456,837.890625,128
-0.605821682,-8400,-0.823773244,-11422,0.893154251,12384,128,45153,3.256507904,27520,839.84375,128
-0.605821682,-8400,-0.842957597,-11688,0.893154251,12384,128,46694,3.367647334,27584,841.796875,128
-0.295554435,-4098,-0.892577278,-12376,0.018318894,254,128,50386,3.633920387,27648,843.75,128
-0.057480938,-797,-0.945514553,-13110,0.179510734,2489,128,52153,3.761359306,27712,845.703125,128
-0.030002598,-416,-0.509972037,-7071,0.443620139,6151,128,53261,3.84127007,27776,847.65625,128
-0.443115287,-6144,-0.420036366,-5824,0.572429368,7937,128,54799,3.952193135,27840,849.609375,128
-0.414266636,-5744,-0.421046069,-5838,0.589666437,8176,128,56752,4.093046676,27904,851.5625,128
-0.582310031,-8074,-0.481916723,-6682,1.035017495,14351,128,59423,4.285683547,27968,853.515625,128
-1.181640766,-16384,-0.643901902,-8928,1.087017189,15072,128,60069,4.332274119,28032,855.46875,128
-0.857742531,-11893,-0.820816257,-11381,1.05297578,14600,128,58187,4.196541214,28096,857.421875,128
-0.734198181,-10180,-0.826441744,-11459,0.008582474,119,128,52583,3.792371606,28160,859.375,128
3.58091099,49651,-0.826441744,-11459,0,0,128,52583,3.792371606,28224,861.328125,128
0.013342501,185,0.013342501,185,0,0,131,770048,55.537116,28288,863.28125,128
-1.089397203,-15105,-363.668481,-5042433,0,0,141,0,0,28352,865.234375,128
-2.363281532,-32768,-363.668481,-5042433,0,0,141,0,0,28416,867.1875,128
0,0,0.009808542,136,0,0,131,-5849088,-421.8457534,28480,869.140625,0
4.135742681,57344,0.009808542,136,0.886230574,12288,131,-5849088,-421.8457534,28544,871.09375,128
-2.363281532,-32768,-278.3548687,-3859520,0,0,0,-7087873,-511.1889453,28608,873.046875,0
-1.181640766,-16384,-1.289678966,-17882,0.071544656,992,128,37993,2.740117042,28672,875,0
4.431152872,61440,239.8730755,3325952,1.181063793,16376,0,3211192,231.5963974,28736,876.953125,0
-0.129386202,-1794,-209.4135153,-2903616,0.590748261,8191,0,-6901505,-497.7477816,28800,878.90625,128
-2.303348458,-31937,-209.4135153,-2903616,1.155027885,16015,0,-6901505,-497.7477816,28864,880.859375,0
-0.590820383,-8192,-0.784034226,-10871,0.570049354,7904,128,40481,2.919555654,28928,882.8125,128
-0.147705096,-2048,-0.730808464,-10133,0.572357246,7936,128,38822,2.799905872,28992,884.765625,128
-0.016227366,-225,-0.729438153,-10114,0.429267934,5952,128,39318,2.8356782,29056,886.71875,128
-0.890846359,-12352,-0.540840094,-7499,0.018030407,250,128,41684,3.006317974,29120,888.671875,128
-0.033392314,-463,-0.536152188,-7434,1.181568644,16383,128,41897,3.021679881,29184,890.625,128
-0.036421423,-505,-0.581083963,-8057,0.573006341,7945,128,37084,2.674558482,29248,892.578125,128
-1.109591259,-15385,-0.559519596,-7758,1.125818625,15610,128,42870,3.091854226,29312,894.53125,128
-0.225091603,-3121,-0.542787378,-7526,1.141180532,15823,128,41768,3.012376191,29376,896.484375,128
-0.590820383,-8192,-1.040859346,-14432,1.051461226,14579,128,40729,2.937441818,29440,898.4375,128
-0.073924669,-1025,-0.824133852,-11427,1.110600962,15399,128,42222,3.04511941,29504,900.390625,128
-0.590315532,-8185,-0.743069141,-10303,1.047783023,14528,128,40942,2.952803725,29568,902.34375,128
-0.001153946,-16,-0.611375047,-8477,1.03480113,14348,128,41753,3.011294366,29632,904.296875,128
-2.88E-04,-4,-0.778841469,-10799,0.919406524,12748,128,41698,3.007327677,29696,906.25,128
-1.181640766,-16384,-0.533772175,-7401,1.107788218,15360,128,42735,3.082117806,29760,908.203125,128
-0.029930476,-415,-0.553461379,-7674,1.042085414,14449,128,36579,2.638137059,29824,910.15625,128
-0.574520895,-7966,-0.562260218,-7796,1.051389104,14578,128,41994,3.028675679,29888,912.109375,128
-0.004615784,-64,-0.694459163,-9629,1.043095117,14463,128,41518,2.994345784,29952,914.0625,128
-0.009231568,-128,-0.671235999,-9307,0.955467338,13248,128,41881,3.020525935,30016,916.015625,128
-1.016626479,-14096,-0.962030406,-13339,1.107788218,15360,128,42161,3.040719991,30080,917.96875,128
-0.01016915,-141,-0.768023225,-10649,1.181063793,16376,128,43000,3.101230037,30144,919.921875,128
-0.772062036,-10705,-0.626304224,-8684,1.181496523,16382,128,41389,2.985042093,30208,921.875,128
-0.012981893,-180,-0.634814576,-8802,1.03480113,14348,128,42300,3.050744897,30272,923.828125,128
0.020698907,287,-1.308574833,-18144,1.031627778,14304,128,42611,3.073174724,30336,925.78125,128
-0.332408587,-4609,-0.613899304,-8512,1.174500725,16285,128,42767,3.084425698,30400,927.734375,128
-0.002019406,-28,-0.525910917,-7292,1.163105507,16127,128,43131,3.110677971,30464,929.6875,128
-0.534926121,-7417,-0.492302238,-6826,1.163177629,16128,128,42916,3.095171821,30528,931.640625,128
-0.589450072,-8173,-0.727418748,-10086,1.181568644,16383,128,42023,3.030767206,30592,933.59375,128
-0.001153946,-16,-0.730736343,-10132,1.181135914,16377,128,42888,3.093152415,30656,935.546875,128
-0.293390786,-4068,-0.895894873,-12422,1.163177629,16128,128,42659,3.076636562,30720,937.5,128
1.44E-04,2,-0.896255481,-12427,1.069131025,14824,128,42855,3.090772401,30784,939.453125,128
-0.064693101,-897,-0.944144242,-13091,1.148753303,15928,128,43459,3.134333865,30848,941.40625,128
-0.549350446,-7617,-1.049225455,-14548,1.032132629,14311,128,42929,3.096109402,30912,943.359375,128
-0.693305217,-9613,-0.812882878,-11271,0.999533653,13859,128,41918,3.023194435,30976,945.3125,128
-1.181640766,-16384,-1.156253953,-16032,0.921353808,12775,128,42068,3.034012679,31040,947.265625,128
-1.181929252,-16388,-0.849232179,-11775,1.035089616,14352,128,43649,3.148036974,31104,949.21875,128
-0.95777523,-13280,-0.703113759,-9749,1.153873939,15999,128,42214,3.044542437,31168,951.171875,128
-1.110312475,-15395,-1.409040261,-19537,0.923156848,12800,128,41711,3.008265258,31232,953.125,128
-0.295410191,-4096,-1.373772785,-19048,1.052326685,14591,128,42009,3.029757503,31296,955.078125,128
-0.294761097,-4087,-1.438321643,-19943,1.029896859,14280,128,41994,3.028675679,31360,957.03125,128
-2.215720679,-30722,-1.352857513,-18758,1.179549239,16355,128,42947,3.097407591,31424,958.984375,128
0.068659791,952,-0.901664603,-12502,1.179332874,16352,128,44096,3.180275342,31488,960.9375,128
-0.002307892,-32,-0.944576972,-13097,1.050379401,14564,128,43429,3.132170216,31552,962.890625,128
0.00223577,31,-1.023189547,-14187,1.172697684,16260,128,41963,3.026439908,31616,964.84375,128
-1.255493314,-17408,-0.858968599,-11910,1.107932461,15362,128,43280,3.121424093,31680,966.796875,128
-0.516967835,-7168,-0.821609595,-11392,1.12646772,15619,128,43169,3.113418593,31744,968.75,128
-0.895462143,-12416,-0.835456948,-11584,1.036892657,14377,128,43278,3.12127985,31808,970.703125,128
-0.017309191,-240,-1.040282373,-14424,1.181496523,16382,128,42998,3.101085794,31872,972.65625,128
-0.036637787,-508,-0.885076628,-12272,1.181568644,16383,128,42967,3.098850024,31936,974.609375,128
0.069236764,960,-1.215826418,-16858,1.181496523,16382,128,42102,3.036464815,32000,976.5625,128
0.128592864,1783,-1.436662845,-19920,1.107643975,15358,128,42871,3.091926347,32064,978.515625,128
-1.036820535,-14376,-0.852405531,-11819,1.179837725,16359,128,44732,3.226144698,32128,980.46875,128
-1.179477117,-16354,-1.425988844,-19772,1.039633279,14415,128,42716,3.080747495,32192,982.421875,128
-0.290866529,-4033,-1.004510046,-13928,1.18048682,16368,128,43085,3.107360376,32256,984.375,128
0.018391015,255,-1.603768659,-22237,1.180342577,16366,128,42354,3.054639465,32320,986.328125,128
-2.88E-04,-4,-0.759729238,-10534,1.116947665,15487,128,44089,3.179770491,32384,988.28125,128
0.260214837,3608,-1.389134692,-19261,1.050090915,14560,128,43539,3.140103595,32448,990.234375,128
-0.582165787,-8072,-1.06227947,-14729,1.112331881,15423,128,44429,3.204291845,32512,992.1875,128
-0.524035755,-7266,-1.244963556,-17262,1.070934066,14849,128,42931,3.096253645,32576,994.140625,128
0,0,-0.850458247,-11792,0.904549468,12542,128,42154,3.040215139,32640,996.09375,128
0.720278707,9987,-1.659446557,-23009,0.890125142,12342,128,41526,2.994922757,32704,998.046875,128
0,0,-2.127011076,-29492,0.945658797,13112,128,41848,3.018145921,32768,1000,128
-2.36277668,-32761,-1.845953089,-25595,1.033863549,14335,128,42474,3.063294061,32832,1001.953125,128
0.590531896,8188,-0.974002597,-13505,1.163177629,16128,128,43246,3.118971958,32896,1003.90625,128
-0.2957708,-4101,-0.995494842,-13803,1.069707998,14832,128,43381,3.128708378,32960,1005.859375,128
-0.008943082,-124,-1.26861945,-17590,1.163105507,16127,128,42992,3.100653064,33024,1007.8125,128
-0.008798839,-122,-0.826802352,-11464,1.179260752,16351,128,44748,3.227298644,33088,1009.765625,128
0.294256245,4080,-1.870979294,-25942,1.163177629,16128,128,42992,3.100653064,33152,1011.71875,128
0.545528,7564,-2.030079607,-28148,0.969026204,13436,128,42739,3.082406292,33216,1013.671875,128
-0.364791198,-5058,-1.587108563,-22006,1.108148826,15365,128,43954,3.170034071,33280,1015.625,128
0.036349301,504,-2.287986551,-31724,0.997009396,13824,128,42252,3.047283059,33344,1017.578125,128
0.110778822,1536,-1.900332797,-26349,1.125962868,15612,128,42553,3.068991669,33408,1019.53125,128
0.075871953,1052,-2.412756969,-33454,0.969314691,13440,128,42889,3.093224537,33472,1021.484375,128
-2.215648558,-30721,-2.034911756,-28215,1.052326685,14591,128,43583,3.143276947,33536,1023.4375,128
-2.081718693,-28864,-1.733226983,-24032,1.042950874,14461,128,43091,3.107793106,33600,1025.390625,128
0.002524257,35,-1.482243715,-20552,1.034079913,14338,128,43809,3.159576435,33664,1027.34375,128
-0.890413629,-12346,-0.916233172,-12704,0.001081824,15,128,44696,3.22354832,33728,1029.296875,128
-1.773615095,-24592,-2.296641147,-31844,1.181280158,16379,128,43539,3.140103595,33792,1031.25,128
0.591902207,8207,-1.721038427,-23863,1.039993887,14420,128,43093,3.107937349,33856,1033.203125,128
-2.252286345,-31229,-1.843212467,-25557,1.110023988,15391,128,44053,3.177174112,33920,1035.15625,128
0.035700206,495,-2.000149131,-27733,1.173563143,16272,128,43409,3.130727784,33984,1037.109375,128
1.162528534,16119,-2.459852393,-34107,0.887961493,12312,128,42000,3.029108409,34048,1039.0625,128
-2.054600961,-28488,-1.962213154,-27207,1.153873939,15999,128,43718,3.153013367,34112,1041.015625,128
0.109841241,1523,-2.130400792,-29539,1.035955076,14364,128,45190,3.259176404,34176,1042.96875,128
0.008077622,112,-1.550038046,-21492,1.147022384,15904,128,43266,3.120414391,34240,1044.921875,128
-1.698752844,-23554,-2.063471921,-28611,0.558437772,7743,128,42750,3.08319963,34304,1046.875,128
0.007933379,110,-1.360069675,-18858,1.108365191,15368,128,44648,3.220086482,34368,1048.828125,128
-2.072487125,-28736,-2.191199325,-30382,1.163249751,16129,128,43496,3.137002365,34432,1050.78125,128
-2.326932231,-32264,-2.295198714,-31824,1.053769118,14611,128,43003,3.101446402,34496,1052.734375,128
-2.363281532,-32768,-2.323109784,-32211,1.034440522,14343,128,43170,3.113490714,34560,1054.6875,128
0.138185041,1916,-2.047244554,-28386,1.161302467,16102,128,43739,3.154527921,34624,1056.640625,128
0.017381313,241,-2.017458322,-27973,1.052110321,14588,128,43538,3.140031474,34688,1058.59375,128
0,0,-2.239809303,-31056,1.151638168,15968,128,44093,3.180058978,34752,1060.546875,128
0.102052105,1415,-1.581915806,-21934,1.160869737,16096,128,45806,3.303603328,34816,1062.5,128
-1.103677285,-15303,-2.01781893,-27978,1.180414698,16367,128,43564,3.141906636,34880,1064.453125,128
-1.809459544,-25089,-2.194661164,-30430,0.950779432,13183,128,43203,3.115870728,34944,1066.40625,128
-2.34460203,-32509,-2.137757199,-29641,1.175654671,16301,128,44704,3.224125293,35008,1068.359375,128
0.586204599,8128,-1.710292305,-23714,1.163177629,16128,128,44933,3.240641146,35072,1070.3125,128
0.034618382,480,-1.333961646,-18496,1.069852241,14834,128,45474,3.279658947,35136,1072.265625,128
0.294184124,4079,-2.180164716,-30229,1.03393567,14336,128,45061,3.249872714,35200,1074.21875,128
-0.858031018,-11897,-2.04659546,-28377,0.886302696,12289,128,45121,3.254200012,35264,1076.171875,128
-0.587358545,-8144,-2.267431887,-31439,1.179404995,16353,128,44609,3.217273738,35328,1078.125,128
0.013847353,192,-2.204109097,-30561,1.053696996,14610,128,43346,3.126184121,35392,1080.078125,128
2.16E-04,3,-2.439658337,-33827,0.95777523,13280,128,43175,3.113851322,35456,1082.03125,128
-2.361045761,-32737,-1.791861867,-24845,1.103100312,15295,128,43872,3.164120098,35520,1083.984375,128
0.072698602,1008,-1.736616699,-24079,1.162889142,16124,128,44386,3.201190615,35584,1085.9375,128
-1.163177629,-16128,-2.037003283,-28244,1.172048589,16251,128,46083,3.323581019,35648,1087.890625,128
-1.772244784,-24573,-1.9066795,-26437,0.008149744,113,128,45373,3.272374662,35712,1089.84375,128
-2.330754677,-32317,-2.000149131,-27733,1.036027197,14365,128,45570,3.286582623,35776,1091.796875,128
0.238001375,3300,-1.963294979,-27222,1.065957673,14780,128,45386,3.273312244,35840,1093.75,128
-1.034224157,-14340,-1.833043317,-25416,1.149402398,15937,128,44959,3.242516308,35904,1095.703125,128
0.144531744,2004,-2.054528839,-28487,0.902530063,12514,128,43950,3.169745585,35968,1097.65625,128
-1.17428436,-16282,-2.345179003,-32517,1.181280158,16379,128,45549,3.285068069,36032,1099.609375,128
1.178323171,16338,-2.357944531,-32694,1.005663992,13944,128,46984,3.388562606,36096,1101.5625,128
0.009159447,127,-2.327869812,-32277,1.181496523,16382,128,45383,3.273095879,36160,1103.515625,128
0.169630071,2352,-1.863550766,-25839,1.181352279,16380,128,45100,3.252685458,36224,1105.46875,128
0.470809993,6528,-1.865353807,-25864,1.172409197,16256,128,46068,3.322499194,36288,1107.421875,128
0.286250745,3969,-1.790275191,-24823,0.017309191,240,128,45766,3.300718463,36352,1109.375,128
0.662365039,9184,-1.553067154,-21534,1.181496523,16382,128,45016,3.246627241,36416,1111.328125,128
-0.953087324,-13215,-1.884754525,-26133,0.960299487,13315,128,46371,3.344352048,36480,1113.28125,128
1.145868438,15888,-2.396673846,-33231,1.181352279,16380,128,45053,3.249295741,36544,1115.234375,128
0.036782031,510,-2.299670255,-31886,0.88738452,12304,128,45140,3.255570323,36608,1117.1875,128
-2.455597217,-34048,-2.447880202,-33941,1.146661776,15899,128,44635,3.2191489,36672,1119.140625,128
1.108076705,15364,-2.409150888,-33404,1.070573458,14844,128,43381,3.128708378,36736,1121.09375,128
-2.327292839,-32269,-2.018684389,-27990,1.093868744,15167,128,44003,3.173568031,36800,1123.046875,128
0.018102529,251,-2.309118189,-32017,1.108942164,15376,128,43568,3.142195123,36864,1125,128
0.073564061,1020,-2.271903428,-31501,1.144714492,15872,128,45385,3.273240122,36928,1126.953125,128
0.002163649,30,-2.229423789,-30912,1.181352279,16380,128,44576,3.214893724,36992,1128.90625,128
0.406261135,5633,-2.220408585,-30787,1.181496523,16382,128,43086,3.107432497,37056,1130.859375,128
0.251848728,3492,-2.39241867,-33172,1.029319886,14272,128,43356,3.126905337,37120,1132.8125,128
2.35390572,32638,-2.369051262,-32848,1.17298617,16264,128,43782,3.157629151,37184,1134.765625,128
-1.808305598,-25073,-2.249978453,-31197,1.123294368,15575,128,43604,3.144791501,37248,1136.71875,128
2.355131788,32655,-2.443625026,-33882,0.997009396,13824,128,41295,2.97826266,37312,1138.671875,128
2.359747572,32719,-2.280125294,-31615,1.126107112,15614,128,43371,3.127987162,37376,1140.625,128
0.267643364,3711,-2.458049352,-34082,1.178755901,16344,128,43136,3.111038579,37440,1142.578125,128
-2.364435478,-32784,-2.446870499,-33927,0.999245167,13855,128,41527,2.994994878,37504,1144.53125,128
-2.367897316,-32832,-2.35080449,-32595,1.126179233,15615,128,43124,3.110173119,37568,1146.484375,128
-0.00576973,-80,-2.184275649,-30286,0.002019406,28,128,44093,3.180058978,37632,1148.4375,128
0.00223577,31,-2.163144012,-29993,1.149330276,15936,128,43605,3.144863623,37696,1150.390625,128
-1.144786614,-15873,-2.183626554,-30277,0.009015204,125,128,45149,3.256219418,37760,1152.34375,128
0.29447261,4083,-2.202738786,-30542,1.181496523,16382,128,44410,3.202921534,37824,1154.296875,128
-2.527213994,-35041,-2.545965617,-35301,0.591036748,8195,128,40967,2.954606766,37888,1156.25,128
2.326427379,32257,-2.575391242,-35709,0.590820383,8192,128,40974,2.955111617,37952,1158.203125,128
2.108908547,29241,-2.539186184,-35207,0.900077927,12480,128,41859,3.018939259,38016,1160.15625,128
-2.35433845,-32644,-2.040753608,-28296,1.176664373,16315,128,42333,3.053124911,38080,1162.109375,128
-0.130395905,-1808,-2.015871646,-27951,1.144930857,15875,128,43874,3.164264341,38144,1164.0625,128
2.340202611,32448,-2.380446479,-33006,1.03393567,14336,128,43630,3.146666663,38208,1166.015625,128
2.357223315,32684,-2.237357168,-31022,1.063938268,14752,128,43196,3.115365877,38272,1167.96875,128
0.350799602,4864,-2.375109479,-32932,1.03393567,14336,128,42888,3.093152415,38336,1169.921875,128
2.36320941,32767,-2.237717776,-31027,1.113413705,15438,128,41931,3.024132016,38400,1171.875,128
0.263099702,3648,-2.164658566,-30014,1.179044387,16348,128,44040,3.176236531,38464,1173.828125,128
0.488047062,6767,-2.324191609,-32226,1.146878141,15902,128,44216,3.188929938,38528,1175.78125,128
-1.44E-04,-2,-2.381167696,-33016,1.035017495,14351,128,41650,3.003865839,38592,1177.734375,128
-2.383980439,-33055,-2.44557231,-33909,0.886446939,12291,128,41232,2.973718998,38656,1179.6875,128
2.29635266,31840,-2.269090685,-31462,1.03393567,14336,128,42414,3.058966763,38720,1181.640625,128
0.006923676,96,-2.531613413,-35102,0.886230574,12288,128,41944,3.025069597,38784,1183.59375,128
-2.511058749,-34817,-2.536445562,-35169,0.918613186,12737,128,41357,2.982734201,38848,1185.546875,128
-2.225384978,-30856,-1.692117654,-23462,1.108870042,15375,128,44063,3.177895329,38912,1187.5,128
-0.578848193,-8026,-2.29591993,-31834,1.178106806,16335,128,42958,3.098200929,38976,1189.453125,128
2.326355258,32256,-2.386288331,-33087,1.03393567,14336,128,43160,3.112769498,39040,1191.40625,128
0.145469325,2017,-2.106456412,-29207,1.042013293,14448,128,43216,3.116808309,39104,1193.359375,128
-0.018535259,-257,-2.420690348,-33564,1.035305981,14355,128,43031,3.103465808,39168,1195.3125,128
2.363281532,32768,-2.346621435,-32537,1.120481625,15536,128,43184,3.114500417,39232,1197.265625,128
2.36277668,32761,-2.403597522,-33327,1.108365191,15368,128,42248,3.046994573,39296,1199.21875,128
-0.506510199,-7023,-2.278971348,-31599,1.033430819,14329,128,42243,3.046633964,39360,1201.171875,128
-0.074934372,-1039,-2.449034148,-33957,1.032853846,14321,128,42212,3.044398194,39424,1203.125,128
-2.468939718,-34233,-2.491297423,-34543,1.033863549,14335,128,42304,3.051033384,39488,1205.078125,128
2.21795645,30753,-2.318782487,-32151,1.033647184,14332,128,43266,3.120414391,39552,1207.03125,128
-0.941692107,-13057,-2.391192602,-33155,1.149835128,15943,128,43226,3.117529525,39616,1208.984375,128
2.291592633,31774,-2.404967833,-33346,1.181063793,16376,128,42397,3.057740695,39680,1210.9375,128
2.290510808,31759,-2.130545036,-29541,1.145724195,15886,128,42588,3.071515926,39744,1212.890625,128
-0.225957063,-3133,-2.408790279,-33399,1.181280158,16379,128,42575,3.070578345,39808,1214.84375,128
0.114024295,1581,-2.236635952,-31012,1.162023683,16112,128,43033,3.103610051,39872,1216.796875,128
-0.005697609,-79,-2.38491802,-33068,1.116082205,15475,128,43198,3.11551012,39936,1218.75,128
-2.433095268,-33736,-2.449322635,-33961,1.153873939,15999,128,42352,3.054495222,40000,1220.703125,128
2.291448389,31772,-2.450043851,-33971,1.162023683,16112,128,42598,3.072237143,40064,1222.65625,128
2.25250271,31232,-2.472762164,-34286,1.068554052,14816,128,41952,3.02564657,40128,1224.609375,128
0.154845137,2147,-1.859944684,-25789,0.028704408,398,128,43434,3.132530824,40192,1226.5625,128
0.008077622,112,-2.26490763,-31404,1.176880738,16318,128,43956,3.170178314,40256,1228.515625,128
-2.418526699,-33534,-2.415064861,-33486,1.040787225,14431,128,41943,3.024997476,40320,1230.46875,128
2.363137288,32766,-2.497427761,-34628,0.950851554,13184,128,41891,3.021247151,40384,1232.421875,128
0.280985866,3896,-2.079338679,-28831,1.172264954,16254,128,42366,3.055504925,40448,1234.375,128
0.069236764,960,-2.446365648,-33920,0.903539765,12528,128,41632,3.002567649,40512,1236.328125,128
2.289573227,31746,-2.488628923,-34506,0.951428527,13192,128,41864,3.019299867,40576,1238.28125,128
-0.536007945,-7432,-2.313012756,-32071,1.180703185,16371,128,42898,3.093873631,40640,1240.234375,128
-0.291082894,-4036,-2.316979446,-32126,1.158633966,16065,128,42512,3.066034683,40704,1242.1875,128
0.004038811,56,-2.357079072,-32682,1.181496523,16382,128,43146,3.111759795,40768,1244.140625,128
2.349434179,32576,-2.373594925,-32911,1.102451217,15286,128,44791,3.230399874,40832,1246.09375,128
-1.146950262,-15903,-2.356790585,-32678,1.180991671,16375,128,44141,3.183520816,40896,1248.046875,128
2.360901518,32735,-2.364291235,-32782,1.03393567,14336,128,42013,3.03004599,40960,1250,128
-0.888466345,-12319,-1.784361218,-24741,1.052903658,14599,128,41772,3.012664677,41024,1251.953125,128
0.222567346,3086,-2.497283518,-34626,0.99672091,13820,128,42388,3.057091601,41088,1253.90625,128
-2.380590723,-33008,-2.571352431,-35653,0.960011001,13311,128,40891,2.949125522,41152,1255.859375,128
0.581444571,8062,-2.61383207,-36242,0.550143784,7628,128,40341,2.909458626,41216,1257.8125,128
-0.147777217,-2049,-2.434754066,-33759,1.061558254,14719,128,42269,3.048509127,41280,1259.765625,128
-2.364219113,-32781,-2.396601724,-33230,1.180414698,16367,128,43438,3.132819311,41344,1261.71875,128
2.434970431,33762,-2.31005577,-32030,0.027694705,384,128,44416,3.203354264,41408,1263.671875,128
-0.147488731,-2045,-2.058495529,-28542,1.117236151,15491,128,44163,3.185107492,41472,1265.625,128
-2.365589424,-32800,-2.494831383,-34592,1.036171441,14367,128,43030,3.103393686,41536,1267.578125,128
-2.391913818,-33165,-2.392779278,-33177,1.03790236,14391,128,43191,3.115005268,41600,1269.53125,128
-2.367031856,-32820,-2.482426462,-34420,1.10786034,15361,128,42059,3.033363585,41664,1271.484375,128
0.06909252,958,-2.442615323,-33868,1.17962136,16356,128,42885,3.09293605,41728,1273.4375,128
2.363281532,32768,-2.350876612,-32596,1.145724195,15886,128,42526,3.067044385,41792,1275.390625,128
-0.499802887,-6930,-2.274571928,-31538,0.589738558,8177,128,40951,2.95345282,41856,1277.34375,128
0.147416609,2044,-2.363570018,-32772,1.181352279,16380,128,42616,3.073535332,41920,1279.296875,128
1.137718694,15775,-2.405689049,-33356,1.181496523,16382,128,42958,3.098200929,41984,1281.25,128
2.47831553,34363,-2.147421497,-29775,1.051821834,14584,128,43101,3.108514322,42048,1283.203125,128
-0.058130033,-806,-2.01161647,-27892,1.164259453,16143,128,43744,3.154888529,42112,1285.15625,128
-0.001875162,-26,-2.223581937,-30831,1.135699288,15747,128,43961,3.170538923,42176,1287.109375,128
0.008654595,120,-2.344529908,-32508,1.165197035,16156,128,43357,3.126977459,42240,1289.0625,128
-2.289645349,-31747,-2.151460308,-29831,1.181135914,16377,128,43546,3.140608447,42304,1291.015625,128
-0.073275575,-1016,-2.406915117,-33373,1.034440522,14343,128,42464,3.062572844,42368,1292.96875,128
-2.353184504,-32628,-2.177784703,-30196,1.126323477,15617,128,42680,3.078151116,42432,1294.921875,128
-7.21E-05,-1,-2.518920007,-34926,1.005736113,13945,128,42553,3.068991669,42496,1296.875,128
-0.016155245,-224,-2.412540604,-33451,1.143776911,15859,128,43103,3.108658565,42560,1298.828125,128
-0.00223577,-31,-2.3698446,-32859,1.126179233,15615,128,43227,3.117601647,42624,1300.78125,128
0.001009703,14,-2.396890211,-33234,1.054418213,14620,128,43356,3.126905337,42688,1302.734375,128
2.476151881,34333,-2.274355563,-31535,1.177024982,16320,128,42947,3.097407591,42752,1304.6875,128
-0.589666437,-8176,-2.361839099,-32748,1.152719993,15983,128,44143,3.183665059,42816,1306.640625,128
-0.072698602,-1008,-2.343664449,-32496,1.16368248,16135,128,43527,3.139238136,42880,1308.59375,128
-2.358737869,-32705,-2.359819694,-32720,1.163393994,16131,128,42754,3.083488117,42944,1310.546875,128
2.409150888,33404,-2.161917944,-29976,1.181352279,16380,128,43108,3.109019173,43008,1312.5,128
2.792477345,38719,-1.953847045,-27091,0.004327298,60,128,44152,3.184314154,43072,1314.453125,128
2.6426086,36641,-1.86153136,-25811,1.107211245,15352,128,43968,3.171043774,43136,1316.40625,128
1.154450912,16007,-2.427614025,-33660,1.018934371,14128,128,42273,3.048797613,43200,1318.359375,128
-0.082002292,-1137,-2.461799677,-34134,0.886879669,12297,128,41353,2.982445715,43264,1320.3125,128
0.293607151,4071,-2.39775567,-33246,1.144714492,15872,128,43029,3.103321565,43328,1322.265625,128
-0.009015204,-125,-2.409872104,-33414,1.06891466,14821,128,42547,3.06855894,43392,1324.21875,128
-0.073852548,-1024,-2.337606232,-32412,1.043383603,14467,128,42978,3.099643362,43456,1326.171875,128
2.364363356,32783,-2.368257924,-32837,1.180342577,16366,128,44002,3.173495909,43520,1328.125,128
-0.555913515,-7708,-2.215360071,-30717,1.112331881,15423,128,42733,3.081973562,43584,1330.078125,128
-2.88E-04,-4,-2.401361752,-33296,1.032709602,14319,128,43512,3.138156311,43648,1332.03125,128
2.368185802,32836,-2.104437006,-29179,1.04720605,14520,128,43054,3.105124605,43712,1333.984375,128
-2.358088774,-32696,-2.414415767,-33477,1.181568644,16383,128,42496,3.064880736,43776,1335.9375,128
2.207210327,30604,-2.480407057,-34392,0.959938879,13310,128,42969,3.098994267,43840,1337.890625,128
1.180703185,16371,-2.469228204,-34237,1.033358697,14328,128,42491,3.064520128,43904,1339.84375,128
-2.403741765,-33329,-2.403741765,-33329,1.034007792,14337,128,43073,3.106494916,43968,1341.796875,128
-0.017381313,-241,-2.399342346,-33268,1.033286575,14327,128,42660,3.076708684,44032,1343.75,128
-0.004615784,-64,-2.45884269,-34093,1.164836426,16151,128,42871,3.091926347,44096,1345.703125,128
-0.011250974,-156,-2.376840398,-32956,1.108293069,15367,128,44071,3.178472302,44160,1347.65625,128
2.364363356,32783,-2.324119487,-32225,1.163177629,16128,128,44826,3.232924132,44224,1349.609375,128
1.107571853,15357,-2.453505689,-34019,1.181063793,16376,128,43866,3.163687368,44288,1351.5625,128
1.181280158,16379,-2.38268225,-33037,1.106634272,15344,128,44019,3.174721977,44352,1353.515625,128
-1.034079913,-14338,-2.093402397,-29026,1.170173427,16225,128,43073,3.106494916,44416,1355.46875,128
2.362271829,32754,-2.511707844,-34826,0.904982198,12548,128,41220,2.972853538,44480,1357.421875,128
2.22019222,30784,-2.487763463,-34494,0.88738452,12304,128,41429,2.987926959,44544,1359.375,128
2.362920924,32763,-2.408646036,-33397,1.144714492,15872,128,42528,3.067188629,44608,1361.328125,128
-0.036349301,-504,-2.461439068,-34129,1.144930857,15875,128,42404,3.058245547,44672,1363.28125,128
-0.147560852,-2046,-2.39508717,-33209,1.137718694,15775,128,43131,3.110677971,44736,1365.234375,128
2.365517302,32799,-2.240746884,-31069,1.108653678,15372,128,43638,3.147243637,44800,1367.1875,128
2.954029793,40959,-2.421700051,-33578,1.179332874,16352,128,42073,3.034373287,44864,1369.140625,128
2.220697072,30791,-2.515169682,-34874,0.918541064,12736,128,41749,3.01100588,44928,1371.09375,128
-0.055100924,-764,-2.48805195,-34498,1.016554358,14095,128,42320,3.05218733,44992,1373.046875,128
2.261950643,31363,-2.409367253,-33407,1.124953166,15598,128,42280,3.049302465,45056,1375,128
-0.018463137,-256,-2.380302236,-33004,1.181568644,16383,128,42462,3.062428601,45120,1376.953125,128
-6.49E-04,-9,-2.364002748,-32778,1.10786034,15361,128,43137,3.111110701,45184,1378.90625,128
2.364219113,32781,-2.323109784,-32211,1.107788218,15360,128,43040,3.104114903,45248,1380.859375,128
-0.153474826,-2128,-2.536084954,-35164,0.895534265,12417,128,41621,3.001774311,45312,1382.8125,128
2.33089892,32319,-2.471319732,-34266,0.959217663,13300,128,41589,2.999466419,45376,1384.765625,128
1.116370692,15479,-2.496634423,-34617,1.062640078,14734,128,41864,3.019299867,45440,1386.71875,128
-7.21E-05,-1,-2.402082968,-33306,1.06978012,14833,128,43413,3.13101627,45504,1388.671875,128
3.549754447,49219,-2.357944531,-32694,1.172409197,16256,128,43136,3.111038579,45568,1390.625,128
4.508467258,62512,-2.281351361,-31632,0.004038811,56,128,44512,3.21027794,45632,1392.578125,128
3.822734812,53004,-2.080781112,-28851,1.174428603,16284,128,43956,3.170178314,45696,1394.53125,128
-4.146200317,-57489,-2.392346548,-33171,1.125169531,15601,128,44275,3.193185114,45760,1396.484375,128
2.306738175,31984,-2.422132781,-33584,1.163177629,16128,128,43520,3.138733284,45824,1398.4375,128
-2.358593626,-32703,-2.356862707,-32679,1.121851936,15555,128,43227,3.117601647,45888,1400.390625,128
-2.35347299,-32632,-2.441028648,-33846,1.036171441,14367,128,43065,3.105917943,45952,1402.34375,128
-0.021131637,-293,-2.597388339,-36014,0.886446939,12291,128,41572,2.998240351,46016,1404.296875,128
-0.004543663,-63,-2.208797003,-30626,1.006168843,13951,128,42716,3.080747495,46080,1406.25,128
2.503990829,34719,-2.463097866,-34152,1.123943463,15584,128,41739,3.010284663,46144,1408.203125,128
-0.05315364,-737,-2.35787241,-32693,1.180991671,16375,128,43908,3.166716476,46208,1410.15625,128
2.363137288,32766,-2.391048359,-33153,1.181496523,16382,128,43861,3.16332676,46272,1412.109375,128
-0.267138513,-3704,-2.354122085,-32641,1.172914049,16263,128,43617,3.145729082,46336,1414.0625,128
-4.498081743,-62368,-2.432229809,-33724,1.146661776,15899,128,42515,3.066251047,46400,1416.015625,128
2.068159827,28676,-2.533777062,-35132,0.887096034,12300,128,41581,2.998889446,46464,1417.96875,128
-0.034906868,-484,-2.43273466,-33731,1.167288562,16185,128,42851,3.090483915,46528,1419.921875,128
-0.016443731,-228,-2.324335852,-32228,2.16E-04,3,128,43906,3.166572233,46592,1421.875,128
7.171774765,99440,-2.283442889,-31661,1.162889142,16124,128,45281,3.265739473,46656,1423.828125,128
2.27550951,31551,-2.452568108,-34006,1.144714492,15872,128,43048,3.104691876,46720,1425.78125,128
-0.01016915,-141,-2.39422171,-33197,1.070212849,14839,128,43447,3.133468405,46784,1427.734375,128
-0.036493544,-506,-2.46901184,-34234,1.177241347,16323,128,42946,3.097335469,46848,1429.6875,128
2.36320941,32767,-2.377705857,-32968,1.125097409,15600,128,43140,3.111327065,46912,1431.640625,128
-2.357223315,-32684,-2.301833904,-31916,1.167721292,16191,128,42554,3.069063791,46976,1433.59375,128
5.309882797,73624,-2.444562607,-33895,1.108076705,15364,128,42236,3.046129113,47040,1435.546875,128
-4.671245774,-64769,-2.464756663,-34175,1.017852547,14113,128,42285,3.049663073,47104,1437.5,128
-4.608788444,-63903,-2.54077286,-35229,0.96707892,13409,128,42051,3.032786612,47168,1439.453125,128
-0.055461533,-769,-2.479325232,-34377,1.034152035,14339,128,43671,3.14962365,47232,1441.40625,128
2.298588431,31871,-2.459924514,-34108,1.181496523,16382,128,43737,3.154383678,47296,1443.359375,128
-2.354049963,-32640,-2.055177934,-28496,1.110600962,15399,128,44122,3.182150505,47360,1445.3125,128
-1.108365191,-15368,-2.390038656,-33139,1.145219343,15879,128,42919,3.095388185,47424,1447.265625,128
2.217307355,30744,-2.492235004,-34556,1.031627778,14304,128,42909,3.094666969,47488,1449.21875,128
-0.002452135,-34,-2.430210403,-33696,1.17695286,16319,128,42958,3.098200929,47552,1451.171875,128
2.29411689,31809,-2.413983037,-33471,1.177024982,16320,128,42715,3.080675373,47616,1453.125,128
-4.522963705,-62713,-2.466703947,-34202,0.955683703,13251,128,41922,3.023482922,47680,1455.078125,128
-3.674236378,-50945,-2.482498584,-34421,1.033863549,14335,128,43002,3.101374281,47744,1457.03125,128
-0.144603866,-2005,-2.480190692,-34389,1.050595766,14567,128,41959,3.026151422,47808,1458.984375,128
-4.181395672,-57977,-2.417589118,-33521,1.10079242,15263,128,41753,3.011294366,47872,1460.9375,128
2.362127586,32752,-2.382826493,-33039,1.145147222,15878,128,42502,3.065313466,47936,1462.890625,128
-7.21E-05,-1,-2.437206201,-33793,1.037181143,14381,128,43177,3.113995566,48000,1464.84375,128
2.3468378,32540,-2.379653141,-32995,1.163177629,16128,128,42597,3.072165021,48064,1466.796875,128
5.019665363,69600,-2.374748871,-32927,1.143560546,15856,128,43479,3.135776298,48128,1468.75,128
3.581560085,49660,-2.332413475,-32340,1.051100618,14574,128,43214,3.116664066,48192,1470.703125,128
-4.265994342,-59150,-2.44247108,-33866,1.176375887,16311,128,42935,3.096542131,48256,1472.65625,128
-4.708821143,-65290,-2.519785466,-34938,0.913708915,12669,128,41817,3.015910151,48320,1474.609375,128
-3.808021999,-52800,-2.603302312,-36096,0.586420964,8131,128,40651,2.931816331,48384,1476.5625,128
-5.77E-04,-8,-2.594503474,-35974,0.555408663,7701,128,40629,2.930229656,48448,1478.515625,128
-4.578930089,-63489,-2.514232101,-34861,1.048720604,14541,128,41417,2.987061499,48512,1480.46875,128
-0.004615784,-64,-2.40395813,-33332,1.181568644,16383,128,42627,3.07432867,48576,1482.421875,128
-2.293612038,-31802,-2.101768506,-29142,1.175221941,16295,128,44600,3.216624643,48640,1484.375,128
-2.88E-04,-4,-2.384268926,-33059,1.172481319,16257,128,44001,3.173423788,48704,1486.328125,128
-0.055173046,-765,-2.3981884,-33252,1.116947665,15487,128,43899,3.166067382,48768,1488.28125,128
-4.45985728,-61838,-2.474060354,-34304,1.091560852,15135,128,43144,3.111615552,48832,1490.234375,128
-0.13284804,-1842,-2.481272516,-34404,1.034873251,14349,128,43085,3.107360376,48896,1492.1875,128
-4.24688211,-58885,-2.43980258,-33829,1.177097103,16321,128,42827,3.088752996,48960,1494.140625,128
5.834567646,80899,-2.409223009,-33405,1.104037893,15308,128,43868,3.163831611,49024,1496.09375,128
3.839106421,53231,-2.150017875,-29811,1.04057086,14428,128,43225,3.117457404,49088,1498.046875,128
2.33443288,32368,-2.394438075,-33200,1.168803116,16206,128,43614,3.145512717,49152,1500,128
-0.29137138,-4040,-2.359242721,-32712,1.180703185,16371,128,44323,3.196646952,49216,1501.953125,128
3.549393839,49214,-2.286255632,-31700,0,0,128,45228,3.261917026,49280,1503.90625,128
3.599157762,49904,-2.313229121,-32074,1.176736495,16316,128,44216,3.188929938,49344,1505.859375,128
-0.064693101,-897,-2.409583617,-33410,1.180991671,16375,128,44054,3.177246234,49408,1507.8125,128
-1.177024982,-16320,-2.302194512,-31921,1.034440522,14343,128,43599,3.144430893,49472,1509.765625,128
-4.431441358,-61444,-2.439081364,-33819,1.181568644,16383,128,43859,3.163182516,49536,1511.71875,128
5.169894716,71683,-2.498653829,-34645,1.16764917,16190,128,44346,3.19830575,49600,1513.671875,128
5.761364193,79884,-2.454731757,-34036,1.144570249,15870,128,44398,3.202056074,49664,1515.625,128
-0.071111926,-986,-2.402082968,-33306,1.144930857,15875,128,44706,3.224269536,49728,1517.578125,128
2.360396667,32728,-2.403597522,-33327,1.070284971,14840,128,45401,3.274394068,49792,1519.53125,128
-7.21E-05,-1,-2.420185497,-33557,1.181568644,16383,128,44986,3.244463592,49856,1521.484375,128
-1.172481319,-16257,-2.239953547,-31058,1.181568644,16383,128,44779,3.229534415,49920,1523.4375,128
-0.018391015,-255,-2.251925737,-31224,0.019400718,269,128,45943,3.313483991,49984,1525.390625,128
-5.77E-04,-8,-2.457400257,-34073,1.043095117,14463,128,44667,3.221456793,50048,1527.34375,128
2.359170599,32711,-2.441389256,-33851,1.052398807,14592,128,45340,3.269994649,50112,1529.296875,128
2.287121092,31712,-2.460213001,-34112,1.109807624,15388,128,46108,3.32538406,50176,1531.25,128
-4.14987852,-57540,-2.397034454,-33236,1.108870042,15375,128,46187,3.331081668,50240,1533.203125,128
-4.431801967,-61449,-2.383547709,-33049,1.180703185,16371,128,46371,3.344352048,50304,1535.15625,128
-3.545715636,-49163,-2.48985499,-34523,1.155749101,16025,128,44187,3.186838411,50368,1537.109375,128
-0.006995798,-97,-2.416579415,-33507,1.168875238,16207,128,44876,3.236530213,50432,1539.0625,128
-4.521737638,-62696,-2.467641529,-34215,1.167288562,16185,128,43827,3.160874624,50496,1541.015625,128
2.346982044,32542,-2.453722054,-34022,1.0343684,14342,128,43406,3.130511419,50560,1542.96875,128
-0.004615784,-64,-2.377056763,-32959,1.153873939,15999,128,44666,3.221384671,50624,1544.921875,128
-2.29454962,-31815,-2.322244325,-32199,1.178106806,16335,128,44751,3.227515009,50688,1546.875,128
-2.219975855,-30781,-2.233823208,-30973,0.056471235,783,128,45933,3.312762775,50752,1548.828125,128
-4.191204213,-58113,-2.423503092,-33603,1.034152035,14339,128,43043,3.104331267,50816,1550.78125,128
5.907843221,81915,-2.370060965,-32862,1.179332874,16352,128,44516,3.210566427,50880,1552.734375,128
7.089339744,98297,-2.376335547,-32949,1.108365191,15368,128,44090,3.179842613,50944,1554.6875,128
5.171914121,71711,-2.491225301,-34542,1.121635571,15552,128,43456,3.1341175,51008,1556.640625,128
5.178837798,71807,-2.474204597,-34306,1.145724195,15886,128,43166,3.113202228,51072,1558.59375,128
-4.579939792,-63503,-2.37561433,-32939,1.105985177,15335,128,43941,3.16909649,51136,1560.546875,128
-0.06642402,-921,-2.516900601,-34898,1.034440522,14343,128,42967,3.098850024,51200,1562.5,128
-4.137978451,-57375,-2.385855602,-33081,1.046556955,14511,128,43809,3.159576435,51264,1564.453125,128
3.562375732,49394,-2.378354952,-32977,1.14817633,15920,128,43473,3.135343568,51328,1566.40625,128
2.289140497,31740,-2.438288026,-33808,1.172409197,16256,128,42656,3.076420197,51392,1568.359375,128
-4.273206505,-59250,-2.463819082,-34162,1.110023988,15391,128,42459,3.062212236,51456,1570.3125,128
-4.28582779,-59425,-2.532118265,-35109,0.981359003,13607,128,42286,3.049735194,51520,1572.265625,128
-4.726346699,-65533,-2.580079148,-35774,0.890774237,12351,128,41263,2.975954768,51584,1574.21875,128
6.795444107,94222,-2.553826875,-35410,0.588368248,8158,128,40154,2.895971882,51648,1576.171875,128
5.317311325,73727,-2.45617419,-34056,1.181496523,16382,128,42434,3.060409195,51712,1578.125,128
-4.726563063,-65536,-2.450837189,-33982,1.040931468,14433,128,43115,3.109524025,51776,1580.078125,128
2.358449383,32701,-2.479469476,-34379,1.17471709,16288,128,42285,3.049663073,51840,1582.03125,128
-0.002091527,-29,-2.417877605,-33525,1.116514935,15481,128,42363,3.05528856,51904,1583.984375,128
2.307819999,31999,-2.421339443,-33573,1.181496523,16382,128,43006,3.101662767,51968,1585.9375,128
-0.111932768,-1552,-2.450837189,-33982,1.043095117,14463,128,43074,3.106567038,52032,1587.890625,128
-0.146623271,-2033,-2.48942226,-34517,1.135699288,15747,128,42251,3.047210937,52096,1589.84375,128
-0.005697609,-79,-2.479757962,-34383,1.036171441,14367,128,43031,3.103465808,52160,1591.796875,128
-4.135886924,-57346,-2.384341047,-33060,1.177241347,16323,128,43978,3.17176499,52224,1593.75,128
5.245622426,72733,-2.4211952,-33571,1.177024982,16320,128,42833,3.089185725,52288,1595.703125,128
2.270965847,31488,-2.455597217,-34048,1.177024982,16320,128,42688,3.078728089,52352,1597.65625,128
2.33443288,32368,-2.419824889,-33552,1.052254564,14590,128,43184,3.114500417,52416,1599.609375,128
2.217740085,30750,-2.471896705,-34274,1.051821834,14584,128,41976,3.027377489,52480,1601.5625,128
2.06787134,28672,-2.520362439,-34946,0.57697303,8000,128,41459,2.990090607,52544,1603.515625,128
2.36320941,32767,-2.365517302,-32799,0.001153946,16,128,43348,3.126328364,52608,1605.46875,128
-4.135886924,-57346,-2.381888912,-33026,1.116947665,15487,128,43080,3.106999768,52672,1607.421875,128
2.355997247,32667,-2.386721061,-33093,1.181352279,16380,128,43005,3.101590646,52736,1609.375,128
-3.605143858,-49987,-2.406193901,-33363,1.070645579,14845,128,43373,3.128131405,52800,1611.328125,128
-0.110850943,-1537,-2.489205896,-34514,1.033863549,14335,128,42655,3.076348075,52864,1613.28125,128
-2.509976925,-34802,-2.509976925,-34802,0.957847352,13281,128,41579,2.998745203,52928,1615.234375,128
5.309233702,73615,-2.370710059,-32871,1.177457711,16326,128,42966,3.098777902,52992,1617.1875,128
-4.269600424,-59200,-2.459059055,-34096,1.167721292,16191,128,42542,3.068198331,53056,1619.140625,128
-4.281428371,-59364,-2.504351438,-34724,1.014390709,14065,128,42161,3.040719991,53120,1621.09375,128
-4.576622197,-63457,-2.501827181,-34689,1.04323936,14465,128,41611,3.001053095,53184,1623.046875,128
-0.147416609,-2044,-2.466776069,-34203,1.179404995,16353,128,42437,3.06062556,53248,1625,128
-7.21E-05,-1,-2.458554203,-34089,1.104254258,15311,128,41759,3.011727096,53312,1626.953125,128
2.362848802,32762,-2.513727249,-34854,0.55836565,7742,128,40696,2.935061805,53376,1628.90625,128
-0.057697303,-800,-2.420113375,-33556,1.108870042,15375,128,43097,3.108225835,53440,1630.859375,128
-4.209523107,-58367,-2.43360012,-33743,1.108004583,15363,128,43298,3.122722283,53504,1632.8125,128
5.742540448,79623,-2.527790967,-35049,0.958352203,13288,128,41834,3.017136218,53568,1634.765625,128
2.306016958,31974,-2.55671174,-35450,0.932244174,12926,128,41598,3.000115514,53632,1636.71875,128
2.289140497,31740,-2.437422566,-33796,1.181352279,16380,128,42844,3.089979063,53696,1638.671875,128
-4.576622197,-63457,-2.495191991,-34597,1.089541446,15107,128,41735,3.009996177,53760,1640.625,128
-0.071616777,-993,-2.571208187,-35651,0.90952586,12611,128,41283,2.977397201,53824,1642.578125,128
-0.020771029,-288,-2.46194392,-34136,1.179260752,16351,128,42835,3.089329969,53888,1644.53125,128
3.615313007,50128,-2.218533423,-30761,0.004615784,64,128,46538,3.35639636,53952,1646.484375,128
-2.272264036,-31506,-2.258416683,-31314,0.003678203,51,128,45875,3.30857972,54016,1648.4375,128
3.551845974,49248,-2.28438047,-31674,0.017886164,248,128,47345,3.414598514,54080,1650.390625,128
-1.177097103,-16321,-2.045441514,-28361,1.108293069,15367,128,47108,3.397505688,54144,1652.34375,128
-3.553072042,-49265,-2.435331039,-33767,1.162240048,16115,128,48771,3.517443957,54208,1654.296875,128
5.907915343,81916,-2.415425469,-33491,0.151743907,2104,128,51258,3.696810448,54272,1656.25,128
-2.361117883,-32738,-2.289645349,-31747,0.286250745,3969,128,54461,3.927816025,54336,1658.203125,128
-2.354049963,-32640,-2.47391611,-34302,0.580651233,8051,128,53442,3.854324085,54400,1660.15625,128
-4.592993807,-63684,-2.519641223,-34936,0.369190618,5119,128,55849,4.027920845,54464,1662.109375,128
4.911122311,68095,-2.383547709,-33049,0.590531896,8188,128,58596,4.22603896,54528,1664.0625,128
4.63475223,64263,-2.011472227,-27890,1.772749635,24580,128,60180,4.34027962,54592,1666.015625,128
4.63475223,64263,-2.35700695,-32681,1.772749635,24580,128,60444,4.35931973,54656,1667.96875,128
-0.001153946,-16,-2.421555808,-33576,1.110023988,15391,128,59375,4.282221709,54720,1669.921875,128
-0.002740622,-38,-2.513727249,-34854,0.442754679,6139,128,55139,3.976714489,54784,1671.875,128
-4.292751466,-59521,-2.53413767,-35137,0.035123233,487,128,50578,3.64776774,54848,1673.828125,128
-4.292751466,-59521,-2.580295513,-35777,0.035123233,487,128,47362,3.415824582,54912,1675.78125,128
2.354049963,32640,-2.554403848,-35418,0.886230574,12288,128,45276,3.265378864,54976,1677.734375,128
2.354049963,32640,-2.499014437,-34650,0.886230574,12288,128,40900,2.949774617,55040,1679.6875,128
-4.726563063,-65536,-2.536445562,-35169,0.574016043,7959,128,40028,2.886884557,55104,1681.640625,128
4.727067915,65543,-2.612029029,-36217,0.517544808,7176,128,39226,2.82904301,55168,1683.59375,128
-0.008149744,-113,-2.554908699,-35425,0.443331652,6147,128,39718,2.864526852,55232,1685.546875,128
-4.168125292,-57793,-2.544234698,-35277,0.5171842,7171,128,40039,2.887677895,55296,1687.5,128
-4.467502173,-61944,-2.510337533,-34807,0.589882802,8179,128,40947,2.953164333,55360,1689.453125,128
-0.918613186,-12737,-2.095638167,-29057,0.005120636,71,128,42183,3.042306667,55424,1691.40625,128
4.754257769,65920,-2.517621817,-34908,0.551441974,7646,128,40404,2.914002289,55488,1693.359375,128
5.648133236,78314,-2.588733743,-35894,0.553894109,7680,128,40062,2.889336692,55552,1695.3125,128
-4.357372446,-60417,-2.531252805,-35097,1.039056306,14407,128,41159,2.968454119,55616,1697.265625,128
4.281428371,59364,3.053701884,42341,0,0,158,-4194304,-302.5000361,55680,1699.21875,128
-66.17202713,-917506,28.34985833,393084,0.00223577,31,137,163,0.011755825,55744,1701.171875,0
1.44E-04,2,28.34985833,393084,0.027694705,384,137,163,0.011755825,55808,1703.125,128
4.725336996,65519,3.153373975,43723,0,0,158,-4194304,-302.5000361,55872,1705.078125,128
0,0,3.153373975,43723,0,0,158,-4194304,-302.5000361,55936,1707.03125,158
0,0,-573.0957714,-7946240,1.172409197,16256,0,-3866754,-278.8765966,56000,1708.984375,0
0,0,0,0,0,0,19,-8386112,-604.8200565,56064,1710.9375,128
0,0,-2.488628923,-34506,0.590748261,8191,128,42943,3.097119105,56128,1712.890625,0
0,0,-2.517693939,-34909,1.18048682,16368,128,42591,3.071732291,56192,1714.84375,0
4.431152872,61440,-2.529089156,-35067,1.171687981,16246,128,42471,3.063077696,56256,1716.796875,0
0.069236764,960,-2.449755365,-33967,0.516895713,7167,128,42579,3.070866832,56320,1718.75,0
-4.712715711,-65344,-2.434609823,-33757,1.108004583,15363,128,43058,3.105413092,56384,1720.703125,128
9.337731521,129472,-2.460501487,-34116,1.070789822,14847,128,42456,3.061995871,56448,1722.65625,0
2.28704897,31711,-2.464323934,-34169,1.179332874,16352,128,43383,3.128852621,56512,1724.609375,128
2.358665747,32704,-2.441317134,-33850,1.144714492,15872,128,42657,3.076492319,56576,1726.5625,128
-4.265056761,-59137,-2.503846586,-34717,1.052326685,14591,128,41881,3.020525935,56640,1728.515625,128
7.09006096,98307,-2.29988662,-31889,1.141829627,15832,128,43025,3.103033078,56704,1730.46875,128
-3.564106651,-49418,-2.429561309,-33687,1.177241347,16323,128,43813,3.159864922,56768,1732.421875,128
5.797352886,80383,-2.501322329,-34682,1.034512643,14344,128,42852,3.090556036,56832,1734.375,128
-3.689165555,-51152,-2.520795169,-34952,1.04367209,14471,128,43073,3.106494916,56896,1736.328125,128
5.012669565,69503,-2.442543202,-33867,1.109951867,15390,128,43666,3.149263042,56960,1738.28125,128
-3.60124929,-49933,-2.43713408,-33792,1.178106806,16335,128,43886,3.1651298,57024,1740.234375,128
2.216586139,30734,-2.450260216,-33974,1.106634272,15344,128,44175,3.185972951,57088,1742.1875,128
-4.467574295,-61945,-2.361622734,-32745,0.004399419,61,128,43861,3.16332676,57152,1744.140625,128
7.108163489,98558,-2.39775567,-33246,1.181496523,16382,128,43516,3.138444798,57216,1746.09375,128
5.841274958,80992,-2.426604322,-33646,1.105480326,15328,128,44143,3.183665059,57280,1748.046875,128
-4.135814802,-57345,-2.333206813,-32351,0.002524257,35,128,44151,3.184242032,57344,1750,128
7.147469777,99103,-2.333134691,-32350,1.172841927,16262,128,44629,3.218716171,57408,1751.953125,128
-1.173058292,-16265,-2.450981432,-33984,1.038335089,14397,128,43157,3.112553133,57472,1753.90625,128
5.290265714,73352,-2.594719838,-35977,1.038551454,14400,128,42780,3.085363279,57536,1755.859375,128
5.780043695,80143,-2.420473983,-33561,1.145724195,15886,128,44506,3.20984521,57600,1757.8125,128
-3.600455952,-49922,-2.419103672,-33542,1.181568644,16383,128,44942,3.24129024,57664,1759.765625,128
-4.267148288,-59166,-2.489350139,-34516,1.044249063,14479,128,42739,3.082406292,57728,1761.71875,128
-4.724615779,-65509,-2.369195505,-32850,1.178106806,16335,128,43691,3.151066083,57792,1763.671875,128
-0.147705096,-2048,-2.358016653,-32695,1.180703185,16371,128,45331,3.269345554,57856,1765.625,128
-4.726490942,-65535,-2.474493083,-34310,1.179404995,16353,128,43106,3.10887493,57920,1767.578125,128
-2.28971747,-31748,-2.416940024,-33512,1.061702497,14721,128,43048,3.104691876,57984,1769.53125,128
-4.200940633,-58248,-2.38268225,-33037,1.164259453,16143,128,43748,3.155177016,58048,1771.484375,128
-2.356357855,-32672,-2.400496292,-33284,1.180703185,16371,128,43374,3.128203527,58112,1773.4375,128
5.898467409,81785,-2.41369455,-33467,1.052254564,14590,128,43564,3.141906636,58176,1775.390625,128
-2.359314842,-32713,-2.356285734,-32671,1.164403697,16145,128,43521,3.138805406,58240,1777.34375,128
-2.328302542,-32283,-2.317556419,-32134,1.176664373,16315,128,43951,3.169817706,58304,1779.296875,128
-0.480041561,-6656,-2.347631138,-32551,1.146517533,15897,128,44186,3.186766289,58368,1781.25,128
-4.19062724,-58105,-2.41456001,-33479,1.070789822,14847,128,44366,3.199748182,58432,1783.203125,128
-4.652710516,-64512,-2.387153791,-33099,1.166134616,16169,128,43935,3.16866376,58496,1785.15625,128
-4.464545186,-61903,-2.408213306,-33391,1.084781418,15041,128,43312,3.123731986,58560,1787.109375,128
-4.172813198,-57858,-2.423791578,-33607,1.178106806,16335,128,42998,3.101085794,58624,1789.0625,128
5.298920309,73472,-2.359026356,-32709,1.107788218,15360,128,44421,3.203714872,58688,1791.015625,128
5.873585448,81440,-2.406121779,-33362,1.165197035,16156,128,43436,3.132675068,58752,1792.96875,128
8.363801046,115968,-2.596883487,-36007,1.039128427,14408,128,41890,3.021175029,58816,1794.921875,128
5.178332946,71800,-2.493100464,-34568,1.14904179,15932,128,42681,3.078223238,58880,1796.875,128
-3.619135454,-50181,-2.461222704,-34126,1.090406905,15119,128,43580,3.143060582,58944,1798.828125,128
5.206532503,72191,-2.476512489,-34338,1.034079913,14338,128,43346,3.126184121,59008,1800.78125,128
-4.584050725,-63560,-2.490648328,-34534,1.128487125,15647,128,42636,3.074977764,59072,1802.734375,128
2.27550951,31551,-2.438792877,-33815,1.15394606,16000,128,44274,3.193112992,59136,1804.6875,128
2.248175412,31172,-2.446365648,-33920,1.179477117,16354,128,44303,3.19520452,59200,1806.640625,128
5.871277555,81408,-2.49425441,-34584,1.062495835,14732,128,43189,3.114861025,59264,1808.59375,128
-4.136031167,-57348,-2.431436471,-33713,1.108870042,15375,128,43624,3.146233934,59328,1810.546875,128
5.834567646,80899,-2.442615323,-33868,1.11009611,15392,128,42987,3.100292456,59392,1812.5,128
5.903588045,81856,-2.524040642,-34997,1.107788218,15360,128,42146,3.039638166,59456,1814.453125,128
5.68195828,78783,-2.495264112,-34598,1.140531437,15814,128,43287,3.121928945,59520,1816.40625,128
5.777735803,80111,-2.428046754,-33666,1.109807624,15388,128,44329,3.197079682,59584,1818.359375,128
2.355780882,32664,-2.431580714,-33715,1.116442813,15480,128,44182,3.186477803,59648,1820.3125,128
5.90690564,81902,-2.35614149,-32669,1.179332874,16352,128,45501,3.281606231,59712,1822.265625,128
7.099004042,98431,-2.34193353,-32472,1.181496523,16382,128,44639,3.219437387,59776,1824.21875,128
-2.346044462,-32529,-2.3725131,-32896,1.177962563,16333,128,44415,3.203282142,59840,1826.171875,128
-3.545138662,-49155,-2.398837495,-33261,1.107716096,15359,128,43622,3.14608969,59904,1828.125,128
7.072174796,98059,-2.405833293,-33358,1.089325081,15104,128,44120,3.182006262,59968,1830.078125,128
-3.562880583,-49401,-2.18521323,-30299,1.142911451,15847,128,44606,3.217057373,60032,1832.03125,128
8.986282824,124599,-2.44513958,-33903,1.181352279,16380,128,44516,3.210566427,60096,1833.984375,128
-3.553288407,-49268,-2.436196498,-33779,1.163393994,16131,128,44551,3.213090684,60160,1835.9375,128
-2.492595612,-34561,-2.482642827,-34423,1.038335089,14397,128,43197,3.115437998,60224,1837.890625,128
-3.563890286,-49415,-2.382826493,-33039,1.17695286,16319,128,44583,3.215398576,60288,1839.84375,128
5.834351281,80896,-2.424440673,-33616,1.153801817,15998,128,44118,3.181862018,60352,1841.796875,128
7.126193896,98808,-2.292097484,-31781,0.018463137,256,128,45877,3.308723963,60416,1843.75,128
4.450048739,61702,-1.920526853,-26629,0.10847093,1504,128,46869,3.380268619,60480,1845.703125,128
7.128718153,98843,-2.443697148,-33883,1.180631063,16370,128,42714,3.080603252,60544,1847.65625,128
-2.506442965,-34753,-2.462665136,-34146,1.017708304,14111,128,43348,3.126328364,60608,1849.609375,128
5.760570855,79873,-2.432085566,-33722,1.070284971,14840,128,43647,3.147892731,60672,1851.5625,128
-2.377705857,-32968,-2.434177093,-33751,1.071366795,14855,128,43913,3.167077084,60736,1853.515625,128
-3.691545569,-51185,-2.481993733,-34414,1.177529833,16327,128,43763,3.15625884,60800,1855.46875,128
5.796920156,80377,-2.462737258,-34147,1.052254564,14590,128,43819,3.160297651,60864,1857.421875,128
-3.553937501,-49277,-2.423070362,-33597,1.177097103,16321,128,44956,3.242299943,60928,1859.375,128
5.851011378,81127,-2.42609947,-33639,1.176448009,16312,128,43809,3.159576435,60992,1861.328125,128
-2.36320941,-32767,-2.310849108,-32041,0.004543663,63,128,44871,3.236169605,61056,1863.28125,128
7.09092642,98319,-2.381744669,-33024,1.177313468,16324,128,44494,3.208979751,61120,1865.234375,128
-3.585959504,-49721,-2.373234316,-32906,1.172337076,16255,128,44832,3.233356861,61184,1867.1875,128
-2.335658948,-32385,-2.304790891,-31957,3.61E-04,5,128,44124,3.182294748,61248,1869.140625,128
-2.299814498,-31888,-2.042989378,-28327,1.164259453,16143,128,43818,3.16022553,61312,1871.09375,128
9.1579323,126979,-2.337173502,-32406,1.111538543,15412,128,44068,3.178255937,61376,1873.046875,128
-3.553072042,-49265,-2.516828479,-34897,1.17781832,16331,128,43979,3.171837112,61440,1875,128
-3.577954004,-49610,-2.428767971,-33676,1.172914049,16263,128,44935,3.240785389,61504,1876.953125,128
-3.683467946,-51073,-2.456102068,-34055,1.144930857,15875,128,44571,3.214533116,61568,1878.90625,128
-3.60038383,-49921,-2.570486971,-35641,1.181568644,16383,128,44104,3.180852316,61632,1880.859375,128
5.167081972,71644,-2.361334248,-32741,1.158561845,16064,128,45325,3.268912824,61696,1882.8125,128
-0.90505432,-12549,-1.900260675,-26348,0.009159447,127,128,47179,3.402626324,61760,1884.765625,128
-1.181135914,-16377,-2.41456001,-33479,1.181568644,16383,128,44638,3.219365265,61824,1886.71875,128
8.272350821,114700,-2.30695454,-31987,1.181352279,16380,128,45118,3.253983647,61888,1888.671875,128
7.092008244,98334,-2.29721812,-31852,1.163177629,16128,128,46829,3.377383754,61952,1890.625,128
-1.107788218,-15360,-2.291304146,-31770,1.181568644,16383,128,45934,3.312834896,62016,1892.578125,128
8.29975704,115080,-2.270172509,-31477,1.145724195,15886,128,44939,3.241073876,62080,1894.53125,128
7.237333326,100349,-2.232092289,-30949,1.107211245,15352,128,46274,3.33735625,62144,1896.484375,128
-2.067078002,-28661,-2.352319044,-32616,1.066751011,14791,128,45504,3.281822596,62208,1898.4375,128
5.904165018,81864,-2.449322635,-33961,0.997009396,13824,128,45742,3.298987543,62272,1900.390625,128
5.76742241,79968,-2.420473983,-33561,0.950851554,13184,128,46260,3.336346547,62336,1902.34375,128
4.724255171,65504,-2.351020855,-32598,1.17962136,16356,128,46146,3.328124681,62400,1904.296875,128
-4.172596833,-57855,-2.421627929,-33577,1.17695286,16319,128,44596,3.216336157,62464,1906.25,128
-3.546076244,-49168,-2.399919319,-33276,1.177529833,16327,128,45864,3.307786382,62528,1908.203125,128
7.094171893,98364,-2.056836731,-28519,1.127116815,15628,128,46088,3.323941627,62592,1910.15625,128
-2.363570018,-32772,-2.377633736,-32967,1.110023988,15391,128,46105,3.325167695,62656,1912.109375,128
6.939903729,96225,-2.524761859,-35007,0.955467338,13248,128,45636,3.291342651,62720,1914.0625,128
5.765042396,79935,-2.466199096,-34195,1.036820535,14376,128,45608,3.289323245,62784,1916.015625,128
-2.365084572,-32793,-2.39508717,-33209,1.172481319,16257,128,45321,3.268624338,62848,1917.96875,128
-3.546869582,-49179,-2.3698446,-32859,1.161374588,16103,128,44783,3.229822901,62912,1919.921875,128
5.903443802,81854,-2.389894413,-33137,1.179044387,16348,128,45948,3.313844599,62976,1921.875,128
-0.064909466,-900,-2.39112048,-33154,1.153585452,15995,128,46743,3.371181294,63040,1923.828125,128
5.907843221,81915,-2.428695849,-33675,1.163177629,16128,128,45651,3.292424475,63104,1925.78125,128
5.908131708,81919,-2.429921917,-33692,1.04143632,14440,128,45363,3.271653446,63168,1927.734375,128
-2.381744669,-33024,-2.365373059,-32797,1.179260752,16351,128,46228,3.334038655,63232,1929.6875,128
5.907987464,81917,-2.402732063,-33315,1.179044387,16348,128,46045,3.320840397,63296,1931.640625,128
7.087536703,98272,-2.530243102,-35083,1.175871036,16304,128,43758,3.155898232,63360,1933.59375,128
5.898972261,81792,-2.434898309,-33761,1.052254564,14590,128,44644,3.219797995,63424,1935.546875,128
7.074843296,98096,-2.41145878,-33436,1.179477117,16354,128,44482,3.208114291,63488,1937.5,128
-3.616971805,-50151,-2.388163494,-33113,1.164259453,16143,128,44758,3.228019861,63552,1939.453125,128
5.316301622,73713,-2.409799982,-33413,1.107355488,15354,128,45986,3.316585221,63616,1941.40625,128
-4.145334857,-57477,-2.343303841,-32491,1.181568644,16383,128,45831,3.305406368,63680,1943.359375,128
-2.247670561,-31165,-2.305223621,-31963,7.21E-05,1,128,45148,3.256147296,63744,1945.3125,128
-3.54903323,-49209,-2.509183587,-34791,1.112331881,15423,128,44099,3.180491707,63808,1947.265625,128
5.284423862,73271,-2.43316739,-33737,1.051244861,14576,128,45189,3.259104283,63872,1949.21875,128
-2.363425775,-32770,-2.433239512,-33738,1.161951561,16111,128,44237,3.190444492,63936,1951.171875,128
6.97892153,96766,-2.589887689,-35910,0.888394223,12318,128,42166,3.041080599,64000,1953.125,128
-2.582603405,-35809,-2.582603405,-35809,0.994629382,13791,128,42456,3.061995871,64064,1955.078125,128
-2.476368246,-34336,-2.48761922,-34492,1.089252959,15103,128,43683,3.15048911,64128,1957.03125,128
-2.656455953,-36833,-2.525410953,-35016,1.14464237,15871,128,43375,3.128275648,64192,1958.984375,128
-4.657254178,-64575,-2.523175183,-34985,1.16498067,16153,128,43833,3.161307354,64256,1960.9375,128
4.736010997,65667,-2.391192602,-33155,1.181496523,16382,128,44433,3.204580331,64320,1962.890625,128
-2.363281532,-32768,-2.339048664,-32432,0.029930476,415,128,45393,3.273817095,64384,1964.84375,128
-3.561149664,-49377,-2.45927542,-34099,1.042950874,14461,128,44343,3.198089385,64448,1966.796875,128
6.946755284,96320,-2.497499883,-34629,1.047783023,14528,128,43326,3.124741688,64512,1968.75,128
5.873585448,81440,-2.465766366,-34189,1.042013293,14448,128,43004,3.101518524,64576,1970.703125,128
7.055154092,97823,-2.567169376,-35595,0.987777828,13696,128,41911,3.022689584,64640,1972.65625,128
5.908131708,81919,-2.371287033,-32879,0.016299488,226,128,44983,3.244247227,64704,1974.609375,128
-2.515674533,-34881,-2.508173884,-34777,1.17695286,16319,128,43127,3.110389484,64768,1976.5625,128
-2.474420962,-34309,-2.522237602,-34972,1.038479333,14399,128,43594,3.144070285,64832,1978.515625,128
6.812609054,94460,-2.504495681,-34726,1.043022995,14462,128,43401,3.13015081,64896,1980.46875,128
5.776653978,80096,-2.428695849,-33675,1.177024982,16320,128,44396,3.201911831,64960,1982.421875,128
-2.366166397,-32808,-2.412035753,-33444,1.181568644,16383,128,44152,3.184314154,65024,1984.375,128
6.973800894,96695,-2.417444875,-33519,1.18048682,16368,128,44497,3.209196116,65088,1986.328125,128
5.894644963,81732,-2.431580714,-33715,1.171255251,16240,128,44896,3.237972646,65152,1988.28125,128
7.018516304,97315,-2.434609823,-33757,1.105480326,15328,128,43874,3.164264341,65216,1990.234375,128
7.079459081,98160,-2.521227899,-34958,1.019944074,14142,128,42874,3.092142712,65280,1992.1875,128
-2.620755746,-36338,-2.615274503,-36262,0.988282679,13703,128,42391,3.057307965,65344,1994.140625,128
6.904203523,95730,-2.562769957,-35534,1.01532829,14078,128,42216,3.04468668,65408,1996.09375,128
5.621953085,77951,-2.631501869,-36487,0.960083122,13312,128,42273,3.048797613,65472,1998.046875,128
2.358593626,32703,-2.664822062,-36949,1.108076705,15364,128,42109,3.036969666,0,2000,128
-4.374609515,-60656,-2.508318127,-34779,1.177529833,16327,128,43556,3.141329663,64,2001.953125,128
-3.562231488,-49392,-2.46194392,-34136,1.178106806,16335,128,43669,3.149479407,128,2003.90625,128
-3.678203068,-51000,-2.49425441,-34584,1.17738559,16325,128,43688,3.150849718,192,2005.859375,128
-3.554225988,-49281,-2.517261209,-34903,1.163393994,16131,128,42698,3.079449305,256,2007.8125,128
-3.553288407,-49268,-2.401217508,-33294,5.05E-04,7,128,44370,3.200036669,320,2009.765625,128
9.158004422,126980,-2.434177093,-33751,0,0,128,43608,3.145079988,384,2011.71875,128
5.836082201,80920,-2.454948122,-34039,1.176448009,16312,128,44269,3.192752384,448,2013.671875,128
7.088690649,98288,-2.352968139,-32625,0,0,128,44324,3.196719074,512,2015.625,128
-1.177097103,-16321,-2.466199096,-34195,1.164403697,16145,128,42816,3.087959658,576,2017.578125,128
-3.70135411,-51321,-2.558226294,-35471,1.0316999,14305,128,42346,3.054062492,640,2019.53125,128
-3.610625101,-50063,-2.533632819,-35130,1.025208953,14215,128,42859,3.091060888,704,2021.484375,128
-3.551845974,-49248,-2.459780271,-34106,1.120409503,15535,128,42977,3.09957124,768,2023.4375,128
-2.492451369,-34559,-2.454948122,-34039,1.120409503,15535,128,43181,3.114284052,832,2025.390625,128
6.942211621,96257,-2.491008936,-34539,1.03393567,14336,128,43076,3.106711281,896,2027.34375,128
7.070155391,98031,-2.461799677,-34134,1.112115516,15420,128,43176,3.113923444,960,2029.296875,128
7.087536703,98272,-2.522526088,-34976,1.033358697,14328,128,42856,3.090844523,1024,2031.25,128
7.052990443,97793,-2.573227593,-35679,1.146878141,15902,128,42526,3.067044385,1088,2033.203125,128
-2.519136372,-34929,-2.516972723,-34899,1.151998776,15973,128,42053,3.032930855,1152,2035.15625,128
6.977911827,96752,-2.452135378,-34000,1.180198333,16364,128,42668,3.077285657,1216,2037.109375,128
4.906362284,68029,-2.451197797,-33987,1.1734189,16270,128,43790,3.158206124,1280,2039.0625,128
7.088907014,98291,-2.410088469,-33417,1.181352279,16380,128,43749,3.155249137,1344,2041.015625,128
5.908059586,81918,-2.382321642,-33032,1.163177629,16128,128,43698,3.151570934,1408,2042.96875,128
-2.363353653,-32769,-2.520723047,-34951,1.034873251,14349,128,42714,3.080603252,1472,2044.921875,128
-2.576761553,-35728,-2.619529679,-36321,1.108004583,15363,128,43203,3.115870728,1536,2046.875,128
-2.578059742,-35746,-2.545965617,-35301,1.051172739,14575,128,43798,3.158783097,1600,2048.828125,128
6.854439599,95040,-2.640805559,-36616,1.033791427,14334,128,42436,3.060553439,1664,2050.78125,128
-3.681376419,-51044,-2.604456258,-36112,1.025353196,14217,128,42053,3.032930855,1728,2052.734375,128
7.025728467,97415,-2.522526088,-34976,1.173274657,16268,128,42509,3.065818318,1792,2054.6875,128
-2.502332032,-34696,-2.419392159,-33546,1.171327373,16241,128,43823,3.160586138,1856,2056.640625,128
7.07368935,98080,-2.431364349,-33712,0.007356406,102,128,44266,3.192536019,1920,2058.59375,128
-3.580045531,-49639,-2.4522075,-34001,1.177529833,16327,128,42591,3.071732291,1984,2060.546875,128
5.903299559,81852,-2.339337151,-32436,4.33E-04,6,128,42983,3.10000397,2048,2062.5,128
5.768576356,79984,-2.449539,-33964,1.035666589,14360,128,43344,3.126039878,2112,2064.453125,128
6.946683162,96319,-2.455669338,-34049,1.070717701,14846,128,43452,3.133829014,2176,2066.40625,128
6.951371068,96384,-2.501610816,-34686,1.144858735,15874,128,44034,3.175803802,2240,2068.359375,128
-2.397972035,-33249,-2.536445562,-35169,1.006745816,13959,128,42636,3.074977764,2304,2070.3125,128
6.803593851,94335,-2.567097255,-35594,1.024704102,14208,128,42773,3.084858428,2368,2072.265625,128
-2.436773471,-33787,-2.570054241,-35635,1.180414698,16367,128,42728,3.081612954,2432,2074.21875,128
5.907915343,81916,-2.457544501,-34075,1.177024982,16320,128,43481,3.135920541,2496,2076.171875,128
-3.618342116,-50170,-2.413622429,-33466,1.16368248,16135,128,43886,3.1651298,2560,2078.125,128
-3.656927187,-50705,-2.48451799,-34449,1.107716096,15359,128,43687,3.150777596,2624,2080.078125,128
-3.614231183,-50113,-2.46417969,-34167,1.115793719,15471,128,43428,3.132098094,2688,2082.03125,128
5.866878136,81347,-2.40215509,-33307,0,0,128,43873,3.164192219,2752,2083.984375,128
-4.152042169,-57570,-2.462304528,-34141,1.153873939,15999,128,44174,3.18590083,2816,2085.9375,128
-3.784943078,-52480,-2.539330428,-35209,1.179837725,16359,128,42481,3.063798912,2880,2087.890625,128
6.942211621,96257,-2.507524789,-34768,1.17962136,16356,128,43309,3.123515621,2944,2089.84375,128
5.903588045,81856,-2.565510579,-35572,1.051677591,14582,128,41857,3.018795016,3008,2091.796875,128
6.96031415,96508,-2.509183587,-34791,1.043167239,14464,128,42852,3.090556036,3072,2093.75,128
7.012458087,97231,-2.514664831,-34867,1.15394606,16000,128,42776,3.085074793,3136,2095.703125,128
-3.602619601,-49952,-2.584550689,-35836,1.026939872,14239,128,42133,3.038700585,3200,2097.65625,128
5.612793638,77824,-2.592339825,-35944,1.029319886,14272,128,42792,3.086228739,3264,2099.609375,128
-4.283447776,-59392,-2.438720755,-33814,1.177529833,16327,128,44557,3.213523413,3328,2101.5625,128
-0.037503247,-520,-2.402371455,-33310,0.004543663,63,128,44769,3.228813199,3392,2103.515625,128
-3.554081744,-49279,-2.481200395,-34403,1.108293069,15367,128,43039,3.104042781,3456,2105.46875,128
7.073617229,98079,-2.416507294,-33506,0.002019406,28,128,44828,3.233068375,3520,2107.421875,128
-2.372585222,-32897,-2.393500494,-33187,0.018391015,255,128,44527,3.211359764,3584,2109.375,128
6.990388869,96925,-2.463314231,-34155,1.123943463,15584,128,44514,3.210422183,3648,2111.328125,128
6.950433487,96371,-2.641238289,-36622,0.959506149,13304,128,41968,3.026800516,3712,2113.28125,128
5.880437002,81535,-2.577699134,-35741,1.048936969,14544,128,41110,2.964920159,3776,2115.234375,128
-4.150239128,-57545,-2.414776375,-33482,1.16368248,16135,128,43078,3.106855524,3840,2117.1875,128
7.089772474,98303,-2.445716553,-33911,1.174140116,16280,128,42777,3.085146914,3904,2119.140625,128
5.870989069,81404,-2.41722851,-33516,1.16721644,16184,128,44066,3.178111694,3968,2121.09375,128
5.871854528,81416,-2.360252423,-32726,0.013847353,192,128,44667,3.221456793,4032,2123.046875,128
7.082488189,98202,-2.36941187,-32853,1.181063793,16376,128,44071,3.178472302,4096,2125,128
-3.549538082,-49216,-2.422349146,-33587,1.167721292,16191,128,44169,3.185540221,4160,2126.953125,128
-2.51509756,-34873,-2.557649321,-35463,1.146950262,15903,128,43225,3.117457404,4224,2128.90625,128
-2.632006721,-36494,-2.598975015,-36036,1.016554358,14095,128,42261,3.047932154,4288,2130.859375,128
6.974666354,96707,-2.639291005,-36595,0.900510657,12486,128,41330,2.980786917,4352,2132.8125,128
6.942355864,96259,-2.577194283,-35734,0.959506149,13304,128,42375,3.056154019,4416,2134.765625,128
-2.432446174,-33727,-2.53767163,-35186,1.14464237,15871,128,42861,3.091205131,4480,2136.71875,128
-2.396818089,-33233,-2.554548091,-35420,1.181568644,16383,128,42889,3.093224537,4544,2138.671875,128
-4.181900523,-57984,-2.563851781,-35549,1.035161738,14353,128,43059,3.105485213,4608,2140.625,128
-0.054379708,-754,-2.413189699,-33460,0.064693101,897,128,44801,3.231121091,4672,2142.578125,128
6.944519513,96289,-2.508029641,-34775,1.106634272,15344,128,43889,3.165346165,4736,2144.53125,128
7.076502094,98119,-2.48761922,-34492,1.125674382,15608,128,44258,3.191959046,4800,2146.484375,128
-2.367680951,-32829,-2.372008249,-32889,0.00353396,49,128,45429,3.276413474,4864,2148.4375,128
-2.382898615,-33040,-2.426387957,-33643,1.181568644,16383,128,42798,3.086661468,4928,2150.390625,128
7.053928024,97806,-2.533055846,-35122,0.922002902,12784,128,41394,2.985402702,4992,2152.34375,128
5.901496518,81827,-2.50846237,-34781,1.172841927,16262,128,42796,3.086517225,5056,2154.296875,128
-2.434898309,-33761,-2.433455877,-33741,1.145219343,15879,128,43671,3.14962365,5120,2156.25,128
7.057534105,97856,-2.506370843,-34752,1.036243562,14368,128,43552,3.141041176,5184,2158.203125,128
6.972430584,96676,-2.489350139,-34516,1.1734189,16270,128,43934,3.168591639,5248,2160.15625,128
5.799516535,80413,-2.501178086,-34680,1.177024982,16320,128,43713,3.152652759,5312,2162.109375,128
5.907915343,81916,-2.574958512,-35703,1.167793413,16192,128,42749,3.083127509,5376,2164.0625,128
-3.549105352,-49210,-2.436412863,-33782,1.126179233,15615,128,43485,3.136209027,5440,2166.015625,128
-3.6202894,-50197,-2.503053248,-34706,1.090406905,15119,128,43608,3.145079988,5504,2167.96875,128
-2.380662844,-33009,-2.417877605,-33525,1.179837725,16359,128,42956,3.098056686,5568,2169.921875,128
6.831144313,94717,-2.592267703,-35943,0.95777523,13280,128,41804,3.014972569,5632,2171.875,128
6.796958661,94243,-2.510121168,-34804,1.032637481,14318,128,43223,3.117313161,5696,2173.828125,128
-2.400279927,-33281,-2.444562607,-33895,7.21E-05,1,128,44096,3.180275342,5760,2175.78125,128
5.898900139,81791,-2.52440125,-35002,1.172120711,16252,128,42154,3.040215139,5824,2177.734375,128
-2.363786383,-32775,-2.512645425,-34839,1.110023988,15391,128,42077,3.034661774,5888,2179.6875,128
5.188069366,71935,-2.493316828,-34571,1.035955076,14364,128,43481,3.135920541,5952,2181.640625,128
7.085228811,98240,-2.477666435,-34354,1.112980975,15432,128,43081,3.107071889,6016,2183.59375,128
-2.455380852,-34045,-2.454587514,-34034,1.122717395,15567,128,43471,3.135199325,6080,2185.546875,128
7.034383063,97535,-2.492667734,-34562,1.115288867,15464,128,42216,3.04468668,6144,2187.5,128
-2.381744669,-33024,-2.45444327,-34032,1.145796316,15887,128,42604,3.072669872,6208,2189.453125,128
-2.367392465,-32825,-2.537599508,-35185,0.996937275,13823,128,42351,3.0544231,6272,2191.40625,128
5.873441204,81438,-2.612822367,-36228,0.91435801,12678,128,41398,2.985691188,6336,2193.359375,128
7.089195501,98295,-2.550869888,-35369,1.107788218,15360,128,42133,3.038700585,6400,2195.3125,128
6.946466797,96316,-2.655518372,-36820,0.904837955,12546,128,41730,3.009635569,6464,2197.265625,128
7.057461984,97855,-2.534858887,-35147,1.068986782,14822,128,43334,3.125318661,6528,2199.21875,128
5.866661771,81344,-2.48761922,-34492,8.65E-04,12,128,44108,3.181140802,6592,2201.171875,128
-3.545066541,-49154,-2.385422872,-33075,7.21E-05,1,128,44373,3.200253034,6656,2203.125,128
7.052918321,97792,-2.464251812,-34168,1.177457711,16326,128,43033,3.103610051,6720,2205.078125,128
5.24403575,72711,-2.507019938,-34761,1.144714492,15872,128,42083,3.035094504,6784,2207.03125,128
7.088113676,98280,-2.475791273,-34328,1.172264954,16254,128,42241,3.046489721,6848,2208.984375,128
7.025439981,97411,-2.49959141,-34658,1.106634272,15344,128,42182,3.042234545,6912,2210.9375,128
7.071597823,98051,-2.548201388,-35332,1.052110321,14588,128,42146,3.039638166,6976,2212.890625,128
-2.365517302,-32799,-2.606908394,-36146,1.031122927,14297,128,43049,3.104763997,7040,2214.84375,128
-3.616539075,-50145,-2.642680722,-36642,0.987849949,13697,128,42385,3.056875236,7104,2216.796875,128
-2.363930626,-32777,-2.474709448,-34313,0.004543663,63,128,43375,3.128275648,7168,2218.75,128
7.204950715,99900,-2.101552141,-29139,1.172120711,16252,128,44381,3.200830007,7232,2220.703125,128
5.842428904,81008,-2.504928411,-34732,1.121635571,15552,128,43216,3.116808309,7296,2222.65625,128
-3.545643514,-49162,-2.51286179,-34842,1.035017495,14351,128,43279,3.121351972,7360,2224.609375,128
5.890317665,81672,-2.584262202,-35832,1.03393567,14336,128,43043,3.104331267,7424,2226.5625,128
5.686934672,78852,-2.551663226,-35380,1.093652379,15164,128,43829,3.161018868,7488,2228.515625,128
7.052269227,97783,-2.558947511,-35481,1.162889142,16124,128,42233,3.045912748,7552,2230.46875,128
-2.520218196,-34944,-2.517549696,-34907,1.163105507,16127,128,42738,3.082334171,7616,2232.421875,128
-2.584983419,-35842,-2.511130871,-34818,1.161951561,16111,128,42733,3.081973562,7680,2234.375,128
5.778961871,80128,-2.492379247,-34558,1.109807624,15388,128,43228,3.117673769,7744,2236.328125,128
-2.655302007,-36817,-2.512645425,-34839,1.144786614,15873,128,43219,3.117024674,7808,2238.28125,128
5.850795013,81124,-2.424657038,-33619,0,0,128,45058,3.249656349,7872,2240.234375,128
-3.563457556,-49409,-2.42076247,-33565,0.017092826,237,128,44452,3.205950642,7936,2242.1875,128
5.834351281,80896,-2.471031245,-34262,1.11586584,15472,128,43714,3.15272488,8000,2244.140625,128
4.946317666,68583,-2.505072654,-34734,1.181063793,16376,128,44010,3.174072882,8064,2246.09375,128
6.951298946,96383,-2.41102605,-33430,1.115721597,15470,128,43229,3.11774589,8128,2248.046875,128
-2.377417371,-32964,-2.449755365,-33967,5.05E-04,7,128,42713,3.08053113,8192,2250,128
6.905141104,95743,-2.607052637,-36148,0.958929176,13296,128,40954,2.953669185,8256,2251.953125,128
-2.4292007,-33682,-2.528151575,-35054,1.041075711,14435,128,41694,3.00703919,8320,2253.90625,128
-2.506082357,-34748,-2.504928411,-34732,1.181135914,16377,128,42081,3.034950261,8384,2255.859375,128
-3.546653217,-49176,-2.577338526,-35736,1.033863549,14335,128,42487,3.064231642,8448,2257.8125,128
-3.700705016,-51312,-2.564933606,-35564,1.174644968,16287,128,42649,3.075915346,8512,2259.765625,128
-2.381528304,-33021,-2.399702954,-33273,0.037431125,519,128,44559,3.213667657,8576,2261.71875,128
-2.573588201,-35684,-2.571568796,-35656,1.016554358,14095,128,42761,3.083992968,8640,2263.671875,128
5.870916947,81403,-2.703479255,-37485,0.888394223,12318,128,41278,2.977036593,8704,2265.625,128
6.838356476,94817,-2.614336921,-36249,1.179044387,16348,128,42716,3.080747495,8768,2267.578125,128
-2.622053936,-36356,-2.552817172,-35396,1.162961264,16125,128,42741,3.082550536,8832,2269.53125,128
5.760931463,79878,-2.509976925,-34802,1.125530139,15606,128,42468,3.062861331,8896,2271.484375,128
-2.442110472,-33861,-2.45134204,-33989,3.61E-04,5,128,42245,3.046778208,8960,2273.4375,128
-2.475142178,-34319,-2.477161584,-34347,1.126179233,15615,128,43196,3.115365877,9024,2275.390625,128
5.906689275,81899,-2.475647029,-34326,1.125097409,15600,128,42178,3.041946059,9088,2277.34375,128
5.766196342,79951,-2.440668039,-33841,0.004327298,60,128,43061,3.105629457,9152,2279.296875,128
-3.553937501,-49277,-2.38931744,-33129,0.001081824,15,128,45326,3.268984946,9216,2281.25,128
-3.651157457,-50625,-2.520939412,-34954,1.174933454,16291,128,43068,3.106134308,9280,2283.203125,128
-4.145046371,-57473,-2.495552599,-34602,1.125313774,15603,128,43090,3.107720984,9344,2285.15625,128
-2.508173884,-34777,-2.544883793,-35286,1.035594468,14359,128,43124,3.110173119,9408,2287.109375,128
7.053423173,97799,-2.564933606,-35564,1.181496523,16382,128,43698,3.151570934,9472,2289.0625,128
-0.220331576,-3055,-2.560462065,-35502,1.034440522,14343,128,43279,3.121351972,9536,2291.015625,128
7.071381458,98048,-2.5292334,-35069,1.108076705,15364,128,43316,3.124020472,9600,2292.96875,128
7.020030859,97336,-2.502115667,-34693,1.179332874,16352,128,42441,3.060914047,9664,2294.921875,128
-2.647224384,-36705,-2.573588201,-35684,1.026362899,14231,128,42519,3.066539534,9728,2296.875,128
-2.654725034,-36809,-2.650325614,-36748,0.997225761,13827,128,42119,3.037690882,9792,2298.828125,128
5.87589334,81472,-2.506010235,-34747,2.88E-04,4,128,44012,3.174217126,9856,2300.78125,128
7.071381458,98048,-2.381528304,-33021,4.33E-04,6,128,45062,3.249944836,9920,2302.734375,128
-2.515890898,-34884,-2.525050345,-35011,1.06848193,14815,128,43423,3.131737486,9984,2304.6875,128
-2.363425775,-32770,-2.44203835,-33860,0.016660096,231,128,43975,3.171548625,10048,2306.640625,128
-2.372729465,-32899,-2.448601419,-33951,1.179404995,16353,128,45027,3.247420579,10112,2308.59375,128
-3.822157839,-52996,-2.531180684,-35096,1.055932767,14641,128,43809,3.159576435,10176,2310.546875,128
6.795516228,94223,-2.541133468,-35234,1.181352279,16380,128,42724,3.081324468,10240,2312.5,128
-2.442398958,-33865,-2.44247108,-33866,1.181568644,16383,128,43999,3.173279545,10304,2314.453125,128
-2.435475282,-33769,-2.426243714,-33641,1.170606157,16231,128,44399,3.202128196,10368,2316.40625,128
-2.508678735,-34784,-2.503197492,-34708,1.167721292,16191,128,43835,3.161451597,10432,2318.359375,128
-3.555235691,-49295,-2.521155777,-34957,1.034152035,14339,128,45311,3.267903121,10496,2320.3125,128
-2.642680722,-36642,-2.463025744,-34151,1.068626174,14817,128,46949,3.386038349,10560,2322.265625,128
5.248074561,72767,-2.503413856,-34711,1.172409197,16256,128,45641,3.291703259,10624,2324.21875,128
6.942139499,96256,-2.51863152,-34922,1.038551454,14400,128,44743,3.226938036,10688,2326.171875,128
-2.493100464,-34568,-2.555557794,-35434,1.178106806,16335,128,44147,3.183953546,10752,2328.125,128
6.942139499,96256,-2.698358619,-37414,1.127549544,15634,128,42815,3.087887536,10816,2330.078125,128
-2.402082968,-33306,-2.697637403,-37404,0.996648788,13819,128,42386,3.056947357,10880,2332.03125,128
-2.363353653,-32769,-2.522958818,-34982,1.177097103,16321,128,44741,3.226793793,10944,2333.984375,128
5.624044612,77980,-2.555341429,-35431,1.145147222,15878,128,45646,3.292063867,11008,2335.9375,128
5.761508436,79886,-2.504495681,-34726,0.002163649,30,128,46290,3.338510196,11072,2337.890625,128
-3.563385435,-49408,-2.485599814,-34464,1.172481319,16257,128,46989,3.388923215,11136,2339.84375,128
-4.161201615,-57697,-2.389101075,-33126,0.110995187,1539,128,46687,3.367142483,11200,2341.796875,128
5.86882542,81374,-2.41189151,-33442,0.006923676,96,128,45664,3.293362056,11264,2343.75,128
8.299252188,115073,-2.333639542,-32357,0.143089311,1984,128,46786,3.374282524,11328,2345.703125,128
-2.363065167,-32765,-2.362199707,-32753,0.027766827,385,128,45443,3.277423176,11392,2347.65625,128
-2.409439374,-33408,-2.483291922,-34432,1.093868744,15167,128,43838,3.161667962,11456,2349.609375,128
-2.655229885,-36816,-2.511924209,-34829,1.073097715,14879,128,43547,3.140680568,11520,2351.5625,128
9.305709518,129028,-2.490504085,-34532,1.098268163,15228,128,43900,3.166139503,11584,2353.515625,128
5.885269151,81602,-2.390543507,-33146,1.179765604,16358,128,44878,3.236674456,11648,2355.46875,128
6.858983261,95103,-2.597532582,-36016,1.144137519,15864,128,43384,3.128924743,11712,2357.421875,128
5.765547248,79942,-2.48632103,-34474,1.108509434,15370,128,45162,3.257156999,11776,2359.375,128
5.89493345,81736,-2.375397965,-32936,2.88E-04,4,128,46469,3.351419968,11840,2361.328125,128
-2.397899914,-33248,-2.440307431,-33836,0.00223577,31,128,45395,3.273961338,11904,2363.28125,128
-2.515602412,-34880,-2.554980821,-35426,1.174644968,16287,128,44124,3.182294748,11968,2365.234375,128
-2.391264724,-33156,-2.512284817,-34834,1.070212849,14839,128,44072,3.178544423,12032,2367.1875,128
7.081766973,98192,-2.461366947,-34128,1.163754602,16136,128,44552,3.213162805,12096,2369.140625,128
-2.43893712,-33817,-2.441245012,-33849,1.181568644,16383,128,44844,3.234222321,12160,2371.09375,128
-2.372729465,-32899,-2.594287109,-35971,1.144930857,15875,128,43531,3.139526622,12224,2373.046875,128
5.899404991,81798,-2.593782257,-35964,1.1167313,15484,128,42493,3.064664372,12288,2375,128
-2.657609899,-36849,-2.565654822,-35574,1.172625562,16259,128,42899,3.093945753,12352,2376.953125,128
-3.614159061,-50112,-2.505216897,-34736,1.163249751,16129,128,42753,3.083415995,12416,2378.90625,128
-3.561149664,-49377,-2.393644737,-33189,0.032238368,447,128,43446,3.133396284,12480,2380.859375,128
