Device,Device,Device,Device,Device,Device,Device,Device,Device,Device,Device,Device
ECG Vx-RL,ECG Vx-RL,ECG LA-RA,ECG LA-RA,ExG2 CH1,ExG2 CH1,EXG1 Status,ECG LL-RA,ECG LL-RA,Timestamp,Timestamp,EXG2 Status
CAL,RAW,RAW,CAL,RAW,CAL,RAW,RAW,CAL,CAL,RAW,RAW
mV,No Units,No Units,mV,No Units,mV,No Units,No Units,mV,mSecs,No Units,No Units
-605.0000721,-8388608,-8388608,-605.0000721,16383,1.181568644,0,8388607,605,8001.953125,64,0
-605.0000721,-8388608,-8388608,-605.0000721,16383,1.181568644,0,8388607,605,8003.90625,128,0
-7.385182665,-102399,-244607,-17.64145525,16639,1.200031781,128,-10821,-0.780428145,8005.859375,192,128
-7.237621813,-100353,-243879,-17.5889507,16832,1.213951256,128,-9463,-0.682486973,8007.8125,256,128
-7.246709138,-100479,-244479,-17.63222368,16129,1.163249751,128,-8143,-0.587286423,8009.765625,320,128
-7.366935893,-102146,-241412,-17.41102665,26126,1.884249673,128,-4498,-0.324403086,8011.71875,384,128
-9.437043004,-130849,-239144,-17.24745479,31999,2.307819999,128,-2843,-0.205041791,8013.671875,448,128
-9.156634111,-126961,-239652,-17.28409258,25283,1.82345114,128,-4405,-0.317695775,8015.625,512,128
-8.894688355,-123329,-237969,-17.16271188,18416,1.328191916,128,-8256,-0.595436167,8017.578125,576,128
-7.163697143,-99328,-237392,-17.1210977,17276,1.245973259,128,-11451,-0.825864771,8019.53125,640,128
-9.452621275,-131065,-238570,-17.20605698,6146,0.44325953,128,-12102,-0.872815951,8021.484375,704,128
-9.155191678,-126941,-240726,-17.36155121,53,0.003822446,128,-14731,-1.062423713,8023.4375,768,128
-2.324047366,-32224,-241181,-17.39436655,15902,1.146878141,128,-14840,-1.070284971,8025.390625,832,0
4.717331495,65408,-241181,-17.39436655,0,0,128,-14840,-1.070284971,8027.34375,896,152
-0.286250745,-3969,-4208900,-303.5527234,255,0.018391015,147,255,0.018391015,8029.296875,960,128
0.009159447,127,-4208900,-303.5527234,96,0.006923676,147,255,0.018391015,8031.25,1024,128
-9.453126127,-131072,-4194304,-302.5000361,0,0,159,-241897,-17.44600564,8033.203125,1088,159
4.726490942,65535,-18041,-1.301146305,0,0,152,-4194304,-302.5000361,8035.15625,1152,152
0,0,4660928,336.153719,15424,1.112404002,0,-5067012,-365.4411585,8037.109375,1216,0
-9.452260667,-131060,4660928,336.153719,4035,0.291010772,0,-5067012,-365.4411585,8039.0625,1280,158
-9.453126127,-131072,-243299,-17.54712016,207,0.014929177,128,-19609,-1.414233019,8041.015625,1344,0
4.431152872,61440,4308992,310.7715214,15456,1.114711894,1,-3212216,-231.6702499,8042.96875,1408,0
-9.445048504,-130960,4942272,356.4447065,16253,1.172192832,0,-4962052,-357.8712723,8044.921875,1472,128
-0.072121629,-1000,-242212,-17.46872395,16383,1.181568644,128,-19281,-1.390577124,8046.875,1536,0
-9.166947504,-127104,-242053,-17.45725661,12815,0.924238673,128,-18647,-1.344852012,8048.828125,1600,128
-8.162148972,-113172,-241580,-17.42314308,13248,0.955467338,128,-18268,-1.317517914,8050.78125,1664,128
-8.93565344,-123897,-240292,-17.33025042,16382,1.181496523,128,-17521,-1.263643058,8052.734375,1728,128
-7.903304446,-109583,-239948,-17.30544058,16383,1.181568644,128,-17410,-1.255637557,8054.6875,1792,128
-7.163408657,-99324,-240439,-17.3408523,16142,1.164187332,128,-17908,-1.291554128,8056.640625,1856,128
-7.737929551,-107290,-239582,-17.27904407,16366,1.180342577,128,-17709,-1.277201924,8058.59375,1920,128
-7.237405448,-100350,-239809,-17.29541568,16368,1.18048682,128,-18002,-1.298333561,8060.546875,1984,128
-7.154465575,-99200,-239881,-17.30060843,14076,1.015184047,128,-18084,-1.304247535,8062.5,2048,128
-7.090421568,-98312,-240496,-17.34496323,16380,1.181352279,128,-18489,-1.333456794,8064.453125,2112,128
-7.810267545,-108293,-239821,-17.29628113,13350,0.962823744,128,-18399,-1.326965848,8066.40625,2176,128
-7.237549691,-100352,-239782,-17.29346839,15408,1.111250056,128,-16063,-1.158489723,8068.359375,2240,128
-4.578930089,-63489,-240098,-17.31625883,12803,0.923373213,128,-19132,-1.379831002,8070.3125,2304,128
-7.117539301,-98688,-238804,-17.22293344,16130,1.163321872,128,-18768,-1.353578729,8072.265625,2368,128
-7.089916717,-98305,-237370,-17.11951102,14818,1.068698295,128,-17074,-1.23140469,8074.21875,2432,128
-7.126770869,-98816,-238424,-17.19552722,16353,1.179404995,128,-17501,-1.262200625,8076.171875,2496,128
-4.709253873,-65296,-239132,-17.24658933,13304,0.959506149,128,-18543,-1.337351362,8078.125,2560,128
-7.154537696,-99201,-238497,-17.2007921,14312,1.032204751,128,-18552,-1.338000457,8080.078125,2624,128
-4.578930089,-63489,-239674,-17.28567926,14671,1.058096416,128,-19253,-1.388557719,8082.03125,2688,128
-4.181395672,-57977,-238509,-17.20165756,12413,0.895245778,128,-18186,-1.311603941,8083.984375,2752,128
-4.134877221,-57332,-237182,-17.10595216,15232,1.09855665,128,-17289,-1.24691084,8085.9375,2816,128
-4.136247532,-57351,-237748,-17.146773,16114,1.162167926,128,-18133,-1.307781495,8087.890625,2880,128
-4.693459236,-65077,-238820,-17.22408738,16382,1.181496523,128,-11552,-0.833149056,8089.84375,2944,128
-4.496062338,-62340,-237104,-17.10032667,204,0.014712812,128,-13250,-0.955611581,8091.796875,3008,128
-4.621626094,-64081,-235468,-16.98233568,1548,0.111644281,128,-16638,-1.19995966,8093.75,3072,128
-4.117856517,-57096,-236595,-17.06361676,15,0.001081824,128,-14767,-1.065020092,8095.703125,3136,128
-4.135742681,-57344,-237067,-17.09765817,5347,0.385634349,128,-9433,-0.680323324,8097.65625,3200,128
-4.135886924,-57346,-237347,-17.11785223,1542,0.111211552,128,-14437,-1.041219955,8099.609375,3264,128
-4.135670559,-57343,-237286,-17.11345281,4109,0.296347773,128,-9921,-0.715518679,8101.5625,3328,128
-3.250666052,-45072,-237944,-17.16090884,16267,1.173202535,128,-3970,-0.286322866,8103.515625,3392,128
-4.449616009,-61696,-237654,-17.13999357,15232,1.09855665,128,-9946,-0.71732172,8105.46875,3456,128
-4.10783161,-56957,-236447,-17.05294276,8176,0.589666437,128,-4481,-0.323177019,8107.421875,3520,128
-3.840332489,-53248,-237691,-17.14266207,14566,1.050523645,128,-6711,-0.484008251,8109.375,3584,128
-3.832326988,-53137,-236496,-17.05647672,15875,1.144930857,128,-2760,-0.199055695,8111.328125,3648,128
-4.089296352,-56700,-235440,-16.98031628,16367,1.180414698,128,-4495,-0.324186721,8113.28125,3712,128
-3.547518676,-49188,-235567,-16.98947573,14455,1.042518144,128,-2187,-0.157730002,8115.234375,3776,128
-3.591152262,-49793,-236193,-17.03462387,15418,1.111971272,128,-1998,-0.144099014,8117.1875,3840,128
-3.71109053,-51456,-235760,-17.0033952,15992,1.153369087,128,-2456,-0.17713072,8119.140625,3904,128
-2.788366412,-38662,-235302,-16.97036349,14276,1.029608372,128,-2108,-0.152032393,8121.09375,3968,128
-2.642680722,-36642,-236532,-17.0590731,13190,0.951284284,128,-2297,-0.165663381,8123.046875,4032,128
-2.591907095,-35938,-236747,-17.07457925,12857,0.927267781,128,-2260,-0.162994881,8125,4096,128
-4.066001065,-56377,-236521,-17.05827976,12512,0.902385819,128,-3694,-0.266417297,8126.953125,4160,128
-2.850823742,-39528,-236020,-17.02214682,14330,1.03350294,128,-2097,-0.151239056,8128.90625,4224,128
-2.843395214,-39425,-235894,-17.0130595,14331,1.033575062,128,-1858,-0.134001986,8130.859375,4288,128
-2.451125676,-33986,-233491,-16.83975122,15903,1.146950262,128,-389,-0.028055314,8132.8125,4352,128
-3.553216285,-49267,-234890,-16.94064938,15425,1.112476124,128,-2423,-0.174750707,8134.765625,4416,128
-2.925325385,-40561,-235946,-17.01680982,12529,0.903611887,128,-2537,-0.182972572,8136.71875,4480,128
-2.806541062,-38914,-235458,-16.98161447,14087,1.015977385,128,-2250,-0.162273665,8138.671875,4544,128
-2.928715101,-40608,-234569,-16.91749834,14593,1.052470929,128,-1302,-0.093902361,8140.625,4608,128
-2.944942468,-40833,-236005,-17.021065,13112,0.945658797,128,-2644,-0.190689586,8142.578125,4672,128
-2.539330428,-35209,-236030,-17.02286804,13231,0.95424127,128,-2376,-0.17136099,8144.53125,4736,128
-2.514520587,-34865,-235213,-16.96394467,14312,1.032204751,128,-1779,-0.128304378,8146.484375,4800,128
-2.953669185,-40954,-235175,-16.96120405,16383,1.181568644,128,-1979,-0.142728703,8148.4375,4864,128
-2.492595612,-34561,-235430,-16.97959506,15361,1.10786034,128,-1897,-0.13681473,8150.390625,4928,128
-2.947106117,-40863,-234252,-16.89463578,14527,1.047710901,128,-1137,-0.082002292,8152.34375,4992,128
-2.418743064,-33537,-233042,-16.80736861,15735,1.134833829,128,-559,-0.04031599,8154.296875,5056,128
-2.380662844,-33009,-233714,-16.85583435,16256,1.172409197,128,-976,-0.07039071,8156.25,5120,128
-2.370349451,-32866,-234852,-16.93790876,15360,1.107788218,128,-1915,-0.138112919,8158.203125,5184,128
-2.918401708,-40465,-234577,-16.91807531,16142,1.164187332,128,-1782,-0.128520742,8160.15625,5248,128
-2.660999615,-36896,-234019,-16.87783144,16272,1.173563143,128,-1122,-0.080920467,8162.109375,5312,128
-0.47557002,-6594,-235225,-16.96481013,15136,1.091632973,128,-1641,-0.118351593,8164.0625,5376,128
-2.631069139,-36481,-234843,-16.93725967,13309,0.959866757,128,-526,-0.037935977,8166.015625,5440,128
-0.58627672,-8129,-233630,-16.84977613,16184,1.16721644,128,-982,-0.070823439,8167.96875,5504,128
-0.580362747,-8047,-234691,-16.92629718,16124,1.162889142,128,-834,-0.060149438,8169.921875,5568,128
-0.32368187,-4488,-232596,-16.77520237,16383,1.181568644,128,-217,-0.015650393,8171.875,5632,128
-2.363353653,-32769,-232638,-16.77823148,16128,1.163177629,128,-869,-0.062673695,8173.828125,5696,128
-2.381528304,-33021,-233114,-16.81256137,14339,1.034152035,128,-1224,-0.088276874,8175.78125,5760,128
-0.286755596,-3976,-232582,-16.77419266,15811,1.140315073,128,-134,-0.009664298,8177.734375,5824,128
-7.21E-05,-1,-232419,-16.76243684,487,0.035123233,128,625,0.045076018,8179.6875,5888,128
-0.08279563,-1148,-232638,-16.77823148,1008,0.072698602,128,2430,0.175255558,8181.640625,5952,128
-0.073852548,-1024,-233881,-16.86787866,48,0.003461838,128,253,0.018246772,8183.59375,6016,128
-0.572357246,-7936,-233196,-16.81847534,2040,0.147128123,128,705,0.050845748,8185.546875,6080,128
-0.066712507,-925,-232780,-16.78847275,1,7.21E-05,128,1681,0.121236458,8187.5,6144,128
-0.074213156,-1029,-232596,-16.77520237,771,0.055605776,128,6306,0.454798991,8189.453125,6208,128
-0.237857132,-3298,-232062,-16.73668942,2009,0.144892352,128,2729,0.196819925,8191.40625,6272,128
-7.21E-05,-1,-231429,-16.69103643,7687,0.55439896,128,4621,0.333274047,8193.359375,6336,128
-0.076088318,-1055,-230687,-16.63752218,14,0.001009703,128,1054,0.076016197,8195.3125,6400,128
-0.008221866,-114,-231496,-16.69586858,4463,0.321878829,128,4427,0.319282451,8197.265625,6464,128
-0.002307892,-32,-232506,-16.76871142,7423,0.53535885,128,6361,0.458765681,8199.21875,6528,128
-0.29093865,-4034,-231620,-16.70481166,6014,0.433739475,128,5976,0.430998854,8201.171875,6592,128
-0.156936664,-2176,-230427,-16.61877055,6271,0.452274734,128,14678,1.058601267,8203.125,6656,128
-0.110850943,-1537,-231564,-16.70077285,15875,1.144930857,128,7924,0.571491786,8205.078125,6720,128
-0.129530445,-1796,-230737,-16.64112826,6336,0.45696264,128,6428,0.46359783,8207.03125,6784,128
-0.113014592,-1567,-231627,-16.70531651,16256,1.172409197,128,9071,0.654215295,8208.984375,6848,128
-0.073347696,-1017,-232004,-16.73250636,8089,0.583391855,128,8586,0.619236305,8210.9375,6912,128
-0.258556039,-3585,-230335,-16.61213536,7295,0.526127282,128,9854,0.71068653,8212.890625,6976,128
-7.21E-05,-1,-229925,-16.5825655,16320,1.177024982,128,11048,0.796799755,8214.84375,7040,128
-0.073636183,-1021,-230496,-16.62374695,14336,1.03393567,128,11245,0.811007716,8216.796875,7104,128
-0.110850943,-1537,-230516,-16.62518938,16352,1.179332874,128,17267,1.245324164,8218.75,7168,128
-7.21E-05,-1,-229844,-16.57672364,240,0.017309191,128,17036,1.228664068,8220.703125,7232,128
-0.001153946,-16,-229545,-16.55515928,14340,1.034224157,128,18013,1.299126899,8222.65625,7296,128
-1.18048682,-16368,-230240,-16.60528381,93,0.006707311,128,17902,1.291121398,8224.609375,7360,128
-0.072410115,-1004,-230181,-16.60102863,1907,0.137535946,128,18524,1.335981051,8226.5625,7424,128
-0.049619681,-688,-229121,-16.52457971,6,4.33E-04,128,15734,1.134761707,8228.515625,7488,128
-1.172481319,-16257,-229753,-16.57016058,1985,0.143161433,128,17908,1.291554128,8230.46875,7552,128
-0.041325693,-573,-229989,-16.58718128,2041,0.147200244,128,17785,1.282683168,8232.421875,7616,128
-0.002307892,-32,-229493,-16.55140895,15879,1.145219343,128,15389,1.109879745,8234.375,7680,128
-0.004904271,-68,-229955,-16.58472915,1657,0.119505539,128,18139,1.308214224,8236.328125,7744,128
-5.77E-04,-8,-229942,-16.58379156,2000,0.144243258,128,17746,1.279870424,8238.28125,7808,128
-0.004543663,-63,-229951,-16.58444066,1183,0.085319887,128,17853,1.287587439,8240.234375,7872,128
-0.072121629,-1000,-230752,-16.64221008,5,3.61E-04,128,17144,1.236453204,8242.1875,7936,128
-0.055173046,-765,-231013,-16.66103383,532,0.038368707,128,17339,1.250516921,8244.140625,8000,128
-0.147488731,-2045,-230997,-16.65987988,248,0.017886164,128,17283,1.24647811,8246.09375,8064,128
-0.073924669,-1025,-230476,-16.62230451,1032,0.074429521,128,17236,1.243088394,8248.046875,8128,128
-0.022069218,-306,-231306,-16.68216547,669,0.04824937,128,17137,1.235948352,8250,8192,128
-0.03454626,-479,-231576,-16.70163831,63,0.004543663,128,16753,1.208253647,8251.953125,8256,128
-0.078468332,-1088,-229638,-16.56186659,4,2.88E-04,128,17859,1.288020168,8253.90625,8320,128
-7.21E-05,-1,-230313,-16.61054869,1807,0.130323783,128,17269,1.245468407,8255.859375,8384,128
-0.143666285,-1992,-231315,-16.68281456,816,0.058851249,128,16842,1.214672472,8257.8125,8448,128
-0.28163496,-3905,-231071,-16.66521688,16187,1.167432805,128,16655,1.201185727,8259.765625,8512,128
-0.109769119,-1522,-230529,-16.62612696,799,0.057625181,128,17400,1.254916341,8261.71875,8576,128
-0.046085721,-639,-231570,-16.70120558,108,0.007789136,128,16136,1.163754602,8263.671875,8640,128
-0.295410191,-4096,-232237,-16.7493107,16351,1.179260752,128,15801,1.139593856,8265.625,8704,128
-0.013847353,-192,-231987,-16.73128029,15870,1.144570249,128,16066,1.158706088,8267.578125,8768,128
-0.004615784,-64,-231809,-16.71844264,16256,1.172409197,128,16132,1.163466115,8269.53125,8832,128
-0.148282069,-2056,-232271,-16.75176284,15892,1.146156925,128,15988,1.153080601,8271.484375,8896,128
-0.293318664,-4067,-232419,-16.76243684,15295,1.103100312,128,15165,1.0937245,8273.4375,8960,128
-0.193285965,-2680,-232040,-16.73510274,15361,1.10786034,128,15393,1.110168232,8275.390625,9024,128
-1.44E-04,-2,-231970,-16.73005423,15487,1.116947665,128,15482,1.116587057,8277.34375,9088,128
-0.270960959,-3757,-232621,-16.77700541,14879,1.073097715,128,15007,1.082329283,8279.296875,9152,128
-0.055461533,-769,-233225,-16.82056687,14846,1.070717701,128,14830,1.069563755,8281.25,9216,128
-0.1390505,-1928,-232988,-16.80347405,14452,1.042301779,128,14650,1.056581862,8283.203125,9280,128
-18.90170859,-262081,-234074,-16.88179813,16131,1.163393994,128,14489,1.044970279,8285.15625,9344,128
-0.044138437,-612,-232575,-16.77368781,14451,1.042229657,128,15200,1.096248757,8287.109375,9408,128
-0.001298189,-18,-232726,-16.78457818,15584,1.123943463,128,14708,1.060764916,8289.0625,9472,128
-0.067073115,-930,-233518,-16.84169851,14336,1.03393567,128,14182,1.022828939,8291.015625,9536,128
-0.290866529,-4033,-232733,-16.78508303,14320,1.032781724,128,14803,1.067616471,8292.96875,9600,128
-0.259782107,-3602,-232141,-16.74238703,16320,1.177024982,128,15091,1.0883875,8294.921875,9664,128
-0.29533807,-4095,-234438,-16.90805041,14339,1.034152035,128,13283,0.957991595,8296.875,9728,128
-0.075078616,-1041,-233962,-16.87372051,12512,0.902385819,128,13632,0.983162043,8298.828125,9792,128
-0.073780426,-1023,-232377,-16.75940773,14333,1.033719305,128,14451,1.042229657,8300.78125,9856,128
-5.77E-04,-8,-232959,-16.80138252,16348,1.179044387,128,13899,1.002418518,8302.734375,9920,128
-5.77E-04,-8,-234763,-16.93148994,16253,1.172192832,128,13349,0.962751623,8304.6875,9984,128
-0.118279471,-1640,-234230,-16.89304911,12541,0.904477346,128,13468,0.971334096,8306.640625,10048,128
-7.21E-05,-1,-233541,-16.84335731,13824,0.997009396,128,14048,1.013164641,8308.59375,10112,128
-0.327864924,-4546,-233936,-16.87184535,13329,0.96130919,128,13329,0.96130919,8310.546875,10176,128
-0.534853999,-7416,-233672,-16.85280524,13823,0.996937275,128,13634,0.983306287,8312.5,10240,128
-0.063467033,-880,-233328,-16.8279954,13248,0.955467338,128,13268,0.956909771,8314.453125,10304,128
-0.118928566,-1649,-232549,-16.77181265,15903,1.146950262,128,14006,1.010135533,8316.40625,10368,128
-0.01016915,-141,-232877,-16.79546854,13887,1.001553059,128,13879,1.000976086,8318.359375,10432,128
-0.007140041,-99,-233571,-16.84552095,13564,0.978257773,128,13532,0.975949881,8320.3125,10496,128
-0.073347696,-1017,-234153,-16.88749574,12481,0.900150049,128,13513,0.97457957,8322.265625,10560,128
-18.8693981,-261633,-235039,-16.95139551,12289,0.886302696,128,12666,0.91349255,8324.21875,10624,128
-18.75421986,-260036,-233416,-16.8343421,12737,0.918613186,128,13531,0.975877759,8326.171875,10688,128
-0.046085721,-639,-232212,-16.74750766,15824,1.141252654,128,14546,1.049081212,8328.125,10752,128
-0.008943082,-124,-234191,-16.89023636,14087,1.015977385,128,13153,0.948615783,8330.078125,10816,128
-18.90625225,-262144,-234264,-16.89550124,12801,0.92322897,128,12777,0.921498051,8332.03125,10880,128
-5.77E-04,-8,-233642,-16.85064159,12687,0.915007104,128,13333,0.961597676,8333.984375,10944,128
-0.129530445,-1796,-232439,-16.76387927,15921,1.148248452,128,13845,0.99852395,8335.9375,11008,128
-0.147705096,-2048,-234050,-16.88006721,13935,1.005014897,128,13868,1.000182748,8337.890625,11072,128
-0.017958286,-249,-232985,-16.80325768,13855,0.999245167,128,13949,1.0060246,8339.84375,11136,128
-18.54614896,-257151,-232452,-16.76481685,15743,1.135410802,128,13849,0.998812437,8341.796875,11200,128
-18.40796392,-255235,-233242,-16.82179294,13855,0.999245167,128,13624,0.98258507,8343.75,11264,128
0.273340973,3790,-233941,-16.87220596,12288,0.886230574,128,13045,0.940826647,8345.703125,11328,128
-0.034906868,-484,-233799,-16.86196469,13319,0.960587974,128,13383,0.965203758,8347.65625,11392,128
-18.57449276,-257544,-232472,-16.76625928,16131,1.163393994,128,13858,0.999461532,8349.609375,11456,128
0.014857056,206,-233252,-16.82251416,14332,1.033647184,128,14044,1.012876155,8351.5625,11520,128
0.073347696,1017,-232455,-16.76503322,14398,1.038407211,128,14520,1.04720605,8353.515625,11584,128
-0.221629765,-3073,-232491,-16.7676296,14273,1.029392008,128,14021,1.011217357,8355.46875,11648,128
-18.01893985,-249841,-233361,-16.83037541,12299,0.887023912,128,13355,0.963184352,8357.421875,11712,128
-18.75912413,-260104,-234104,-16.88396178,12303,0.887312399,128,12879,0.928854457,8359.375,11776,128
0.895173656,12412,-233100,-16.81155167,13520,0.975084421,128,13459,0.970685002,8361.328125,11840,128
0.299953854,4159,-233441,-16.83614514,13314,0.960227366,128,13664,0.985469936,8363.28125,11904,128
-18.26119641,-253200,-234812,-16.9350239,12543,0.90462159,128,12528,0.903539765,8365.234375,11968,128
0.286106501,3967,-233272,-16.82395659,12302,0.887240277,128,13822,0.996865153,8367.1875,12032,128
0.311565436,4320,-233299,-16.82590387,14328,1.033358697,128,13696,0.987777828,8369.140625,12096,128
-18.31802825,-253988,-233443,-16.83628939,13565,0.978329894,128,13287,0.958280082,8371.09375,12160,128
0.59067614,8190,-232706,-16.78313575,15872,1.144714492,128,14071,1.014823439,8373.046875,12224,128
-18.86932598,-261632,-232979,-16.80282495,14323,1.032998089,128,13317,0.96044373,8375,12288,128
0.470954236,6530,-233032,-16.8066474,13200,0.9520055,128,13244,0.955178852,8376.953125,12352,128
-18.00393856,-249633,-232505,-16.7686393,14239,1.026939872,128,14152,1.02066529,8378.90625,12416,128
-18.01994956,-249855,-232743,-16.78580425,13825,0.997081518,128,13638,0.983594773,8380.859375,12480,128
0.55439896,7687,-233095,-16.81119106,13576,0.979123232,128,13729,0.990157841,8382.8125,12544,128
-17.87173961,-247800,-234103,-16.88388966,12911,0.931162349,128,13089,0.943999999,8384.765625,12608,128
1.091632973,15136,-234716,-16.92810022,12420,0.895750629,128,12429,0.896399724,8386.71875,12672,128
0.461506303,6399,-233291,-16.8253269,12798,0.923012605,128,13238,0.954746122,8388.671875,12736,128
-17.74668071,-246066,-233762,-16.85929619,12513,0.902457941,128,12773,0.921209564,8390.625,12800,128
1.181568644,16383,-233735,-16.8573489,13826,0.997153639,128,13354,0.963112231,8392.578125,12864,128
-18.01079011,-249728,-233036,-16.80693588,13839,0.998091221,128,13838,0.998019099,8394.53125,12928,128
0.480041561,6656,-232959,-16.80138252,12784,0.922002902,128,13236,0.954601878,8396.484375,12992,128
-18.00163066,-249601,-233237,-16.82143233,13833,0.997658491,128,13449,0.969963785,8398.4375,13056,128
1.181280158,16379,-233821,-16.86355136,13216,0.953159446,128,12960,0.934696309,8400.390625,13120,128
1.037974481,14392,-233414,-16.83419786,12536,0.904116738,128,13033,0.939961188,8402.34375,13184,128
-18.00386643,-249632,-233355,-16.82994268,13497,0.973425624,128,13441,0.969386812,8404.296875,13248,128
-18.07569958,-250628,-234352,-16.90184795,12673,0.913997401,128,12871,0.928277484,8406.25,13312,128
1.18048682,16368,-233137,-16.81422017,12568,0.90642463,128,13566,0.978402016,8408.203125,13376,128
-18.33317379,-254198,-233344,-16.82914935,13807,0.995783329,128,13516,0.974795935,8410.15625,13440,128
0.729582397,10116,-233550,-16.8440064,13438,0.969170447,128,13625,0.982657192,8412.109375,13504,128
0.886663304,12294,-233472,-16.83838091,14204,1.024415615,128,13626,0.982729314,8414.0625,13568,128
-18.60168262,-257921,-232836,-16.79251156,15375,1.108870042,128,13741,0.991023301,8416.015625,13632,128
0.729798762,10119,-233227,-16.82071111,13566,0.978402016,128,13672,0.986046909,8417.96875,13696,128
1.042950874,14461,-233042,-16.80736861,14158,1.02109802,128,13558,0.977825043,8419.921875,13760,128
-18.32055251,-254023,-233071,-16.80946014,13811,0.996071815,128,13684,0.986912368,8421.875,13824,128
1.034224157,14340,-232876,-16.79539642,13324,0.960948582,128,13577,0.979195354,8423.828125,13888,128
-17.7986804,-246787,-234539,-16.91533469,12799,0.923084727,128,13086,0.943783634,8425.78125,13952,128
0.895390021,12415,-233091,-16.81090257,13878,1.000903964,128,13364,0.963833447,8427.734375,14016,128
-18.33165924,-254177,-232867,-16.79474733,14287,1.03040171,128,13645,0.984099625,8429.6875,14080,128
-17.72720787,-245796,-233003,-16.80455587,13799,0.995206355,128,13606,0.981286881,8431.640625,14144,128
-17.9510734,-248900,-232772,-16.78789577,14137,1.019583466,128,13691,0.98741722,8433.59375,14208,128
-18.34370355,-254344,-232336,-16.75645074,16291,1.174933454,128,13991,1.009053708,8435.546875,14272,128
1.034440522,14343,-233225,-16.82056687,13568,0.978546259,128,13574,0.978978989,8437.5,14336,128
0.886230574,12288,-232562,-16.77275023,14128,1.018934371,128,13618,0.982152341,8439.453125,14400,128
-18.34363143,-254343,-232727,-16.7846503,13919,1.003860951,128,13531,0.975877759,8441.40625,14464,128
-17.79925737,-246795,-232294,-16.75342163,14111,1.017708304,128,13789,0.994485139,8443.359375,14528,128
-17.981076,-249316,-234342,-16.90112673,12803,0.923373213,128,12904,0.930657498,8445.3125,14592,128
1.147022384,15904,-233322,-16.82756267,12812,0.924022308,128,13324,0.960948582,8447.265625,14656,128
0.958929176,13296,-232999,-16.80426738,14288,1.030473832,128,13664,0.985469936,8449.21875,14720,128
-18.01086223,-249729,-233102,-16.81169591,13631,0.983089922,128,13634,0.983306287,8451.171875,14784,128
1.034945373,14350,-232589,-16.77469752,14302,1.031483535,128,14111,1.017708304,8453.125,14848,128
-18.54189379,-257092,-232607,-16.7759957,14273,1.029392008,128,13674,0.986191152,8455.078125,14912,128
-18.35185329,-254457,-232686,-16.78169331,14331,1.033575062,128,13559,0.977897165,8457.03125,14976,128
-18.02701748,-249953,-234153,-16.88749574,12703,0.91616105,128,12531,0.90375613,8458.984375,15040,128
0.882912979,12242,-232701,-16.78277514,12408,0.89488517,128,13924,1.004221559,8460.9375,15104,128
0.557355947,7728,-232412,-16.76193199,14332,1.033647184,128,14164,1.02153075,8462.890625,15168,128
0.887312399,12303,-233457,-16.83729909,12304,0.88738452,128,13106,0.945226067,8464.84375,15232,128
-17.86207531,-247666,-233298,-16.82583175,13923,1.004149437,128,13891,1.001841545,8466.796875,15296,128
0.626736954,8690,-233546,-16.84371791,13214,0.953015203,128,13210,0.952726716,8468.75,15360,128
-18.30115179,-253754,-233842,-16.86506592,13287,0.958280082,128,12943,0.933470241,8470.703125,15424,128
-17.99124515,-249457,-232179,-16.74512765,15855,1.143488424,128,14831,1.069635876,8472.65625,15488,128
0.588800977,8164,-232852,-16.7936655,14334,1.033791427,128,14168,1.021819236,8474.609375,15552,128
-18.31550399,-253953,-232002,-16.73236212,16383,1.181568644,128,14259,1.028382305,8476.5625,15616,128
0.886086331,12286,-233588,-16.84674702,12364,0.891711818,128,13388,0.965564366,8478.515625,15680,128
-17.86885475,-247760,-233424,-16.83491908,13343,0.962318893,128,13330,0.961381312,8480.46875,15744,128
0.889908777,12339,-232841,-16.79287217,14176,1.02239621,128,13668,0.985758422,8482.421875,15808,128
-18.33382289,-254207,-233417,-16.83441422,13831,0.997514248,128,13525,0.975445029,8484.375,15872,128
1.162095804,16113,-233791,-16.86138771,12422,0.895894873,128,13886,1.001480937,8486.328125,15936,128
1.181568644,16383,-232902,-16.79727159,14264,1.028742913,128,14684,1.059033997,8488.28125,16000,128
-17.73961279,-245968,-232697,-16.78248665,16383,1.181568644,128,14910,1.075333485,8490.234375,16064,128
0.54596073,7570,-233527,-16.8423476,15676,1.130578653,128,14107,1.017419817,8492.1875,16128,128
-18.02463746,-249920,-232868,-16.79481945,14321,1.032853846,128,14431,1.040787225,8494.140625,16192,128
0.445278936,6174,-232305,-16.75421497,14364,1.035955076,128,15031,1.084060202,8496.09375,16256,128
0.360031171,4992,-232892,-16.79655037,16186,1.167360683,128,14623,1.054634578,8498.046875,16320,128
1.037974481,14392,-232840,-16.79280004,16334,1.178034684,128,14796,1.067111619,8500,16384,128
-17.98316753,-249345,-233138,-16.81429229,14319,1.032709602,128,14123,1.018573763,8501.953125,16448,128
1.17695286,16319,-231489,-16.69536372,16340,1.178467414,128,15509,1.118534341,8503.90625,16512,128
-17.72691938,-245792,-232924,-16.79885826,16129,1.163249751,128,14945,1.077857742,8505.859375,16576,128
0.721144166,9999,-233637,-16.85028098,14344,1.034512643,128,14344,1.034512643,8507.8125,16640,128
0.572573611,7939,-232941,-16.80008433,16260,1.172697684,128,14868,1.072304377,8509.765625,16704,128
2.06787134,28672,-232440,-16.76395139,16184,1.16721644,128,14944,1.07778562,8511.71875,16768,128
1.070573458,14844,-233036,-16.80693588,16132,1.163466115,128,14860,1.071727404,8513.671875,16832,128
-18.87848543,-261759,-232517,-16.76950476,16383,1.181568644,128,14783,1.066174038,8515.625,16896,128
-18.31975917,-254012,-232244,-16.74981555,16383,1.181568644,128,15086,1.088026892,8517.578125,16960,128
-17.73838672,-245951,-231591,-16.70272013,99,0.007140041,128,16491,1.18935778,8519.53125,17024,128
-18.35192542,-254458,-232946,-16.80044494,15613,1.12603499,128,15581,1.123727098,8521.484375,17088,128
-17.98367238,-249352,-231989,-16.73142454,16259,1.172625562,128,15491,1.117236151,8523.4375,17152,128
0.958280082,13287,-232307,-16.75435922,15614,1.126107112,128,15531,1.120121017,8525.390625,17216,128
1.181568644,16383,-232061,-16.7366173,16376,1.181063793,128,15046,1.085142027,8527.34375,17280,128
1.116587057,15482,-231992,-16.7316409,16264,1.17298617,128,15424,1.112404002,8529.296875,17344,128
-17.98367238,-249352,-232112,-16.7402955,15489,1.117091908,128,15580,1.123654976,8531.25,17408,128
2.074650773,28766,-232702,-16.78284726,14844,1.070573458,128,14824,1.069131025,8533.203125,17472,128
0.556129879,7711,-232037,-16.73488638,14398,1.038407211,128,15541,1.120842233,8535.15625,17536,128
0.563053556,7807,-231305,-16.68209334,15472,1.11586584,128,15492,1.117308273,8537.109375,17600,128
1.063938268,14752,-231134,-16.66976055,15920,1.14817633,128,15478,1.11629857,8539.0625,17664,128
0.960587974,13319,-232017,-16.73344394,16064,1.158561845,128,15059,1.086079608,8541.015625,17728,128
0.582670639,8079,-232037,-16.73488638,15840,1.1424066,128,14697,1.059971578,8542.96875,17792,128
-17.90931498,-248321,-231938,-16.72774633,14329,1.033430819,128,14321,1.032853846,8544.921875,17856,128
1.068554052,14816,-233056,-16.80837832,14336,1.03393567,128,14353,1.035161738,8546.875,17920,128
-17.72468361,-245761,-232961,-16.80152676,14335,1.033863549,128,13989,1.008909465,8548.828125,17984,128
-17.76564869,-246329,-231977,-16.73055908,15875,1.144930857,128,14423,1.040210252,8550.78125,18048,128
-18.00956404,-249711,-233071,-16.80946014,12311,0.887889372,128,13334,0.961669798,8552.734375,18112,128
-18.01980531,-249853,-232182,-16.74534401,15911,1.147527235,128,14374,1.036676292,8554.6875,18176,128
1.006313086,13953,-231801,-16.71786567,16320,1.177024982,128,13976,1.007971884,8556.640625,18240,128
1.033575062,14331,-231694,-16.71014866,15998,1.153801817,128,14450,1.042157536,8558.59375,18304,128
0.909237374,12607,-232074,-16.73755488,14314,1.032348994,128,14186,1.023117426,8560.546875,18368,128
1.03480113,14348,-231032,-16.66240414,14768,1.065092214,128,14769,1.065164335,8562.5,18432,128
0.964626785,13375,-233218,-16.82006202,12800,0.923156848,128,13262,0.956477041,8564.453125,18496,128
0.957198257,13272,-233651,-16.85129069,13104,0.945081823,128,12887,0.92943143,8566.40625,18560,128
-17.79795918,-246777,-234306,-16.89853035,12175,0.87808083,128,12068,0.870363816,8568.359375,18624,128
-17.07731987,-236785,-232607,-16.7759957,12483,0.900294292,128,13202,0.952149743,8570.3125,18688,128
-17.79846404,-246784,-232507,-16.76878354,13943,1.00559187,128,13646,0.984171746,8572.265625,18752,128
0.950707311,13182,-232546,-16.77159629,13944,1.005663992,128,13131,0.947029107,8574.21875,18816,128
-17.94631337,-248834,-232460,-16.76539383,13071,0.94270181,128,12912,0.931234471,8576.171875,18880,128
-18.31997553,-254015,-232485,-16.76719687,12943,0.933470241,128,12969,0.935345404,8578.125,18944,128
0.932388417,12928,-232796,-16.78962669,12504,0.901808846,128,13018,0.938879363,8580.078125,19008,128
1.166639467,16176,-232141,-16.74238703,13280,0.95777523,128,13224,0.953736419,8582.03125,19072,128
-16.81119106,-233095,-232077,-16.73777124,15457,1.114784016,128,13545,0.976887462,8583.984375,19136,128
-18.01821864,-249831,-233031,-16.80657528,13201,0.952077621,128,12945,0.933614485,8585.9375,19200,128
0.757060737,10497,-234733,-16.92932629,12046,0.86877714,128,11866,0.855795247,8587.890625,19264,128
-18.43529802,-255614,-233054,-16.80823407,12791,0.922507754,128,12725,0.917747726,8589.84375,19328,128
0.959794636,13308,-232779,-16.78840062,12428,0.896327602,128,12941,0.933325998,8591.796875,19392,128
-17.98424935,-249360,-232974,-16.80246434,13881,1.001120329,128,13355,0.963184352,8593.75,19456,128
0.535430972,7424,-232180,-16.74519977,14328,1.033358697,128,13754,0.991960882,8595.703125,19520,128
-17.99348092,-249488,-233100,-16.81155167,16323,1.177241347,128,12243,0.882985101,8597.65625,19584,128
1.070717701,14846,-232994,-16.80390677,12688,0.915079226,128,12560,0.905847657,8599.609375,19648,128
0.369118496,5118,-232776,-16.78818426,12792,0.922579875,128,12768,0.920848956,8601.5625,19712,128
0.567741462,7872,-232831,-16.79215095,12292,0.886519061,128,12564,0.906136144,8603.515625,19776,128
1.163249751,16129,-233605,-16.84797309,16332,1.177890441,128,12206,0.880316601,8605.46875,19840,128
1.145796316,15887,-234307,-16.89860247,16254,1.172264954,128,11924,0.859978302,8607.421875,19904,128
-18.61552997,-258113,-232962,-16.80159888,12315,0.888177858,128,12976,0.935850255,8609.375,19968,128
-18.01865137,-249837,-232323,-16.75551316,14363,1.035882954,128,13059,0.94183635,8611.328125,20032,128
1.042301779,14452,-234401,-16.90538191,13128,0.946812743,128,11981,0.864089234,8613.28125,20096,128
0.29533807,4095,-234117,-16.88489936,15984,1.152792114,128,12021,0.8669741,8615.234375,20160,128
0.443620139,6151,-232554,-16.77217326,14392,1.037974481,128,12768,0.920848956,8617.1875,20224,128
-17.76211473,-246280,-232007,-16.73272273,14463,1.043095117,128,12621,0.910247077,8619.140625,20288,128
0.904260982,12538,-232486,-16.76726899,12862,0.927628389,128,12986,0.936571471,8621.09375,20352,128
-18.40168934,-255148,-232619,-16.77686116,12417,0.895534265,128,12681,0.914574375,8623.046875,20416,128
-17.79392037,-246721,-232342,-16.75688347,14471,1.04367209,128,12726,0.917819848,8625,20480,128
0.999677896,13861,-232411,-16.76185987,13872,1.000471234,128,13414,0.967439528,8626.953125,20544,128
-18.74931559,-259968,-234571,-16.91764258,12259,0.884139047,128,10823,0.780572388,8628.90625,20608,128
-17.72489997,-245764,-233095,-16.81119106,12537,0.90418886,128,12529,0.903611887,8630.859375,20672,128
-17.76572082,-246330,-232996,-16.80405102,12291,0.886446939,128,12611,0.90952586,8632.8125,20736,128
0.499081671,6920,-232872,-16.79510794,12400,0.894308197,128,12404,0.894596683,8634.765625,20800,128
0.888610588,12321,-232477,-16.76661989,14366,1.036099319,128,12348,0.890557872,8636.71875,20864,128
-18.46320909,-256001,-232322,-16.75544104,16327,1.177529833,128,12173,0.877936587,8638.671875,20928,128
0.886302696,12289,-232925,-16.79893038,15880,1.145291465,128,11913,0.859184964,8640.625,20992,128
-18.61524148,-258109,-233530,-16.84256397,16311,1.176375887,128,11573,0.83466361,8642.578125,21056,128
0.872094735,12092,-233841,-16.86499379,16158,1.165341278,128,11811,0.851828557,8644.53125,21120,128
0.877864465,12172,-233511,-16.84119366,16376,1.181063793,128,12504,0.901808846,8646.484375,21184,128
1.1734189,16270,-233853,-16.86585925,16380,1.181352279,128,12163,0.877215371,8648.4375,21248,128
-18.60391839,-257952,-232617,-16.77671692,12323,0.888754831,128,12629,0.91082405,8650.390625,21312,128
-16.55696232,-229570,-231343,-16.68483397,15601,1.125169531,128,13718,0.989364504,8652.34375,21376,128
0.553894109,7680,-231312,-16.6825982,15438,1.113413705,128,13390,0.965708609,8654.296875,21440,128
1.144714492,15872,-229854,-16.57744486,494,0.035628085,128,14248,1.027588967,8656.25,21504,128
0.055894262,775,-228793,-16.50092381,410,0.029569868,128,15258,1.100431812,8658.203125,21568,128
1.44E-04,2,-229310,-16.53821069,16368,1.18048682,128,15345,1.106706394,8660.15625,21632,128
0.020843151,289,-229023,-16.51751179,16258,1.172553441,128,16034,1.156398196,8662.109375,21696,128
-18.89709281,-262017,-228251,-16.46183389,16415,1.183876536,128,17040,1.228952554,8664.0625,21760,128
0.229491023,3182,-226962,-16.36886911,16414,1.183804415,128,18718,1.349972647,8666.015625,21824,128
0.022790435,316,-226504,-16.3358374,16446,1.186112307,128,20540,1.481378255,8667.96875,21888,128
-18.83355365,-261136,-225312,-16.24986842,16419,1.184165023,128,22694,1.636728243,8669.921875,21952,128
0.304281152,4219,-225190,-16.24106958,24588,1.773326608,128,24797,1.788400029,8671.875,22016,128
0.30197326,4187,-224557,-16.19541659,25344,1.82785056,128,27489,1.982551453,8673.828125,22080,128
-18.31939856,-254007,-224695,-16.20536938,24823,1.790275191,128,27095,1.954135532,8675.78125,22144,128
0.187083505,2594,-222482,-16.04576421,25720,1.854968292,128,25673,1.851578576,8677.734375,22208,128
-18.32379798,-254068,-222404,-16.04013873,16411,1.18358805,128,21691,1.56439025,8679.6875,22272,128
-18.4352259,-255613,-222973,-16.08117593,3967,0.286106501,128,19820,1.429450682,8681.640625,22336,128
0.297501719,4125,-223463,-16.11651553,3038,0.219105508,128,19294,1.391514706,8683.59375,22400,128
0.524540606,7273,-225312,-16.24986842,2296,0.16559126,128,18326,1.321700969,8685.546875,22464,128
-18.9030789,-262100,-229308,-16.53806645,1055,0.076088318,128,16188,1.167504927,8687.5,22528,128
-16.58811886,-230002,-230348,-16.61307295,15599,1.125025287,128,14928,1.076631674,8689.453125,22592,128
-17.79803131,-246778,-231002,-16.66024049,14331,1.033575062,128,13969,1.007467032,8691.40625,22656,128
1.180558941,16369,-230409,-16.61747236,16136,1.163754602,128,14154,1.020809534,8693.359375,22720,128
1.11009611,15392,-231327,-16.68368002,15872,1.144714492,128,13465,0.971117731,8695.3125,22784,128
-17.89034699,-248058,-231604,-16.70365771,15359,1.107716096,128,12855,0.927123538,8697.265625,22848,128
0.589666437,8176,-231438,-16.69168552,12248,0.883345709,128,12178,0.878297195,8699.21875,22912,128
-17.76211473,-246280,-232159,-16.74368521,12287,0.886158453,128,12209,0.880532966,8701.171875,22976,128
-17.90058826,-248200,-231856,-16.72183236,16317,1.176808617,128,13245,0.955250973,8703.125,23040,128
-18.01288164,-249757,-233237,-16.82143233,11267,0.812594391,128,11547,0.832788447,8705.078125,23104,128
1.777293298,24643,-234038,-16.87920176,11278,0.813387729,128,11646,0.839928489,8707.03125,23168,128
0.733909694,10176,-234023,-16.87811993,15878,1.145147222,128,12324,0.888826953,8708.984375,23232,128
1.110673083,15400,-234390,-16.90458857,12192,0.879306898,128,11686,0.842813354,8710.9375,23296,128
-17.86928748,-247766,-232534,-16.77073083,14333,1.033719305,128,13897,1.002274275,8712.890625,23360,128
-18.31572036,-253956,-232052,-16.7359682,14347,1.034729008,128,14363,1.035882954,8714.84375,23424,128
0.143305676,1987,-234170,-16.88872181,16376,1.181063793,128,11963,0.862791045,8716.796875,23488,128
-18.60867841,-258018,-233168,-16.81645594,12379,0.892793643,128,13018,0.938879363,8718.75,23552,128
-18.29487721,-253667,-234211,-16.8916788,16359,1.179837725,128,12039,0.868272289,8720.703125,23616,128
-18.7666969,-260209,-233569,-16.84537671,12291,0.886446939,128,12371,0.89221667,8722.65625,23680,128
0.902890671,12519,-233139,-16.81436441,12542,0.904549468,128,12919,0.931739322,8724.609375,23744,128
1.052254564,14590,-233081,-16.81018136,13302,0.959361906,128,13409,0.96707892,8726.5625,23808,128
-17.78007302,-246529,-234644,-16.92290746,12799,0.923084727,128,12228,0.881903277,8728.515625,23872,128
0.84706853,11745,-234015,-16.87754296,12672,0.91392528,128,12573,0.906785239,8730.46875,23936,128
0.461506303,6399,-233271,-16.82388447,13088,0.943927877,128,13092,0.944216364,8732.421875,24000,128
0.138473527,1920,-234353,-16.90192007,16368,1.18048682,128,12148,0.876133546,8734.375,24064,128
0.591325234,8199,-234057,-16.88057207,12820,0.924599281,128,12820,0.924599281,8736.328125,24128,128
-18.45505934,-255888,-233103,-16.81176803,14823,1.069058903,128,12644,0.911905874,8738.28125,24192,128
-17.81591747,-247026,-232932,-16.79943523,14337,1.034007792,128,12881,0.9289987,8740.234375,24256,128
0.293607151,4071,-234009,-16.87711023,12288,0.886230574,128,12578,0.907145847,8742.1875,24320,128
0.626015738,8680,-233592,-16.84703551,13056,0.941619985,128,12833,0.925536862,8744.140625,24384,128
0.885076628,12272,-234526,-16.91439711,16320,1.177024982,128,11608,0.837187867,8746.09375,24448,128
-18.02059865,-249864,-234534,-16.91497408,16381,1.181424401,128,12121,0.874186262,8748.046875,24512,128
-18.63637312,-258402,-233826,-16.86391197,12335,0.889620291,128,12591,0.908083428,8750,24576,128
-18.02002168,-249856,-233027,-16.80628679,15111,1.089829932,128,13071,0.94270181,8751.953125,24640,128
-17.79154036,-246688,-234007,-16.87696598,12291,0.886446939,128,12307,0.887600885,8753.90625,24704,128
-18.04836548,-250249,-233739,-16.85763739,12359,0.89135121,128,12383,0.893082129,8755.859375,24768,128
-0.128232256,-1778,-232630,-16.7776545,15345,1.106706394,128,13045,0.940826647,8757.8125,24832,128
-18.44698172,-255776,-232566,-16.77303872,15359,1.107716096,128,13119,0.946163648,8759.765625,24896,128
-18.01944471,-249848,-233063,-16.80888317,14471,1.04367209,128,12727,0.917891969,8761.71875,24960,128
-18.01980531,-249853,-232565,-16.7729666,14847,1.070789822,128,13115,0.945875161,8763.671875,25024,128
0.331687371,4599,-232817,-16.79114125,14528,1.047783023,128,12744,0.919118037,8765.625,25088,128
0.887312399,12303,-233668,-16.85251675,12318,0.888394223,128,12463,0.898851859,8767.578125,25152,128
1.171255251,16240,-233871,-16.86715744,12320,0.888538467,128,12514,0.902530063,8769.53125,25216,128
0.886230574,12288,-232950,-16.80073342,14576,1.051244861,128,12992,0.937004201,8771.484375,25280,128
0.9236617,12807,-232931,-16.79936311,14494,1.045330887,128,12952,0.934119336,8773.4375,25344,128
-18.54398531,-257121,-232545,-16.77152416,14791,1.066751011,128,13213,0.952943081,8775.390625,25408,128
1.015400412,14079,-231717,-16.71180746,15880,1.145291465,128,13850,0.998884559,8777.34375,25472,128
-17.97480142,-249229,-231849,-16.72132751,16365,1.180270455,128,13549,0.977175948,8779.296875,25536,128
-17.76146564,-246271,-233279,-16.82446144,12303,0.887312399,128,12525,0.9033234,8781.25,25600,128
0.313873328,4352,-232704,-16.7829915,14364,1.035955076,128,12981,0.936210863,8783.203125,25664,128
-18.01547802,-249793,-232195,-16.74628159,15899,1.146661776,128,13426,0.968304988,8785.15625,25728,128
0.590315532,8185,-231207,-16.67502542,15364,1.108076705,128,14724,1.061918862,8787.109375,25792,128
-18.31535975,-253951,-235187,-16.96206951,11771,0.848943692,128,11706,0.844255786,8789.0625,25856,128
-18.32473556,-254081,-231047,-16.66348596,16191,1.167721292,128,13611,0.981647489,8791.015625,25920,128
-18.55509204,-257275,-232955,-16.80109403,12427,0.896255481,128,12939,0.933181755,8792.96875,25984,128
-17.94595277,-248829,-232222,-16.74822888,14465,1.04323936,128,13193,0.951500648,8794.921875,26048,128
-18.31600884,-253960,-231320,-16.68317517,16159,1.165413399,128,13662,0.985325692,8796.875,26112,128
0.470737871,6527,-231049,-16.66363021,15420,1.112115516,128,13556,0.9776808,8798.828125,26176,128
1.18048682,16368,-230751,-16.64213796,15406,1.111105813,128,14382,1.037253265,8800.78125,26240,128
-17.72691938,-245792,-231571,-16.7012777,15415,1.111754908,128,13557,0.977752921,8802.734375,26304,128
1.177890441,16332,-232436,-16.76366291,12684,0.914790739,128,12684,0.914790739,8804.6875,26368,128
-18.49955839,-256505,-232492,-16.76770172,12815,0.924238673,128,12844,0.9263302,8806.640625,26432,128
-16.76344654,-232433,-232437,-16.76373503,12927,0.932316295,128,13030,0.939744823,8808.59375,26496,128
-17.78028939,-246532,-232195,-16.74628159,14275,1.029536251,128,13442,0.969458934,8810.546875,26560,128
-18.01266527,-249754,-231450,-16.69255098,15967,1.151566047,128,14033,1.012082817,8812.5,26624,128
0.920921078,12769,-232063,-16.73676154,13284,0.958063717,128,13164,0.949409121,8814.453125,26688,128
0.299953854,4159,-232266,-16.75140223,13280,0.95777523,128,13228,0.954024905,8816.40625,26752,128
0.581516693,8063,-230536,-16.62663181,16256,1.172409197,128,14121,1.01842952,8818.359375,26816,128
-17.74285826,-246013,-230557,-16.62814637,16001,1.154018182,128,13993,1.009197951,8820.3125,26880,128
-17.86481593,-247704,-230677,-16.63680096,16157,1.165269156,128,14161,1.021314385,8822.265625,26944,128
-17.73968491,-245969,-231061,-16.66449567,16371,1.180703185,128,14003,1.009919168,8824.21875,27008,128
-18.46241575,-255990,-231414,-16.6899546,14083,1.015688898,128,13826,0.997153639,8826.171875,27072,128
-18.01922834,-249845,-232549,-16.77181265,12303,0.887312399,128,13244,0.955178852,8828.125,27136,128
-17.73276123,-245873,-231026,-16.66197141,16157,1.165269156,128,14173,1.022179845,8830.078125,27200,128
1.067977079,14808,-231086,-16.66629871,15616,1.126251355,128,13580,0.979411719,8832.03125,27264,128
-18.53929741,-257056,-231388,-16.68807944,14333,1.033719305,128,13846,0.998596072,8833.984375,27328,128
0.459270532,6368,-230976,-16.65836533,14336,1.03393567,128,14402,1.038695698,8835.9375,27392,128
0.459270532,6368,-229741,-16.56929512,14336,1.03393567,128,14764,1.064803727,8837.890625,27456,128
0.55879838,7748,-230196,-16.60211046,14494,1.045330887,128,14524,1.047494536,8839.84375,27520,128
1.107788218,15360,-230132,-16.59749467,14578,1.051389104,128,14578,1.051389104,8841.796875,27584,128
0.001081824,15,-229015,-16.51693481,16256,1.172409197,128,15345,1.106706394,8843.75,27648,128
0.001081824,15,-228121,-16.45245808,16256,1.172409197,128,16013,1.154883642,8845.703125,27712,128
-18.84134279,-261244,-229354,-16.54138405,16415,1.183876536,128,15522,1.119471922,8847.65625,27776,128
-17.74314675,-246017,-231731,-16.71281716,12735,0.918468942,128,14125,1.018718006,8849.609375,27840,128
1.181568644,16383,-230402,-16.61696751,16256,1.172409197,128,15383,1.109447015,8851.5625,27904,128
-17.84346793,-247408,-231024,-16.66182717,14287,1.03040171,128,14045,1.012948276,8853.515625,27968,128
-17.73874733,-245956,-230084,-16.59403284,14823,1.069058903,128,15340,1.106345785,8855.46875,28032,128
0.033175949,460,-229044,-16.51902634,16000,1.15394606,128,16014,1.154955763,8857.421875,28096,128
0.295265948,4094,-229834,-16.57600243,14350,1.034945373,128,14990,1.081103215,8859.375,28160,128
0,0,-228859,-16.50568384,128,0.009231568,128,16512,1.190872334,8861.328125,28224,128
-18.37435524,-254769,-230198,-16.6022547,16313,1.17652013,128,15289,1.102667582,8863.28125,28288,128
-18.90495406,-262126,-229230,-16.53244096,15991,1.153296966,128,16119,1.162528534,8865.234375,28352,128
1.181568644,16383,-229230,-16.53244096,0,0,128,16119,1.162528534,8867.1875,28416,144
2.16E-04,3,58,0.004183054,0,0,25,-540672,-38.99414527,8869.140625,28480,152
0.521295133,7228,3999740,288.4677635,0,0,155,0,0,8871.09375,28544,152
0,0,3999740,288.4677635,0,0,155,0,0,8873.046875,28608,0
0,0,64,0.004615784,0,0,131,-7815168,-563.6426453,8875,28672,0
0,0,64,0.004615784,0,0,131,-7815168,-563.6426453,8876.953125,28736,128
-605.0000721,-8388608,-8282176,-597.3240229,1,7.21E-05,0,4306172,310.5681384,8878.90625,28800,0
-302.5000361,-4194304,-229557,-16.55602474,2079,0.149940866,128,16476,1.188275956,8880.859375,28864,0
0,0,4374528,315.4980845,15488,1.117019786,0,-656256,-47.33025161,8882.8125,28928,0
0.017309191,240,-8174912,-589.5879685,799,0.057625181,0,4458236,321.5352418,8884.765625,28992,128
-604.9983412,-8388584,-8174912,-589.5879685,767,0.055317289,0,4458236,321.5352418,8886.71875,29056,0
1.163177629,16128,-229871,-16.57867093,220,0.015866758,128,16846,1.214960958,8888.671875,29120,128
1.172409197,16256,-229093,-16.5225603,0,0,128,17361,1.252103597,8890.625,29184,128
-18.88757275,-261885,-229025,-16.51765603,31,0.00223577,128,17038,1.228808311,8892.578125,29248,128
-18.87862967,-261761,-228735,-16.49674076,415,0.029930476,128,17054,1.229962257,8894.53125,29312,128
0.011467339,159,-229497,-16.55169744,1016,0.073275575,128,17099,1.23320773,8896.484375,29376,128
0.004687906,65,-228114,-16.45195323,996,0.071833142,128,17988,1.297323858,8898.4375,29440,128
0.147632974,2047,-228134,-16.45339566,734,0.052937276,128,17686,1.275543127,8900.390625,29504,128
-18.90170859,-262081,-228721,-16.49573106,63,0.004543663,128,17364,1.252319962,8902.34375,29568,128
-17.72576543,-245776,-229366,-16.54224951,191,0.013775231,128,16979,1.224553135,8904.296875,29632,128
-18.83535669,-261161,-227863,-16.4338507,501,0.036132936,128,18083,1.304175413,8906.25,29696,128
-18.86910961,-261629,-229593,-16.55862112,7,5.05E-04,128,16494,1.189574145,8908.203125,29760,128
-17.74220917,-246004,-229299,-16.53741736,15,0.001081824,128,17078,1.231693176,8910.15625,29824,128
-18.88988064,-261917,-228852,-16.50517899,3,2.16E-04,128,17345,1.250949651,8912.109375,29888,128
-18.83687125,-261182,-229017,-16.51707906,927,0.06685675,128,17063,1.230611352,8914.0625,29952,128
-18.89730917,-262020,-229631,-16.56136174,71,0.005120636,128,16807,1.212148215,8916.015625,30016,128
0.585916112,8124,-230421,-16.61833782,254,0.018318894,128,16108,1.161735196,8917.96875,30080,128
-18.31983129,-254013,-228941,-16.51159781,16367,1.180414698,128,16686,1.203421498,8919.921875,30144,128
0.014280082,198,-228987,-16.51491541,186,0.013414623,128,17206,1.240924745,8921.875,30208,128
-17.78973732,-246663,-230149,-16.59872074,16255,1.172337076,128,16251,1.172048589,8923.828125,30272,128
-17.75959048,-246245,-230626,-16.63312276,16143,1.164259453,128,16242,1.171399495,8925.78125,30336,128
-17.8633735,-247684,-231907,-16.72551056,25,0.001803041,128,15574,1.123222247,8927.734375,30400,128
-17.98316753,-249345,-233579,-16.84609793,14839,1.070212849,128,14209,1.024776223,8929.6875,30464,128
-18.01821864,-249831,-232481,-16.76690838,12359,0.89135121,128,14354,1.035233859,8931.640625,30528,128
1.178178928,16336,-231255,-16.67848726,16262,1.172841927,128,15830,1.141685384,8933.59375,30592,128
0.961814041,13336,-232852,-16.7936655,14560,1.050090915,128,14410,1.039272671,8935.546875,30656,128
-17.8677008,-247744,-231993,-16.73171302,14287,1.03040171,128,15093,1.088531743,8937.5,30720,128
-18.45397752,-255873,-231331,-16.68396851,15487,1.116947665,128,15138,1.091777216,8939.453125,30784,128
1.111250056,15408,-232158,-16.74361309,16256,1.172409197,128,14399,1.038479333,8941.40625,30848,128
-17.85500739,-247568,-232386,-16.76005682,14095,1.016554358,128,14536,1.048359996,8943.359375,30912,128
0.954313392,13232,-233301,-16.82604812,13304,0.959506149,128,14087,1.015977385,8945.3125,30976,128
-17.86322926,-247682,-233133,-16.81393168,13855,0.999245167,128,14040,1.012587668,8947.265625,31040,128
0.692367636,9600,-235141,-16.95875191,15360,1.107788218,128,12621,0.910247077,8949.21875,31104,128
-18.62822337,-258289,-234111,-16.88446663,13039,0.940393918,128,13344,0.962391014,8951.171875,31168,128
-18.27915469,-253449,-233057,-16.80845044,14271,1.029247764,128,13672,0.986046909,8953.125,31232,128
-18.3191822,-254004,-233514,-16.84141002,14335,1.033863549,128,13523,0.975300786,8955.078125,31296,128
0.592984032,8222,-233796,-16.86174832,13316,0.960371609,128,13438,0.969170447,8957.03125,31360,128
-18.60968812,-258032,-232889,-16.796334,15751,1.135987775,128,14022,1.011289479,8958.984375,31424,128
-17.86200319,-247665,-233335,-16.82850025,13699,0.987994193,128,13698,0.987922071,8960.9375,31488,128
0.627746657,8704,-233958,-16.87343203,15372,1.108653678,128,13501,0.97371411,8962.890625,31552,128
0.29533807,4095,-233634,-16.85006462,14332,1.033647184,128,14012,1.010568262,8964.84375,31616,128
0.257834823,3575,-233877,-16.86759017,14302,1.031483535,128,13599,0.98078203,8966.796875,31680,128
-18.03848482,-250112,-234503,-16.91273831,12403,0.894524562,128,12804,0.923445335,8968.75,31744,128
-18.63882525,-258436,-234473,-16.91057466,12291,0.886446939,128,12921,0.931883565,8970.703125,31808,128
0.223000076,3092,-233686,-16.85381494,14414,1.039561157,128,13315,0.960299487,8972.65625,31872,128
0.812594391,11267,-234516,-16.91367589,12292,0.886519061,128,12852,0.926907173,8974.609375,31936,128
0.665249904,9224,-234027,-16.87840842,13292,0.95864069,128,13472,0.971622583,8976.5625,32000,128
-18.89738129,-262021,-233971,-16.87436961,13295,0.958857055,128,13196,0.951717013,8978.515625,32064,128
0.304064787,4216,-232914,-16.79813704,16382,1.181496523,128,14046,1.013020398,8980.46875,32128,128
0.736433951,10211,-234347,-16.90148734,13850,0.998884559,128,13143,0.947894567,8982.421875,32192,128
0.276586446,3835,-234525,-16.91432499,13062,0.942052715,128,12732,0.918252578,8984.375,32256,128
-18.61920817,-258164,-233430,-16.83535181,14787,1.066462525,128,13435,0.968954083,8986.328125,32320,128
0.842308502,11679,-235044,-16.95175611,12316,0.88824998,128,12564,0.906136144,8988.28125,32384,128
0.753238291,10444,-234209,-16.89153455,12736,0.918541064,128,13334,0.961669798,8990.234375,32448,128
-18.31139306,-253896,-233240,-16.8216487,16319,1.17695286,128,14001,1.009774924,8992.1875,32512,128
0.886230574,12288,-233371,-16.83109663,16134,1.163610359,128,14076,1.015184047,8994.140625,32576,128
0.294112002,4078,-234615,-16.92081594,13312,0.960083122,128,12910,0.931090227,8996.09375,32640,128
0.222350982,3083,-235390,-16.9767102,15904,1.147022384,128,11933,0.860627396,8998.046875,32704,128
0.062385209,865,-233631,-16.84984825,16380,1.181352279,128,13268,0.956909771,9000,32768,128
0.589522194,8174,-233106,-16.8119844,14330,1.03350294,128,13874,1.000615478,9001.953125,32832,128
-18.7533544,-260024,-234805,-16.93451904,13185,0.950923675,128,12843,0.926258078,9003.90625,32896,128
0.589522194,8174,-235049,-16.95211672,14330,1.03350294,128,12402,0.89445244,9005.859375,32960,0
0.276947054,3840,-234882,-16.94007241,12764,0.92056047,128,12538,0.904260982,9007.8125,33024,128
0.849809152,11783,-235313,-16.97115683,12388,0.893442737,128,12441,0.897265184,9009.765625,33088,128
-18.61545785,-258112,-234225,-16.8926885,14339,1.034152035,128,13334,0.961669798,9011.71875,33152,128
0.605172587,8391,-235139,-16.95860767,12544,0.904693711,128,12680,0.914502253,9013.671875,33216,128
0.276874933,3839,-233302,-16.82612024,16376,1.181063793,128,13946,1.005808235,9015.625,33280,128
-18.0200938,-249857,-234211,-16.8916788,14319,1.032709602,128,13578,0.979267476,9017.578125,33344,128
0.599474978,8312,-233642,-16.85064159,16382,1.181496523,128,14318,1.032637481,9019.53125,33408,128
-18.03495086,-250063,-234656,-16.92377292,13827,0.997225761,128,12921,0.931883565,9021.484375,33472,128
0.29533807,4095,-234832,-16.93646633,13562,0.978113529,128,13086,0.943783634,9023.4375,33536,128
-18.0200938,-249857,-234487,-16.91158437,13059,0.94183635,128,13096,0.94450485,9025.390625,33600,128
0.028127435,390,-234718,-16.92824446,13152,0.948543662,128,13077,0.94313454,9027.34375,33664,128
0.746458858,10350,-235255,-16.96697378,12544,0.904693711,128,12868,0.928061119,9029.296875,33728,128
0.036349301,504,-235420,-16.97887385,12740,0.918829551,128,12853,0.926979295,9031.25,33792,128
-18.30850819,-253856,-235062,-16.9530543,12801,0.92322897,128,12981,0.936210863,9033.203125,33856,128
-18.29494933,-253668,-234981,-16.94721245,12927,0.932316295,128,13353,0.963040109,9035.15625,33920,128
-18.68029519,-259011,-234459,-16.90956496,16367,1.180414698,128,13804,0.995566964,9037.109375,33984,128
-18.61502512,-258106,-233826,-16.86391197,16095,1.160797615,128,14033,1.012082817,9039.0625,34048,128
0.012693407,176,-234336,-16.900694,15360,1.107788218,128,13517,0.974868056,9041.015625,34112,128
0.277019176,3841,-233671,-16.85273312,14542,1.048792726,128,14478,1.044176941,9042.96875,34176,128
0.075006494,1040,-234222,-16.89247214,14086,1.015905263,128,13838,0.998019099,9044.921875,34240,128
0.205186034,2845,-235332,-16.97252714,13408,0.967006799,128,12761,0.920344105,9046.875,34304,128
-18.31543187,-253952,-235593,-16.99135089,12297,0.886879669,128,12842,0.926185957,9048.828125,34368,128
-18.20876398,-252473,-236012,-17.02156985,12289,0.886302696,128,12844,0.9263302,9050.78125,34432,128
0.590820383,8192,-234809,-16.93480753,15384,1.109519137,128,13638,0.983594773,9052.734375,34496,128
-18.8880776,-261892,-235080,-16.95435249,14233,1.026507142,128,13753,0.991888761,9054.6875,34560,128
-18.25903276,-253170,-236029,-17.02279592,12529,0.903611887,128,13266,0.956765527,9056.640625,34624,128
-18.76092717,-260129,-234574,-16.91785895,14361,1.035738711,128,13559,0.977897165,9058.59375,34688,128
0.0230068,319,-233228,-16.82078324,16184,1.16721644,128,14134,1.019367101,9060.546875,34752,128
-18.18417051,-252132,-235054,-16.95247733,14335,1.033863549,128,13443,0.969531056,9062.5,34816,128
0.266417297,3694,-234841,-16.93711542,14312,1.032204751,128,13544,0.97681534,9064.453125,34880,128
0.23071709,3199,-234504,-16.91281043,15730,1.134473221,128,13848,0.998740315,9066.40625,34944,128
0.851612193,11808,-234873,-16.93942332,15384,1.109519137,128,13764,0.992682098,9068.359375,35008,128
-17.72468361,-245761,-236151,-17.03159476,13047,0.940970891,128,12703,0.91616105,9070.3125,35072,128
-18.75883564,-260100,-235844,-17.00945342,12399,0.894236075,128,12768,0.920848956,9072.265625,35136,128
-18.74960408,-259972,-234654,-16.92362868,14593,1.052470929,128,13758,0.992249369,9074.21875,35200,128
-17.83113513,-247237,-234910,-16.94209182,14273,1.029392008,128,13529,0.975733516,9076.171875,35264,128
0.073780426,1023,-234969,-16.94634699,14272,1.029319886,128,13764,0.992682098,9078.125,35328,128
-18.75847504,-260095,-235385,-16.97634959,14835,1.069924363,128,13106,0.945226067,9080.078125,35392,128
-18.61199601,-258064,-233997,-16.87624477,16367,1.180414698,128,14123,1.018573763,9082.03125,35456,128
-18.77708242,-260353,-235778,-17.00469339,12327,0.889043318,128,12839,0.925969592,9083.984375,35520,128
-18.86954234,-261635,-235715,-17.00014973,12799,0.923084727,128,12713,0.916882267,9085.9375,35584,128
0.147344488,2043,-235752,-17.00281823,12796,0.922868362,128,13001,0.937653296,9087.890625,35648,128
0.729149667,10110,-237138,-17.1027788,12412,0.895173656,128,11759,0.848078233,9089.84375,35712,128
0.664600809,9215,-236092,-17.02733958,12384,0.893154251,128,12878,0.928782335,9091.796875,35776,128
0.110201849,1528,-236531,-17.05900098,12672,0.91392528,128,12114,0.873681411,9093.75,35840,128
4.33E-04,6,-236716,-17.07234348,16066,1.158706088,128,12351,0.890774237,9095.703125,35904,128
-18.29747359,-253703,-236588,-17.06311191,12289,0.886302696,128,12164,0.877287492,9097.65625,35968,128
0.035123233,487,-235291,-16.96957016,14404,1.038839941,128,12376,0.892577278,9099.609375,36032,128
-18.87156175,-261663,-235942,-17.01652134,14599,1.052903658,128,12599,0.908660401,9101.5625,36096,128
0.627241805,8697,-236161,-17.03231597,12784,0.922002902,128,12660,0.91305982,9103.515625,36160,128
-18.87855755,-261760,-236054,-17.02459896,14399,1.038479333,128,12859,0.927412024,9105.46875,36224,128
0.656018335,9096,-235930,-17.01565588,15712,1.133175031,128,13222,0.953592176,9107.421875,36288,128
0.626304224,8684,-236970,-17.09066237,12672,0.91392528,128,12471,0.899428832,9109.375,36352,128
0.295265948,4094,-237149,-17.10357214,16380,1.181352279,128,12701,0.916016807,9111.328125,36416,128
0.073780426,1023,-235968,-17.0183965,14344,1.034512643,128,13001,0.937653296,9113.28125,36480,128
0.592839789,8220,-236176,-17.0333978,12738,0.918685307,128,12682,0.914646496,9115.234375,36544,128
-18.8924049,-261952,-236864,-17.08301748,12349,0.890629994,128,12349,0.890629994,9117.1875,36608,128
0.147200244,2041,-236183,-17.03390265,15410,1.111394299,128,12658,0.912915577,9119.140625,36672,128
-18.31492702,-253945,-234914,-16.9423803,16353,1.179404995,128,13579,0.979339597,9121.09375,36736,128
-18.30627242,-253825,-236929,-17.08770538,16371,1.180703185,128,12274,0.885220872,9123.046875,36800,128
-18.84393917,-261280,-236702,-17.07133377,16369,1.180558941,128,12273,0.88514875,9125,36864,128
-17.94515943,-248818,-235507,-16.98514843,14495,1.045403009,128,13673,0.98611903,9126.953125,36928,128
0.027694705,384,-236917,-17.08683992,14220,1.025569561,128,12309,0.887745129,9128.90625,36992,128
-18.8393955,-261217,-237025,-17.09462906,12511,0.902313698,128,12729,0.918036213,9130.859375,37056,128
0.590531896,8188,-237465,-17.12636258,16262,1.172841927,128,11793,0.850530368,9132.8125,37120,128
2.16E-04,3,-237209,-17.10789944,15902,1.146878141,128,12011,0.866252883,9134.765625,37184,128
-18.85490165,-261432,-236434,-17.05200518,14623,1.054634578,128,13035,0.940105431,9136.71875,37248,128
-18.23934355,-252897,-236047,-17.02409411,14855,1.071366795,128,13038,0.940321796,9138.671875,37312,128
-18.77477452,-260321,-235949,-17.01702619,14851,1.071078309,128,13003,0.937797539,9140.625,37376,128
-18.75861928,-260097,-236659,-17.06823254,15487,1.116947665,128,12739,0.918757429,9142.578125,37440,128
0.01327038,184,-237057,-17.09693695,16380,1.181352279,128,12446,0.897625792,9144.53125,37504,128
-18.90279042,-262096,-236725,-17.07299257,14463,1.043095117,128,12597,0.908516158,9146.484375,37568,128
-18.24504116,-252976,-236914,-17.08662356,12543,0.90462159,128,12410,0.895029413,9148.4375,37632,128
-18.87855755,-261760,-237476,-17.12715592,12289,0.886302696,128,12546,0.904837955,9150.390625,37696,128
0.009015204,125,-237347,-17.11785223,12350,0.890702115,128,12342,0.890125142,9152.34375,37760,128
0.008726717,121,-237207,-17.1077552,12536,0.904116738,128,12529,0.903611887,9154.296875,37824,128
-18.3062003,-253824,-236922,-17.08720053,14407,1.039056306,128,12871,0.928277484,9156.25,37888,128
-18.86954234,-261635,-237099,-17.09996606,12415,0.895390021,128,12666,0.91349255,9158.203125,37952,128
0.077098021,1069,-236499,-17.05669308,14648,1.056437618,128,12585,0.907650698,9160.15625,38016,128
0.109624876,1520,-236064,-17.02532018,15280,1.102018488,128,13233,0.954385514,9162.109375,38080,128
0.064548858,895,-236932,-17.08792175,12484,0.900366414,128,12484,0.900366414,9164.0625,38144,128
0.136021392,1886,-235944,-17.01666558,15128,1.091056,128,13171,0.949913973,9166.015625,38208,128
-18.83232758,-261119,-236571,-17.06188584,14351,1.035017495,128,12945,0.933614485,9167.96875,38272,128
-18.31254701,-253912,-237631,-17.13833477,12543,0.90462159,128,12367,0.891928183,9169.921875,38336,128
0.291299259,4039,-236614,-17.06498707,12300,0.887096034,128,13389,0.965636488,9171.875,38400,128
0.703402245,9753,-236611,-17.06477071,14336,1.03393567,128,12766,0.920704713,9173.828125,38464,128
-18.25997034,-253183,-237040,-17.09571089,14339,1.034152035,128,12834,0.925608984,9175.78125,38528,128
0.591180991,8197,-237342,-17.11749162,12294,0.886663304,128,12788,0.922291389,9177.734375,38592,128
-18.90199708,-262085,-236797,-17.07818533,15361,1.10786034,128,13565,0.978329894,9179.6875,38656,128
-18.83175061,-261111,-236069,-17.02568078,16383,1.181568644,128,13852,0.999028802,9181.640625,38720,128
4.33E-04,6,-237022,-17.0944127,15374,1.108797921,128,13739,0.990879058,9183.59375,38784,128
0.004110933,57,-236701,-17.07126165,16126,1.163033386,128,14104,1.017203452,9185.546875,38848,128
-18.90401648,-262113,-236815,-17.07948352,14335,1.033863549,128,13384,0.96527588,9187.5,38912,128
-18.28304926,-253503,-236642,-17.06700648,15911,1.147527235,128,14011,1.010496141,9189.453125,38976,128
-18.61141904,-258056,-237870,-17.15557184,12659,0.912987699,128,13171,0.949913973,9191.40625,39040,128
-18.64776834,-258560,-234784,-16.93300449,15943,1.149835128,128,16079,1.159643669,9193.359375,39104,128
-18.35697393,-254528,-238316,-17.18773808,12351,0.890774237,128,12849,0.926690808,9195.3125,39168,128
0.593633126,8231,-237465,-17.12636258,13296,0.958929176,128,13250,0.955611581,9197.265625,39232,128
-18.24965695,-253040,-236656,-17.06801618,15865,1.144209641,128,13747,0.991456031,9199.21875,39296,128
-18.76554296,-260193,-236266,-17.03988874,16131,1.163393994,128,14146,1.020232561,9201.171875,39360,128
0.664095958,9208,-236592,-17.0634004,15936,1.149330276,128,14023,1.0113616,9203.125,39424,128
0.920848956,12768,-237278,-17.11287583,14296,1.031050805,128,13584,0.979700205,9205.078125,39488,128
-18.81458566,-260873,-235611,-16.99264908,16189,1.167577048,128,14760,1.064515241,9207.03125,39552,128
-18.29927663,-253728,-235432,-16.97973931,15935,1.149258155,128,14811,1.068193444,9208.984375,39616,128
-17.12217952,-237407,-235344,-16.9733926,15391,1.110023988,128,15033,1.084204445,9210.9375,39680,128
-18.30562333,-253816,-237060,-17.09715332,13343,0.962318893,128,13881,1.001120329,9212.890625,39744,128
-18.24907997,-253032,-236072,-17.02589715,14311,1.032132629,128,14558,1.049946672,9214.84375,39808,128
-17.98771119,-249408,-235590,-16.99113452,14529,1.047855144,128,14832,1.069707998,9216.796875,39872,128
-18.1677989,-251905,-235743,-17.00216913,14351,1.035017495,128,14826,1.069275268,9218.75,39936,128
-18.66608723,-258814,-234787,-16.93322086,15329,1.105552448,128,15136,1.091632973,9220.703125,40000,128
-18.83593367,-261169,-234901,-16.94144272,15379,1.109158529,128,15481,1.116514935,9222.65625,40064,128
-18.16318311,-251841,-235888,-17.01262677,16271,1.173491022,128,14459,1.04280663,9224.609375,40128,128
1.015688898,14083,-235698,-16.99892366,16142,1.164187332,128,14341,1.034296278,9226.5625,40192,128
-18.296536,-253690,-235051,-16.95226097,14367,1.036171441,128,14815,1.06848193,9228.515625,40256,128
-17.72590968,-245778,-235924,-17.01522315,14305,1.0316999,128,14049,1.013236763,9230.46875,40320,128
0.66683658,9246,-236258,-17.03931177,13796,0.994989991,128,13668,0.985758422,9232.421875,40384,128
0.07349194,1019,-235597,-16.99163937,15428,1.112692489,128,13636,0.98345053,9234.375,40448,128
0.147632974,2047,-236164,-17.03253234,13304,0.959506149,128,13176,0.950274581,9236.328125,40512,128
-18.16772678,-251904,-235119,-16.95716524,15903,1.146950262,128,13940,1.005375505,9238.28125,40576,128
-18.3062003,-253824,-235896,-17.01320374,13305,0.959578271,128,13099,0.944721215,9240.234375,40640,128
0.165014287,2288,-235023,-16.95024156,16256,1.172409197,128,13729,0.990157841,9242.1875,40704,128
0.629477576,8728,-234984,-16.94742882,15476,1.116154327,128,13429,0.968521353,9244.140625,40768,128
0.738381235,10238,-235556,-16.98868239,14840,1.070284971,128,12761,0.920344105,9246.09375,40832,128
-18.87531208,-261715,-235572,-16.98983633,14847,1.070789822,128,13323,0.96087646,9248.046875,40896,128
-18.24193993,-252933,-236406,-17.04998577,12483,0.900294292,128,12383,0.893082129,9250,40960,128
-18.17003467,-251936,-235718,-17.00036609,14367,1.036171441,128,13137,0.947461837,9251.953125,41024,128
0.77487478,10744,-234618,-16.9210323,15366,1.108220948,128,13312,0.960083122,9253.90625,41088,128
-18.86947022,-261634,-235697,-16.99885154,14535,1.048287874,128,12399,0.894236075,9255.859375,41152,128
-18.31088821,-253889,-235760,-17.0033952,14343,1.034440522,128,12810,0.923878065,9257.8125,41216,128
0.016155245,224,-235329,-16.97231078,14336,1.03393567,128,12427,0.896255481,9259.765625,41280,128
0.216797616,3006,-234709,-16.92759537,15424,1.112404002,128,12798,0.923012605,9261.71875,41344,128
-18.75681624,-260072,-235455,-16.9813981,14395,1.038190846,128,12309,0.887745129,9263.671875,41408,128
0.147777217,2049,-234540,-16.91540681,14352,1.035089616,128,13022,0.93916785,9265.625,41472,128
0.276947054,3840,-234722,-16.92853295,14456,1.042590266,128,12866,0.927916876,9267.578125,41536,128
-18.7597011,-260112,-235596,-16.99156725,12297,0.886879669,128,12297,0.886879669,9269.53125,41600,128
-18.20378759,-252404,-236532,-17.0590731,16189,1.167577048,128,11573,0.83466361,9271.484375,41664,128
0.073924669,1025,-236239,-17.03794146,15608,1.125674382,128,11736,0.846419435,9273.4375,41728,128
-18.87055205,-261649,-234577,-16.91807531,15887,1.145796316,128,12831,0.925392619,9275.390625,41792,128
0.604667736,8384,-235576,-16.99012482,16128,1.163177629,128,12034,0.867911681,9277.34375,41856,128
3.61E-04,5,-237123,-17.10169698,16268,1.173274657,128,11785,0.849953395,9279.296875,41920,128
-18.68354066,-259056,-235312,-16.97108471,14535,1.048287874,128,12501,0.901592481,9281.25,41984,128
0.279254947,3872,-234976,-16.94685184,14556,1.049802428,128,12761,0.920344105,9283.203125,42048,128
0.113014592,1567,-235880,-17.0120498,16320,1.177024982,128,12114,0.873681411,9285.15625,42112,128
-18.68447825,-259069,-234357,-16.90220856,16127,1.163105507,128,13451,0.970108029,9287.109375,42176,128
0.036493544,506,-235944,-17.01666558,14532,1.048071509,128,11679,0.842308502,9289.0625,42240,128
-18.27158192,-253344,-236759,-17.07544471,14583,1.051749712,128,10911,0.786919092,9291.015625,42304,128
-18.83211122,-261116,-236127,-17.02986384,16015,1.155027885,128,12104,0.872960195,9292.96875,42368,128
-18.75919625,-260105,-235436,-16.98002779,16383,1.181568644,128,12420,0.895750629,9294.921875,42432,128
0.592839789,8220,-235259,-16.96726226,14466,1.043311482,128,12390,0.893586981,9296.875,42496,128
-18.83355365,-261136,-235786,-17.00527036,16259,1.172625562,128,12225,0.881686912,9298.828125,42560,128
0.036926274,512,-234199,-16.89081334,15536,1.120481625,128,13080,0.943350904,9300.78125,42624,128
0.260863931,3617,-235109,-16.95644402,16098,1.16101398,128,11927,0.860194666,9302.734375,42688,128
-18.86709021,-261601,-235582,-16.99055755,16377,1.181135914,128,11752,0.847573381,9304.6875,42752,128
0.017525556,243,-235294,-16.96978652,16368,1.18048682,128,12006,0.865892275,9306.640625,42816,128
-18.8880776,-261892,-235084,-16.95464098,16383,1.181568644,128,12246,0.883201466,9308.59375,42880,128
0.145397204,2016,-235611,-16.99264908,16268,1.173274657,128,11933,0.860627396,9310.546875,42944,128
-18.28081349,-253472,-236575,-17.06217433,15487,1.116947665,128,11486,0.828389028,9312.5,43008,128
0.267571243,3710,-235410,-16.97815263,16352,1.179332874,128,11817,0.852261287,9314.453125,43072,128
0.057625181,799,-234661,-16.92413353,15374,1.108797921,128,12330,0.889259683,9316.40625,43136,128
-18.62036212,-258180,-234899,-16.94129848,14363,1.035882954,128,12434,0.896760332,9318.359375,43200,128
0.036926274,512,-235960,-17.01781953,16352,1.179332874,128,11552,0.833149056,9320.3125,43264,128
-18.90625225,-262144,-234367,-16.90292977,15555,1.121851936,128,12427,0.896255481,9322.265625,43328,128
-18.8347076,-261152,-235678,-16.99748123,16383,1.181568644,128,12124,0.874402627,9324.21875,43392,128
0.623130873,8640,-235712,-16.99993336,16240,1.171255251,128,11891,0.857598288,9326.171875,43456,128
0.009159447,127,-233900,-16.86924897,15840,1.1424066,128,12622,0.910319198,9328.125,43520,128
-18.05579401,-250352,-234090,-16.88295208,16319,1.17695286,128,12367,0.891928183,9330.078125,43584,128
1.179404995,16353,-235934,-17.01594436,15916,1.147887844,128,11176,0.806031323,9332.03125,43648,128
0.145541447,2018,-236144,-17.03108991,16382,1.181496523,128,10835,0.781437848,9333.984375,43712,128
0.074934372,1039,-236100,-17.02791655,15872,1.144714492,128,11423,0.823845366,9335.9375,43776,128
0.073564061,1020,-234694,-16.92651354,15936,1.149330276,128,13178,0.950418824,9337.890625,43840,128
-18.75912413,-260104,-235912,-17.01435769,12303,0.887312399,128,11755,0.847789746,9339.84375,43904,128
-18.62887247,-258298,-234131,-16.88590907,15935,1.149258155,128,12558,0.905703414,9341.796875,43968,128
-18.63060339,-258322,-233646,-16.85093008,16051,1.157624263,128,13033,0.939961188,9343.75,44032,128
0.737443654,10225,-233643,-16.85071371,15996,1.153657574,128,12876,0.928638092,9345.703125,44096,128
-18.41907065,-255389,-232861,-16.7943146,16375,1.180991671,128,13782,0.993980288,9347.65625,44160,128
0.572357246,7936,-231639,-16.70618197,784,0.056543357,128,14901,1.07468439,9349.609375,44224,128
1.142622965,15843,-232182,-16.74534401,16368,1.18048682,128,15090,1.088315378,9351.5625,44288,128
1.170101305,16224,-232096,-16.73914155,16382,1.181496523,128,15678,1.130722896,9353.515625,44352,128
-17.82673571,-247176,-230702,-16.638604,17153,1.237102298,128,16925,1.220658567,9355.46875,44416,128
0.050773627,704,-228668,-16.49190861,18584,1.340308349,128,19098,1.377378866,9357.421875,44480,128
-18.90163647,-262080,-228144,-16.45411688,16455,1.186761402,128,20549,1.48202735,9359.375,44544,128
0.147921461,2051,-227326,-16.39512138,17400,1.254916341,128,23224,1.674952707,9361.328125,44608,128
0.180015585,2496,-226414,-16.32934646,26558,1.915406217,128,26282,1.895500647,9363.28125,44672,128
0.072770723,1009,-226719,-16.35134355,24592,1.773615095,128,27186,1.9606986,9365.234375,44736,128
-18.77679393,-260349,-226229,-16.31600396,26115,1.883456335,128,26242,1.892615782,9367.1875,44800,128
-18.77729878,-260356,-225586,-16.26962975,24583,1.772966,128,23626,1.703945601,9369.140625,44864,128
0.239011078,3314,-226357,-16.32523552,16614,1.19822874,128,19923,1.43687921,9371.09375,44928,128
0.206556345,2864,-226800,-16.35718541,3900,0.281274352,128,19196,1.384446786,9373.046875,44992,128
-18.70272502,-259322,-226651,-16.34643928,4093,0.295193827,128,19021,1.371825501,9375,45056,128
0.008221866,114,-230106,-16.59561951,1022,0.073708305,128,15940,1.149618763,9376.953125,45120,128
1.03393567,14336,-231207,-16.67502542,16376,1.181063793,128,15847,1.142911451,9378.90625,45184,128
0.893226372,12385,-231948,-16.72846755,16352,1.179332874,128,15064,1.086440216,9380.859375,45248,128
-18.86961447,-261636,-231987,-16.73128029,16383,1.181568644,128,14840,1.070284971,9382.8125,45312,128
-18.17234256,-251968,-234037,-16.87912963,14845,1.070645579,128,12785,0.922075024,9384.765625,45376,128
0.591325234,8199,-234315,-16.89917945,15420,1.112115516,128,12337,0.889764534,9386.71875,45440,128
0.258123309,3579,-233990,-16.87573992,16152,1.164908548,128,11866,0.855795247,9388.671875,45504,128
0.849232179,11775,-234029,-16.87855266,12284,0.885942088,128,11748,0.847284895,9390.625,45568,128
0.701599205,9728,-235891,-17.01284313,11390,0.821465352,128,10736,0.774297807,9392.578125,45632,128
0.812378027,11264,-235520,-16.98608601,14590,1.052254564,128,11238,0.810502864,9394.53125,45696,128
-18.62966581,-258309,-234846,-16.93747603,16127,1.163105507,128,11935,0.860771639,9396.484375,45760,128
0.736722438,10215,-235548,-16.98810541,15384,1.109519137,128,11611,0.837404232,9398.4375,45824,128
-18.61127479,-258054,-233846,-16.8653544,13831,0.997514248,128,13399,0.966357704,9400.390625,45888,128
0.027694705,384,-234707,-16.92745113,12316,0.88824998,128,12500,0.90152036,9402.34375,45952,128
0.784611199,10879,-234882,-16.94007241,16190,1.16764917,128,12092,0.872094735,9404.296875,46016,128
0.590892505,8193,-235007,-16.94908761,16376,1.181063793,128,12211,0.880677209,9406.25,46080,128
-18.25997034,-253183,-234289,-16.89730428,14345,1.034584765,128,12825,0.924959889,9408.203125,46144,128
0.290866529,4033,-234836,-16.93675482,12736,0.918541064,128,12411,0.895101535,9410.15625,46208,128
0.627169684,8696,-235222,-16.96459376,16320,1.177024982,128,11723,0.845481854,9412.109375,46272,128
-18.12798776,-251353,-234137,-16.8863418,16143,1.164259453,128,12801,0.92322897,9414.0625,46336,128
-18.03956664,-250127,-234231,-16.89312123,14843,1.070501336,128,12806,0.923589578,9416.015625,46400,128
-18.73085245,-259712,-234833,-16.93653845,14337,1.034007792,128,12245,0.883129344,9417.96875,46464,128
0.590820383,8192,-234904,-16.94165909,16104,1.16144671,128,12042,0.868488654,9419.921875,46528,128
-18.61105843,-258051,-233827,-16.86398409,15585,1.124015584,128,12769,0.920921078,9421.875,46592,128
-18.61199601,-258064,-233856,-16.86607562,14451,1.042229657,128,12754,0.919839253,9423.828125,46656,128
0.851756436,11810,-234326,-16.89997278,14432,1.040859346,128,12357,0.891206967,9425.78125,46720,128
0.036854152,511,-234634,-16.92218625,14364,1.035955076,128,12369,0.892072426,9427.734375,46784,128
-18.25102726,-253059,-234627,-16.92168139,16287,1.174644968,128,12063,0.870003208,9429.6875,46848,128
0.150012988,2080,-235164,-16.96041071,16256,1.172409197,128,12194,0.879451141,9431.640625,46912,128
-18.31456641,-253940,-235443,-16.98053264,16383,1.181568644,128,12142,0.875700817,9433.59375,46976,128
0.286394988,3971,-234749,-16.93048023,14360,1.035666589,128,12408,0.89488517,9435.546875,47040,128
-18.61538572,-258111,-234601,-16.91980623,14495,1.045403009,128,12476,0.899789441,9437.5,47104,128
-18.66651996,-258820,-235096,-16.95550644,16127,1.163105507,128,12014,0.866469248,9439.453125,47168,128
-18.61552997,-258113,-234050,-16.88006721,15619,1.12646772,128,12546,0.904837955,9441.40625,47232,128
-18.4629206,-255997,-233342,-16.8290051,16335,1.178106806,128,13257,0.956116433,9443.359375,47296,128
-18.24157932,-252928,-234475,-16.91071891,14351,1.035017495,128,12431,0.896543967,9445.3125,47360,128
-18.76078293,-260127,-234169,-16.88864969,14599,1.052903658,128,12591,0.908083428,9447.265625,47424,128
-18.64668651,-258545,-232832,-16.79222307,16353,1.179404995,128,14174,1.022251966,9449.21875,47488,128
-17.73788187,-245944,-236524,-17.05849612,12479,0.900005805,128,11345,0.818219878,9451.171875,47552,128
0.034041409,472,-237093,-17.09953333,14728,1.062207349,128,11449,0.825720528,9453.125,47616,128
-18.83319304,-261131,-235751,-17.00274611,15439,1.113485827,128,11822,0.852621895,9455.078125,47680,128
0.036421423,505,-234210,-16.89160668,14456,1.042590266,128,13027,0.939528458,9457.03125,47744,128
0.286106501,3967,-234582,-16.91843592,15360,1.107788218,128,12600,0.908732523,9458.984375,47808,128
0.591902207,8207,-234851,-16.93783664,14336,1.03393567,128,12472,0.899500954,9460.9375,47872,128
0.295049583,4091,-233749,-16.8583586,16196,1.1680819,128,13125,0.946596378,9462.890625,47936,128
0.313801207,4351,-233274,-16.82410083,15388,1.109807624,128,13436,0.969026204,9464.84375,48000,128
-18.83261607,-261123,-235819,-17.00765038,16071,1.159066696,128,11463,0.826730231,9466.796875,48064,128
0.111644281,1548,-234456,-16.9093486,14528,1.047783023,128,12500,0.90152036,9468.75,48128,128
0.662148674,9181,-234659,-16.92398929,14360,1.035666589,128,12699,0.915872564,9470.703125,48192,128
-18.83247183,-261121,-235862,-17.01075161,16159,1.165413399,128,11803,0.851251584,9472.65625,48256,128
0.294833218,4088,-234894,-16.94093787,14822,1.068986782,128,12742,0.918973794,9474.609375,48320,128
-18.636301,-258401,-234859,-16.93841361,14351,1.035017495,128,12479,0.900005805,9476.5625,48384,128
-18.64848955,-258570,-235146,-16.95911252,14577,1.051316983,128,12465,0.898996103,9478.515625,48448,128
-18.75450835,-260040,-234720,-16.92838871,14811,1.068193444,128,12562,0.905991901,9480.46875,48512,128
0.646137672,8959,-233729,-16.85691617,16376,1.181063793,128,13289,0.958424325,9482.421875,48576,128
-18.78638611,-260482,-233858,-16.86621986,16263,1.172914049,128,13223,0.953664297,9484.375,48640,128
0.591830086,8206,-234936,-16.94396698,14720,1.061630376,128,12673,0.913997401,9486.328125,48704,128
0.260214837,3608,-234770,-16.93199479,14846,1.070717701,128,12671,0.913853158,9488.28125,48768,128
0.678520284,9408,-233901,-16.86932109,15872,1.144714492,128,13533,0.976022002,9490.234375,48832,128
0.28560165,3960,-234823,-16.93581723,14342,1.0343684,128,12926,0.932244174,9492.1875,48896,128
-18.05240429,-250305,-235199,-16.96293497,14345,1.034584765,128,12509,0.902169454,9494.140625,48960,128
-18.88663517,-261872,-234702,-16.92709052,14399,1.038479333,128,12958,0.934552066,9496.09375,49024,128
0.608129574,8432,-235085,-16.9547131,14432,1.040859346,128,12619,0.910102834,9498.046875,49088,128
-18.31435005,-253937,-235384,-16.97627747,12685,0.914862861,128,12589,0.907939185,9500,49152,128
0.083011995,1151,-234165,-16.8883612,16240,1.171255251,128,13174,0.950130337,9501.953125,49216,128
-18.60644264,-257987,-233235,-16.82128809,16383,1.181568644,128,13629,0.982945679,9503.90625,49280,128
-18.31427792,-253936,-234671,-16.92485475,14391,1.03790236,128,13028,0.93960058,9505.859375,49344,128
0.259637864,3600,-234478,-16.91093527,15106,1.089469324,128,13110,0.945514553,9507.8125,49408,128
0.016732218,232,-234328,-16.90011703,15276,1.101730001,128,13100,0.944793337,9509.765625,49472,128
-17.84000609,-247360,-234619,-16.92110442,14367,1.036171441,128,12863,0.927700511,9511.71875,49536,128
1.108870042,15375,-235489,-16.98385024,13248,0.955467338,128,13001,0.937653296,9513.671875,49600,128
0.025458935,353,-233111,-16.81234501,16376,1.181063793,128,13776,0.993547558,9515.625,49664,128
0.738164871,10235,-233829,-16.86412834,16128,1.163177629,128,13362,0.963689204,9517.578125,49728,128
0.60928352,8448,-235191,-16.96235799,12544,0.904693711,128,12656,0.912771334,9519.53125,49792,128
-18.4629206,-255997,-233109,-16.81220076,193,0.013919474,128,14291,1.030690197,9521.484375,49856,128
-18.88324545,-261825,-232071,-16.73733851,17,0.001226068,128,14609,1.053624875,9523.4375,49920,128
-18.16808738,-251909,-233541,-16.84335731,16353,1.179404995,128,13989,1.008909465,9525.390625,49984,128
-18.79092977,-260545,-234460,-16.90963708,15495,1.117524638,128,13479,0.972127434,9527.34375,50048,128
0.882552371,12237,-233894,-16.86881624,16352,1.179332874,128,13568,0.978546259,9529.296875,50112,128
0.288414393,3999,-233697,-16.85460828,15904,1.147022384,128,13554,0.977536556,9531.25,50176,128
-18.09394635,-250881,-235437,-16.98009991,13119,0.946163648,128,12799,0.923084727,9533.203125,50240,128
-18.31543187,-253952,-234511,-16.91331529,15475,1.116082205,128,14349,1.034873251,9535.15625,50304,128
-18.64776834,-258560,-234494,-16.91208922,16319,1.17695286,128,13879,1.000976086,9537.109375,50368,128
-18.61661179,-258128,-233695,-16.85446404,16355,1.179549239,128,13731,0.990302085,9539.0625,50432,128
-17.87123476,-247793,-233364,-16.83059178,16367,1.180414698,128,13901,1.002562762,9541.015625,50496,128
-18.4452508,-255752,-232966,-16.80188737,16355,1.179549239,128,14818,1.068698295,9542.96875,50560,128
-18.60976024,-258033,-233201,-16.81883595,15361,1.10786034,128,14601,1.053047902,9544.921875,50624,128
-18.61170752,-258060,-233756,-16.85886346,15937,1.149402398,128,14021,1.011217357,9546.875,50688,128
0.920848956,12768,-232992,-16.80376253,16382,1.181496523,128,14326,1.033214454,9548.828125,50752,128
-18.5946147,-257823,-233279,-16.82446144,16355,1.179549239,128,14311,1.032132629,9550.78125,50816,128
-18.76777873,-260224,-233562,-16.84487186,14367,1.036171441,128,14463,1.043095117,9552.734375,50880,128
0.534781877,7415,-233225,-16.82056687,15890,1.146012681,128,14866,1.072160133,9554.6875,50944,128
-17.85443042,-247560,-232743,-16.78580425,16271,1.173491022,128,15293,1.102956069,9556.640625,51008,128
0.950563067,13180,-232852,-16.7936655,16368,1.18048682,128,15286,1.102451217,9558.59375,51072,128
0.876999006,12160,-233598,-16.84746824,14844,1.070573458,128,14708,1.060764916,9560.546875,51136,128
-18.58264251,-257657,-233049,-16.80787346,16105,1.161518831,128,15017,1.083050499,9562.5,51200,128
0.452851707,6279,-231266,-16.6792806,992,0.071544656,128,16356,1.17962136,9564.453125,51264,128
0.904116738,12536,-232231,-16.74887797,16142,1.164187332,128,15934,1.149186033,9566.40625,51328,128
0.444197112,6159,-232529,-16.77037022,15448,1.114134921,128,15576,1.12336649,9568.359375,51392,128
0.310123004,4300,-232513,-16.76921627,15600,1.125097409,128,16008,1.154523033,9570.3125,51456,128
0.92546474,12832,-232716,-16.78385696,16128,1.163177629,128,15928,1.148753303,9572.265625,51520,128
0.886230574,12288,-233210,-16.81948505,14784,1.06624616,128,15298,1.103316677,9574.21875,51584,128
-18.537278,-257028,-232463,-16.76561019,15875,1.144930857,128,15886,1.145724195,9576.171875,51648,128
1.108004583,15363,-231361,-16.68613216,448,0.03231049,128,16714,1.205440903,9578.125,51712,128
-18.85086284,-261376,-232958,-16.8013104,16355,1.179549239,128,16234,1.170822522,9580.078125,51776,128
-18.80420015,-260729,-232042,-16.73524698,257,0.018535259,128,16677,1.202772403,9582.03125,51840,128
-18.76085505,-260128,-231712,-16.71144685,16367,1.180414698,128,16361,1.179981968,9583.984375,51904,128
-18.59180195,-257784,-231653,-16.70719167,63,0.004543663,128,16546,1.19332447,9585.9375,51968,128
0.59067614,8190,-232874,-16.79525218,16382,1.181496523,128,16376,1.181063793,9587.890625,52032,128
0.366954847,5088,-231634,-16.70582136,192,0.013847353,128,17101,1.233351974,9589.84375,52096,128
0.559519596,7758,-231348,-16.68519457,504,0.036349301,128,17354,1.251598746,9591.796875,52160,128
0.922868362,12796,-232980,-16.80289707,20,0.001442433,128,16404,1.183083198,9593.75,52224,128
-18.01951683,-249849,-233002,-16.80448375,16131,1.163393994,128,16147,1.16454794,9595.703125,52288,128
0.908371914,12595,-232142,-16.74245915,16256,1.172409197,128,16306,1.176015279,9597.65625,52352,128
-18.3195428,-254009,-233003,-16.80455587,16131,1.163393994,128,16163,1.165701886,9599.609375,52416,128
-18.32004766,-254016,-232759,-16.78695819,63,0.004543663,128,16443,1.185895942,9601.5625,52480,128
0.332264344,4607,-232023,-16.73387667,240,0.017309191,128,16869,1.216619756,9603.515625,52544,128
0.004543663,63,-232404,-16.76135501,16256,1.172409197,128,16294,1.175149819,9605.46875,52608,128
1.16721644,16184,-231904,-16.7252942,0,0,128,16723,1.206089998,9607.421875,52672,128
0.903034914,12521,-233374,-16.83131299,0,0,128,15473,1.115937962,9609.375,52736,128
0.069236764,960,-233341,-16.82893298,15936,1.149330276,128,15253,1.100071204,9611.328125,52800,128
1.177024982,16320,-233581,-16.84624217,15994,1.153513331,128,14938,1.077352891,9613.28125,52864,128
0.623130873,8640,-235688,-16.99820244,16380,1.181352279,128,14044,1.012876155,9615.234375,52928,128
-18.62267001,-258212,-233896,-16.86896048,15421,1.112187637,128,15421,1.112187637,9617.1875,52992,128
-18.29761783,-253705,-234794,-16.93372571,15619,1.12646772,128,14594,1.05254305,9619.140625,53056,128
0.794996714,11023,-234997,-16.9483664,14312,1.032204751,128,14186,1.023117426,9621.09375,53120,128
-18.05903948,-250397,-234013,-16.87739871,15873,1.144786614,128,15361,1.10786034,9623.046875,53184,128
0.032166246,446,-234586,-16.91872441,16368,1.18048682,128,14898,1.074468026,9625,53248,128
-18.87978362,-261777,-235186,-16.96199739,16223,1.170029184,128,14687,1.059250362,9626.953125,53312,128
-18.63384886,-258367,-235319,-16.97158956,14201,1.02419925,128,13691,0.98741722,9628.90625,53376,128
0.148282069,2056,-235429,-16.97952294,13828,0.997297883,128,13829,0.997370004,9630.859375,53440,128
-18.28348199,-253509,-236101,-17.02798868,13405,0.966790434,128,13393,0.965924974,9632.8125,53504,128
0.608129574,8432,-237071,-17.09794666,12350,0.890702115,128,12734,0.918396821,9634.765625,53568,128
0.60574956,8399,-236081,-17.02654624,13208,0.952582473,128,13202,0.952149743,9636.71875,53632,128
0.101547253,1408,-236126,-17.02979172,13084,0.943639391,128,13076,0.943062418,9638.671875,53696,128
0.626232103,8683,-236629,-17.0660689,12796,0.922868362,128,12792,0.922579875,9640.625,53760,128
-18.77708242,-260353,-235821,-17.00779462,15911,1.147527235,128,13479,0.972127434,9642.578125,53824,128
0.152032393,2108,-234756,-16.93098508,16248,1.171832224,128,13906,1.00292337,9644.53125,53888,128
-18.76316294,-260160,-235838,-17.00902069,15439,1.113485827,128,13386,0.965420123,9646.484375,53952,128
0.001153946,16,-237260,-17.11157764,16366,1.180342577,128,12014,0.866469248,9648.4375,54016,128
-18.8737254,-261693,-236213,-17.0360663,14579,1.051461226,128,13015,0.938662999,9650.390625,54080,128
5.77E-04,8,-236279,-17.04082633,14336,1.03393567,128,12966,0.935129039,9652.34375,54144,128
-18.90603589,-262141,-238381,-17.19242599,15431,1.112908854,128,11333,0.817354419,9654.296875,54208,128
-18.64322467,-258497,-237889,-17.15694215,15385,1.109591259,128,11547,0.832788447,9656.25,54272,128
-4.33E-04,-6,-236902,-17.0857581,16129,1.163249751,128,12035,0.867983802,9658.203125,54336,128
0.00353396,49,-236959,-17.08986903,16380,1.181352279,128,12276,0.885365115,9660.15625,54400,128
0.018391015,255,-237091,-17.09938909,16128,1.163177629,128,12097,0.872455343,9662.109375,54464,128
-0.036998396,-513,-236166,-17.03267658,15585,1.124015584,128,12523,0.903179157,9664.0625,54528,128
0.606975628,8416,-236348,-17.04580272,16358,1.179765604,128,12166,0.877431736,9666.015625,54592,128
0.00663519,92,-237348,-17.11792435,15368,1.108365191,128,11688,0.842957597,9667.96875,54656,128
0.036854152,511,-237124,-17.1017691,15996,1.153657574,128,11884,0.857093436,9669.921875,54720,128
-18.85086284,-261376,-237056,-17.09686483,15745,1.135555045,128,11701,0.843895178,9671.875,54784,128
-18.83247183,-261121,-236466,-17.05431307,15873,1.144786614,128,12471,0.899428832,9673.828125,54848,128
-0.112942471,-1566,-236698,-17.07104529,14432,1.040859346,128,12356,0.891134845,9675.78125,54912,128
0.294256245,4080,-238176,-17.17764106,16262,1.172841927,128,10926,0.788000916,9677.734375,54976,128
0.294256245,4080,-237066,-17.09758605,16262,1.172841927,128,11901,0.858319504,9679.6875,55040,128
0.036421423,505,-237069,-17.09780241,16128,1.163177629,128,11606,0.837043624,9681.640625,55104,128
-0.258772404,-3588,-236676,-17.06945861,15366,1.108220948,128,12326,0.888971196,9683.59375,55168,128
-0.071544656,-992,-235491,-16.98399448,120,0.008654595,128,13243,0.95510673,9685.546875,55232,128
-0.071544656,-992,-237059,-17.0970812,120,0.008654595,128,11604,0.83689938,9687.5,55296,128
0.009231568,128,-237094,-17.09960545,14366,1.036099319,128,11460,0.826513866,9689.453125,55360,128
-18.83701549,-261184,-236599,-17.06390525,16383,1.181568644,128,12270,0.884932385,9691.40625,55424,128
-18.01987744,-249854,-236526,-17.05864037,16323,1.177241347,128,12118,0.873969898,9693.359375,55488,128
0.57473726,7969,-238555,-17.20497515,14840,1.070284971,128,10744,0.77487478,9695.3125,55552,128
-18.86276291,-261541,-236965,-17.09030176,14337,1.034007792,128,12481,0.900150049,9697.265625,55616,128
0.037142639,515,-236989,-17.09203268,15160,1.093363892,128,11066,0.798097944,9699.21875,55680,128
0.029641989,411,-237157,-17.10414912,15592,1.124520436,128,11496,0.829110244,9701.171875,55744,128
-0.253940255,-3521,-235986,-17.01969469,15367,1.108293069,128,12303,0.887312399,9703.125,55808,128
-18.7666969,-260209,-235618,-16.99315393,16355,1.179549239,128,12199,0.879811749,9705.078125,55872,128
0.129169837,1791,-236394,-17.04912031,16320,1.177024982,128,11716,0.844977003,9707.03125,55936,128
0.293246543,4066,-236394,-17.04912031,0,0,128,11716,0.844977003,9708.984375,56000,128
7.21E-05,1,41,0.002956987,0,0,19,-2768896,-199.6972894,9710.9375,56064,128
302.4445024,4193534,2666492,192.3117462,0,0,130,0,0,9712.890625,56128,128
0,0,2666492,192.3117462,1,7.21E-05,130,0,0,9714.84375,56192,0
0.004327298,60,40,0.002884865,0,0,151,2277376,164.2480665,9716.796875,56256,0
0,0,40,0.002884865,0,0,151,2277376,164.2480665,9718.75,56320,128
0,0,6374592,459.7459578,14588,1.052110321,0,2715388,195.8382053,9720.703125,56384,0
-0.073852548,-1024,-4194304,-302.5000361,14720,1.061630376,0,-237301,-17.11453463,9722.65625,56448,0
4.68963679,65024,-236398,-17.0494088,15296,1.103172434,128,11013,0.794275498,9724.609375,56512,128
0.004615784,64,6422464,463.1985644,16383,1.181568644,0,2596604,187.2713098,9726.5625,56576,128
0.129241959,1792,-236477,-17.05510641,14844,1.070573458,128,11088,0.79968462,9728.515625,56640,0
0,0,-236881,-17.08424355,14812,1.068265565,128,10568,0.762181373,9730.46875,56704,128
-18.90625225,-262144,-236484,-17.05561126,16335,1.178106806,128,10599,0.764417143,9732.421875,56768,128
0.036854152,511,-237564,-17.13350262,16184,1.16721644,128,10041,0.724173275,9734.375,56832,128
0.279110703,3870,-238959,-17.23411229,13020,0.939023607,128,8728,0.629477576,9736.328125,56896,128
-0.069236764,-960,-237487,-17.12794925,14592,1.052398807,128,9673,0.697632515,9738.28125,56960,128
-18.83593367,-261169,-237215,-17.10833217,16379,1.181280158,128,9579,0.690853082,9740.234375,57024,128
0.004543663,63,-237736,-17.14590754,15408,1.111250056,128,9287,0.669793566,9742.1875,57088,128
-0.145613568,-2019,-236688,-17.07032407,15422,1.112259759,128,9670,0.69741615,9744.140625,57152,128
0,0,-235957,-17.01760316,15936,1.149330276,128,9936,0.716600504,9746.09375,57216,128
-18.90430497,-262117,-237467,-17.12650682,15391,1.110023988,128,9111,0.65710016,9748.046875,57280,128
-0.004110933,-57,-237556,-17.13292565,12736,0.918541064,128,8924,0.643613415,9750,57344,128
-0.037503247,-520,-237071,-17.09794666,15896,1.146445411,128,9220,0.664961417,9751.953125,57408,128
-18.90170859,-262081,-237787,-17.14958574,13063,0.942124837,128,8513,0.613971426,9753.90625,57472,128
0.258483918,3584,-237494,-17.1284541,14432,1.040859346,128,8530,0.615197493,9755.859375,57536,128
-0.072265872,-1002,-237518,-17.13018502,8191,0.590748261,128,8025,0.578776071,9757.8125,57600,128
-0.056831843,-788,-237251,-17.11092855,7680,0.553894109,128,7926,0.57163603,9759.765625,57664,128
-0.045436626,-630,-237581,-17.13472869,14588,1.052110321,128,8531,0.615269615,9761.71875,57728,128
-0.056543357,-784,-236907,-17.08611871,8128,0.586204599,128,7763,0.559880204,9763.671875,57792,128
-0.517112078,-7170,-236090,-17.02719534,15376,1.108942164,128,7931,0.571996638,9765.625,57856,128
-0.071616777,-993,-236481,-17.05539489,8064,0.581588814,128,7976,0.575242111,9767.578125,57920,128
-0.221557644,-3072,-236921,-17.08712841,14343,1.034440522,128,7848,0.566010543,9769.53125,57984,128
-0.073347696,-1017,-236549,-17.06029917,8184,0.59024341,128,8079,0.582670639,9771.484375,58048,128
-0.079045305,-1096,-237610,-17.13682021,7964,0.574376652,128,6840,0.493311941,9773.4375,58112,128
-18.90517043,-262129,-238746,-17.21875038,4975,0.358805103,128,6003,0.432946138,9775.390625,58176,128
-0.036709909,-509,-236906,-17.08604659,6396,0.461289938,128,7272,0.524468484,9777.34375,58240,128
-0.228769806,-3172,-237418,-17.12297286,6399,0.461506303,128,6629,0.478094277,9779.296875,58304,128
-0.013847353,-192,-237884,-17.15658154,8143,0.587286423,128,6389,0.460785086,9781.25,58368,128
-0.006923676,-96,-237034,-17.09527816,6144,0.443115287,128,6939,0.500451982,9783.203125,58432,128
-0.572645732,-7940,-236257,-17.03923965,7947,0.573150584,128,7258,0.523458782,9785.15625,58496,128
-0.53535885,-7423,-237341,-17.1174195,6153,0.443764382,128,6518,0.470088776,9787.109375,58560,128
-0.29093865,-4034,-237061,-17.09722544,7091,0.51141447,128,6722,0.484801589,9789.0625,58624,128
-0.572068759,-7932,-237973,-17.16300036,6112,0.440807395,128,4947,0.356785698,9791.015625,58688,128
-0.590315532,-8185,-237442,-17.12470378,7616,0.549278325,128,5658,0.408064176,9792.96875,58752,128
-0.017092826,-237,-238621,-17.20973518,4600,0.331759492,128,4827,0.348131102,9794.921875,58816,128
-0.004255176,-59,-237781,-17.14915301,6256,0.45119291,128,5470,0.394505309,9796.875,58880,128
-0.553894109,-7680,-236577,-17.06231857,7311,0.527281228,128,5266,0.379792497,9798.828125,58944,128
-0.01817465,-252,-238566,-17.20576849,4608,0.332336465,128,4362,0.314594545,9800.78125,59008,128
-5.77E-04,-8,-237489,-17.1280935,6912,0.498504698,128,5003,0.360824509,9802.734375,59072,128
-0.226173428,-3136,-236982,-17.09152783,8061,0.58137245,128,4941,0.356352968,9804.6875,59136,128
-0.444918328,-6169,-236313,-17.04327846,7165,0.51675147,128,4861,0.350583237,9806.640625,59200,128
-0.034906868,-484,-237412,-17.12254013,1807,0.130323783,128,3933,0.283654366,9808.59375,59264,128
-0.037935977,-526,-237681,-17.14194085,3260,0.23511651,128,3824,0.275793108,9810.546875,59328,128
-0.517328443,-7173,-237065,-17.09751393,7680,0.553894109,128,4183,0.301684773,9812.5,59392,128
-0.066784628,-926,-238379,-17.19228175,639,0.046085721,128,2895,0.208792115,9814.453125,59456,128
-0.291948353,-4048,-238029,-17.16703918,4067,0.293318664,128,2904,0.20944121,9816.40625,59520,128
-1.44E-04,-2,-238023,-17.16660645,2191,0.158018489,128,2813,0.202878142,9818.359375,59584,128
-0.002307892,-32,-237283,-17.11323644,3071,0.221485522,128,3208,0.231366185,9820.3125,59648,128
-0.004760027,-66,-237812,-17.15138878,2105,0.151816029,128,2511,0.18109741,9822.265625,59712,128
-0.617433264,-8561,-237504,-17.12917532,2079,0.149940866,128,2476,0.178573153,9824.21875,59776,128
-0.576468179,-7993,-236942,-17.08864297,3185,0.229707388,128,2402,0.173236152,9826.171875,59840,128
-0.558221407,-7740,-237338,-17.11720313,2311,0.166673084,128,2162,0.155926961,9828.125,59904,128
-0.586204599,-8128,-236174,-17.03325355,3710,0.267571243,128,3568,0.257329971,9830.078125,59968,128
-0.533195202,-7393,-238213,-17.18030956,871,0.062817939,128,1515,0.109264268,9832.03125,60032,128
-0.145974177,-2024,-238256,-17.18341079,1926,0.138906257,128,1834,0.132271067,9833.984375,60096,128
-0.036926274,-512,-238808,-17.22322192,0,0,128,1951,0.140709298,9835.9375,60160,128
-0.598898005,-8304,-238071,-17.17006828,2072,0.149436015,128,2463,0.177635572,9837.890625,60224,128
-0.036421423,-505,-237813,-17.1514609,2622,0.189102911,128,2596,0.187227748,9839.84375,60288,128
-1.44E-04,-2,-237883,-17.15650942,2299,0.165807625,128,2580,0.186073802,9841.796875,60352,128
-0.59558041,-8258,-237762,-17.1477827,3071,0.221485522,128,2846,0.205258155,9843.75,60416,128
-0.106956375,-1483,-236875,-17.08381082,3122,0.225163725,128,3254,0.23468378,9845.703125,60480,128
-0.590315532,-8185,-236754,-17.0750841,3536,0.255022079,128,3538,0.255166323,9847.65625,60544,128
-0.567885705,-7874,-237202,-17.10739459,4032,0.290794407,128,3144,0.226750401,9849.609375,60608,128
-0.574665138,-7968,-236591,-17.06332827,3325,0.239804416,128,3749,0.270383986,9851.5625,60672,128
-0.577045152,-8001,-237345,-17.11770798,3631,0.261873634,128,3558,0.256608755,9853.515625,60736,128
-0.004615784,-64,-237952,-17.16148581,1972,0.142223852,128,3618,0.260936053,9855.46875,60800,128
-0.071544656,-992,-237728,-17.14533057,3589,0.258844526,128,4045,0.291731988,9857.421875,60864,128
-0.556202001,-7712,-236793,-17.07789684,6271,0.452274734,128,4479,0.323032775,9859.375,60928,128
-0.582454274,-8076,-237985,-17.16386582,6158,0.44412499,128,3838,0.276802811,9861.328125,60992,128
-0.654359538,-9073,-238221,-17.18088653,2043,0.147344488,128,3792,0.273485216,9863.28125,61056,128
-0.591036748,-8195,-237443,-17.1247759,6145,0.443187409,128,4494,0.3241146,9865.234375,61120,128
-0.286250745,-3969,-236244,-17.03830207,7800,0.562548704,128,5306,0.382677362,9867.1875,61184,128
-0.221629765,-3073,-237430,-17.12383832,6183,0.445928031,128,4394,0.316902437,9869.140625,61248,128
-0.269374283,-3735,-237024,-17.09455694,6880,0.496196806,128,4864,0.350799602,9871.09375,61312,128
-0.003750325,-52,-236888,-17.0847484,7168,0.516967835,128,5099,0.367748185,9873.046875,61376,128
-0.59024341,-8184,-237969,-17.16271188,5103,0.368036672,128,4974,0.358732982,9875,61440,128
-0.60928352,-8448,-237398,-17.12153043,6264,0.451769883,128,5182,0.37373428,9876.953125,61504,128
-0.588007639,-8153,-237943,-17.16083672,7172,0.517256322,128,4346,0.313440599,9878.90625,61568,128
-0.055317289,-767,-237656,-17.14013781,4059,0.292741691,128,4490,0.323826113,9880.859375,61632,128
-0.008943082,-124,-237644,-17.13927235,6300,0.454366261,128,4536,0.327143708,9882.8125,61696,128
-0.888322102,-12317,-238041,-17.16790464,6191,0.446505004,128,4207,0.303415692,9884.765625,61760,128
-0.590820383,-8192,-236542,-17.05979431,7497,0.540695851,128,5449,0.392990755,9886.71875,61824,128
-0.526199404,-7296,-236668,-17.06888164,8161,0.588584612,128,6093,0.439437084,9888.671875,61888,128
-0.582093666,-8071,-237313,-17.11540009,8047,0.580362747,128,5761,0.415492703,9890.625,61952,128
-0.244708686,-3393,-236284,-17.04118693,8071,0.582093666,128,5891,0.424868515,9892.578125,62016,128
-0.001586676,-22,-237389,-17.12088133,7303,0.526704255,128,5473,0.394721674,9894.53125,62080,128
-0.586781572,-8136,-238330,-17.18874779,6013,0.433667354,128,4828,0.348203224,9896.484375,62144,128
-0.008726717,-121,-237066,-17.09758605,7687,0.55439896,128,5913,0.426455191,9898.4375,62208,128
-0.572213003,-7934,-237308,-17.11503948,8064,0.581588814,128,5448,0.392918634,9900.390625,62272,128
-0.588512491,-8160,-237360,-17.11878981,7280,0.525045457,128,5529,0.398760486,9902.34375,62336,128
-0.110201849,-1528,-236282,-17.04104269,8131,0.586420964,128,6319,0.455736572,9904.296875,62400,128
-0.149940866,-2079,-235930,-17.01565588,7687,0.55439896,128,6503,0.469006952,9906.25,62464,128
-0.581877301,-8068,-237051,-17.09650422,7807,0.563053556,128,5843,0.421406677,9908.203125,62528,128
-0.583968828,-8097,-236949,-17.08914782,8178,0.58981068,128,5751,0.414771487,9910.15625,62592,128
-0.567885705,-7874,-236659,-17.06823254,7680,0.553894109,128,5538,0.39940958,9912.109375,62656,128
-0.269518527,-3737,-237178,-17.10566367,7375,0.531897012,128,4985,0.359526319,9914.0625,62720,128
-18.90567528,-262136,-238051,-17.16862585,5629,0.405972648,128,4971,0.358516617,9916.015625,62784,128
-0.056399114,-782,-237369,-17.1194389,5023,0.362266941,128,5018,0.361906333,9917.96875,62848,128
-0.518121781,-7184,-236971,-17.09073449,7409,0.534349148,128,5249,0.378566429,9919.921875,62912,128
-0.286683474,-3975,-237221,-17.1087649,6155,0.443908625,128,4714,0.339981358,9921.875,62976,128
-0.129386202,-1794,-237122,-17.10162486,6924,0.499370158,128,4973,0.35866086,9923.828125,63040,128
-0.090079914,-1249,-236737,-17.07385803,7203,0.519492092,128,5163,0.372363969,9925.78125,63104,128
-0.518193903,-7185,-236594,-17.06354464,7224,0.521006646,128,5168,0.372724578,9927.734375,63168,128
-0.005913974,-82,-237778,-17.14893665,4111,0.296492016,128,4429,0.319426694,9929.6875,63232,128
-0.001081824,-15,-237296,-17.11417402,6279,0.452851707,128,5105,0.368180915,9931.640625,63296,128
-0.518121781,-7184,-236514,-17.05777491,8176,0.589666437,128,5789,0.417512109,9933.59375,63360,128
-0.289928948,-4020,-238865,-17.22733286,5120,0.369262739,128,3746,0.270167621,9935.546875,63424,128
-0.064837344,-899,-238566,-17.20576849,1580,0.113952173,128,4613,0.332697074,9937.5,63488,128
-0.036926274,-512,-237696,-17.14302267,6223,0.448812896,128,3810,0.274783406,9939.453125,63552,128
-0.001153946,-16,-238112,-17.17302527,3584,0.258483918,128,3679,0.265335472,9941.40625,63616,128
-0.004615784,-64,-238761,-17.21983221,1408,0.101547253,128,3438,0.24795416,9943.359375,63680,128
-0.646281915,-8961,-237735,-17.14583542,3975,0.286683474,128,4127,0.297645962,9945.3125,63744,128
-0.572573611,-7939,-237556,-17.13292565,6607,0.476507601,128,4126,0.29757384,9947.265625,63808,128
-5.77E-04,-8,-238032,-17.16725554,4041,0.291443502,128,3837,0.27673069,9949.21875,63872,128
-0.027766827,-385,-237281,-17.1130922,3808,0.274639162,128,4284,0.308969058,9951.171875,63936,128
-0.00223577,-31,-238249,-17.18290593,4032,0.290794407,128,3379,0.243698984,9953.125,64000,128
-0.077963481,-1081,-239483,-17.27190402,1086,0.078324089,128,3501,0.252497822,9955.078125,64064,128
0.004471541,62,-239208,-17.25207058,992,0.071544656,128,4071,0.293607151,9957.03125,64128,128
-7.21E-05,-1,-238451,-17.1974745,6146,0.44325953,128,4106,0.296131408,9958.984375,64192,128
-0.017669799,-245,-238310,-17.18730535,3328,0.240020781,128,3402,0.245357781,9960.9375,64256,128
-0.056399114,-782,-238154,-17.17605438,3996,0.288198029,128,3988,0.287621056,9962.890625,64320,128
-0.140853541,-1953,-239011,-17.23786262,1987,0.143305676,128,3523,0.254084498,9964.84375,64384,128
-0.03584445,-497,-237937,-17.16040399,3971,0.286394988,128,3971,0.286394988,9966.796875,64448,128
-0.106812132,-1481,-239065,-17.24175718,1535,0.1107067,128,3469,0.25018993,9968.75,64512,128
-0.114889755,-1593,-238659,-17.2124758,2016,0.145397204,128,4210,0.303632057,9970.703125,64576,128
-0.147705096,-2048,-239276,-17.25697485,1855,0.133785621,128,3283,0.236775307,9972.65625,64640,128
-0.002307892,-32,-238720,-17.21687522,3888,0.280408893,128,3539,0.255238444,9974.609375,64704,128
0.147921461,2051,-239369,-17.26368216,2042,0.147272366,128,2852,0.205690885,9976.5625,64768,128
-0.07529498,-1044,-238787,-17.22170737,3327,0.239948659,128,3735,0.269374283,9978.515625,64832,128
-0.113086714,-1568,-238795,-17.22228434,3904,0.281562839,128,3734,0.269302162,9980.46875,64896,128
-0.036926274,-512,-239713,-17.288492,1935,0.139555352,128,2723,0.196387195,9982.421875,64960,128
-0.593128275,-8224,-239291,-17.25805667,760,0.054812438,128,3585,0.258556039,9984.375,65024,128
-0.66243716,-9185,-237913,-17.15867307,7196,0.518987241,128,4407,0.317840018,9986.328125,65088,128
-0.002163649,-30,-238239,-17.18218472,6535,0.471314844,128,4082,0.294400489,9988.28125,65152,128
-7.21E-05,-1,-238405,-17.19415691,4034,0.29093865,128,3987,0.287548934,9990.234375,65216,128
-0.073924669,-1025,-238464,-17.19841208,3844,0.277235541,128,3688,0.265984567,9992.1875,65280,128
-7.21E-05,-1,-239672,-17.28553501,1729,0.124698296,128,3161,0.227976469,9994.140625,65344,128
0.119866147,1662,-240030,-17.31135456,224,0.016155245,128,3041,0.219321873,9996.09375,65408,128
-0.593056153,-8223,-239775,-17.29296354,1904,0.137319581,128,3154,0.227471617,9998.046875,65472,128
-0.131549851,-1824,-239421,-17.26743248,3085,0.222495225,128,3369,0.242977767,10000,0,128
-0.141935365,-1968,-239279,-17.25719121,3843,0.277163419,128,3594,0.259205134,10001.95313,64,128
-18.8880776,-261892,-238859,-17.22690013,4039,0.291299259,128,4039,0.291299259,10003.90625,128,128
-0.073564061,-1020,-238204,-17.17966046,7420,0.535142486,128,4336,0.312719382,10005.85938,192,128
-0.018246772,-253,-238054,-17.16884222,6368,0.459270532,128,4288,0.309257544,10007.8125,256,128
-0.13017954,-1805,-239134,-17.24673358,3073,0.221629765,128,3073,0.221629765,10009.76563,320,128
-0.110850943,-1537,-239108,-17.24485841,2205,0.159028191,128,2979,0.214850332,10011.71875,384,128
-0.021997097,-305,-238258,-17.18355503,4068,0.293390786,128,3867,0.278894338,10013.67188,448,128
-0.138978379,-1927,-240363,-17.33537106,1029,0.074213156,128,2486,0.179294369,10015.625,512,128
-0.253868133,-3520,-241187,-17.39479928,259,0.018679502,128,2488,0.179438612,10017.57813,576,128
-0.626953319,-8693,-238947,-17.23324683,3566,0.257185728,128,3983,0.287260447,10019.53125,640,128
-0.06685675,-927,-239251,-17.25517181,6147,0.443331652,128,3840,0.276947054,10021.48438,704,128
-0.600268316,-8323,-239383,-17.26469186,3103,0.223793414,128,3884,0.280120406,10023.4375,768,128
-0.036926274,-512,-236754,-17.0750841,34,0.002452135,128,5308,0.382821606,10025.39063,832,128
-0.03497899,-485,-235259,-16.96726226,1663,0.119938269,128,6259,0.451409275,10027.34375,896,128
-0.340486209,-4721,-236129,-17.03000808,486,0.035051112,128,6355,0.458332951,10029.29688,960,128
-0.572429368,-7937,-236759,-17.07544471,7231,0.521511498,128,5668,0.408785392,10031.25,1024,128
-0.457106883,-6338,-234609,-16.92038321,127,0.009159447,128,8154,0.588079761,10033.20313,1088,128
-0.590315532,-8185,-235457,-16.98154235,8191,0.590748261,128,7806,0.562981434,10035.15625,1152,128
-0.055966384,-776,-234312,-16.89896308,992,0.071544656,128,9728,0.701599205,10037.10938,1216,128
-0.00930369,-129,-233137,-16.81422017,1740,0.125491634,128,11484,0.828244785,10039.0625,1280,128
-0.073852548,-1024,-232385,-16.7599847,1128,0.081353197,128,13419,0.967800137,10041.01563,1344,128
-0.147705096,-2048,-232941,-16.80008433,25,0.001803041,128,15409,1.111322178,10042.96875,1408,128
-0.263388188,-3652,-231496,-16.69586858,16510,1.190728091,128,18526,1.336125295,10044.92188,1472,128
-0.002307892,-32,-229402,-16.54484588,20465,1.475969133,128,19889,1.434427075,10046.875,1536,128
-7.21E-05,-1,-230277,-16.60795231,17280,1.246261745,128,18176,1.310882725,10048.82813,1600,128
-9.38E-04,-13,-231742,-16.7136105,16143,1.164259453,128,13064,0.942196958,10050.78125,1664,128
-0.004615784,-64,-230186,-16.60138924,192,0.013847353,128,11401,0.82225869,10052.73438,1728,128
-5.77E-04,-8,-231424,-16.69067582,127,0.009159447,128,9674,0.697704637,10054.6875,1792,128
-0.009159447,-127,-234126,-16.88554846,12318,0.888394223,128,8441,0.608778668,10056.64063,1856,128
-0.353395981,-4900,-235259,-16.96726226,4095,0.29533807,128,8086,0.58317549,10058.59375,1920,128
-0.588728856,-8163,-236268,-17.04003299,4064,0.293102299,128,7584,0.546970433,10060.54688,1984,128
-0.572501489,-7938,-237984,-17.1637937,2560,0.18463137,128,6073,0.437994652,10062.5,2048,128
-0.66243716,-9185,-238501,-17.20108058,512,0.036926274,128,5248,0.378494308,10064.45313,2112,128
-0.590892505,-8193,-237249,-17.11078431,4228,0.304930246,128,5744,0.414266636,10066.40625,2176,128
-0.274711284,-3809,-237699,-17.14323904,4097,0.295482313,128,4466,0.322095194,10068.35938,2240,128
-0.592984032,-8222,-239434,-17.26837006,3571,0.257546336,128,2719,0.196098709,10070.3125,2304,128
-1.036459927,-14371,-239276,-17.25697485,3838,0.276802811,128,3048,0.219826725,10072.26563,2368,128
-1.01576102,-14084,-239467,-17.27075008,3847,0.277451906,128,3094,0.223144319,10074.21875,2432,128
-0.747540682,-10365,-240125,-17.31820611,56,0.004038811,128,3753,0.270672473,10076.17188,2496,128
-0.848871571,-11770,-240122,-17.31798974,994,0.071688899,128,3630,0.261801512,10078.125,2560,128
-0.111932768,-1552,-239168,-17.24918571,4127,0.297645962,128,4446,0.320652762,10080.07813,2624,128
-1.181135914,-16377,-239449,-17.26945189,4147,0.299088395,128,4659,0.336014668,10082.03125,2688,128
-1.181352279,-16380,-239996,-17.30890242,1985,0.143161433,128,4041,0.291443502,10083.98438,2752,128
-0.054379708,-754,-239314,-17.25971547,6660,0.480330048,128,4677,0.337312858,10085.9375,2816,128
-0.288558637,-4001,-237474,-17.12701167,7904,0.570049354,128,5825,0.420108488,10087.89063,2880,128
-0.613466574,-8506,-238970,-17.23490563,6150,0.443548017,128,4764,0.343587439,10089.84375,2944,128
-1.179332874,-16352,-238987,-17.2361317,6384,0.460424478,128,5164,0.372436091,10091.79688,3008,128
-0.147200244,-2041,-238997,-17.23685291,6144,0.443115287,128,4667,0.336591641,10093.75,3072,128
-1.112404002,-15424,-239110,-17.24500266,6302,0.454510505,128,4689,0.338178317,10095.70313,3136,128
-1.126251355,-15616,-240176,-17.32188431,4221,0.304425395,128,4264,0.307526625,10097.65625,3200,128
-1.180558941,-16369,-239043,-17.24017051,6272,0.452346856,128,4934,0.355848116,10099.60938,3264,128
-1.44E-04,-2,-238444,-17.19696965,7199,0.519203606,128,5329,0.38433616,10101.5625,3328,128
-0.074862251,-1038,-238854,-17.22653952,7711,0.556129879,128,5201,0.375104591,10103.51563,3392,128
-0.069813737,-968,-239654,-17.28423682,4824,0.347914737,128,4652,0.335509817,10105.46875,3456,128
-0.147705096,-2048,-237990,-17.16422643,8088,0.583319734,128,5234,0.377484605,10107.42188,3520,128
-0.655513484,-9089,-238799,-17.22257283,6656,0.480041561,128,4674,0.337096493,10109.375,3584,128
-0.018967988,-263,-238863,-17.22718861,6599,0.475930628,128,4951,0.357074184,10111.32813,3648,128
-0.073780426,-1023,-239359,-17.26296094,6157,0.444052868,128,4621,0.333274047,10113.28125,3712,128
-0.003750325,-52,-238196,-17.17908349,8176,0.589666437,128,5111,0.368613645,10115.23438,3776,128
-1.173635265,-16273,-239026,-17.23894444,4606,0.332192222,128,4526,0.326422492,10117.1875,3840,128
-7.21E-05,-1,-239723,-17.28921322,5119,0.369190618,128,4639,0.334572236,10119.14063,3904,128
-0.036709909,-509,-238589,-17.20742729,8056,0.581011841,128,4968,0.358300252,10121.09375,3968,128
-5.05E-04,-7,-237623,-17.13775779,7230,0.521439376,128,6308,0.454943234,10123.04688,4032,128
-0.111860646,-1551,-239117,-17.24550751,6146,0.44325953,128,4978,0.359021468,10125,4096,128
-2.16E-04,-3,-238723,-17.21709159,6625,0.477805791,128,4961,0.3577954,10126.95313,4160,128
-0.018463137,-256,-239062,-17.24154082,4987,0.359670563,128,4707,0.339476507,10128.90625,4224,128
-1.116947665,-15487,-238719,-17.2168031,6282,0.453068072,128,4522,0.326134005,10130.85938,4288,128
-0.138545649,-1921,-238189,-17.17857864,6530,0.470954236,128,5620,0.405323554,10132.8125,4352,128
-0.281057987,-3897,-237766,-17.14807119,7822,0.56413538,128,5769,0.416069676,10134.76563,4416,128
-1.181352279,-16380,-239856,-17.29880539,4320,0.311565436,128,4184,0.301756895,10136.71875,4480,128
-0.872383222,-12096,-240042,-17.31222001,979,0.070607075,128,4529,0.326638857,10138.67188,4544,128
-0.147200244,-2041,-238597,-17.20800426,7229,0.521367254,128,5643,0.406982351,10140.625,4608,128
-0.008726717,-121,-239291,-17.25805667,8046,0.580290625,128,5107,0.368325158,10142.57813,4672,128
-0.93649935,-12985,-238903,-17.23007348,6337,0.457034762,128,5137,0.370488807,10144.53125,4736,128
-0.078468332,-1088,-237999,-17.16487553,7742,0.55836565,128,5598,0.403736878,10146.48438,4800,128
-0.584690044,-8107,-237919,-17.1591058,7759,0.559591718,128,5253,0.378854916,10148.4375,4864,128
-0.004110933,-57,-238459,-17.19805148,6639,0.478815493,128,5101,0.367892428,10150.39063,4928,128
-0.036998396,-513,-238121,-17.17367437,8112,0.585050653,128,5684,0.409939338,10152.34375,4992,128
-1.177313468,-16324,-238304,-17.18687262,7689,0.554543204,128,5657,0.407992054,10154.29688,5056,128
-0.014135839,-196,-239320,-17.2601482,4502,0.324691573,128,4532,0.326855222,10156.25,5120,128
-0.902457941,-12513,-238503,-17.20122483,7807,0.563053556,128,5734,0.413545419,10158.20313,5184,128
-1.44E-04,-2,-238274,-17.18470897,8153,0.588007639,128,5849,0.421839407,10160.15625,5248,128
-0.002452135,-34,-238826,-17.22452011,7408,0.534277026,128,5317,0.3834707,10162.10938,5312,128
-0.028848652,-400,-238496,-17.20071998,7682,0.554038352,128,5698,0.410949041,10164.0625,5376,128
-7.21E-05,-1,-238532,-17.20331636,7608,0.548701352,128,5552,0.400419283,10166.01563,5440,128
-0.039811139,-552,-238119,-17.17353012,7683,0.554110474,128,5811,0.419098785,10167.96875,5504,128
-0.055605776,-771,-238427,-17.19574358,7806,0.562981434,128,5758,0.415276338,10169.92188,5568,128
-0.069308885,-961,-237759,-17.14756634,8180,0.589954923,128,6311,0.455159599,10171.875,5632,128
-0.287404691,-3985,-237806,-17.15095605,7288,0.525622431,128,6178,0.445567423,10173.82813,5696,128
-7.21E-05,-1,-238467,-17.19862845,8188,0.590531896,128,5504,0.396957445,10175.78125,5760,128
-0.978618381,-13569,-239024,-17.2388002,6128,0.441961341,128,5431,0.391692566,10177.73438,5824,128
-1.110673083,-15400,-238069,-17.16992404,7664,0.552740163,128,6034,0.435181908,10179.6875,5888,128
-0.572501489,-7938,-237614,-17.1371087,7545,0.544157689,128,6494,0.468357857,10181.64063,5952,128
-1.144786614,-15873,-238706,-17.21586552,6016,0.433883719,128,5897,0.425301245,10183.59375,6016,128
-0.065702804,-911,-238474,-17.1991333,8191,0.590748261,128,5765,0.41578119,10185.54688,6080,128
-0.018318894,-254,-236819,-17.07977201,8064,0.581588814,128,6996,0.504562915,10187.5,6144,128
-0.553966231,-7681,-237121,-17.10155274,7695,0.554975933,128,6748,0.486676751,10189.45313,6208,128
-7.21E-05,-1,-238371,-17.19170477,8161,0.588584612,128,6373,0.45963114,10191.40625,6272,128
-0.017381313,-241,-238325,-17.18838718,7938,0.572501489,128,5710,0.4118145,10193.35938,6336,128
-0.590820383,-8192,-237477,-17.12722804,6174,0.445278936,128,6238,0.44989472,10195.3125,6400,128
-0.02214134,-307,-238387,-17.19285872,6127,0.44188922,128,5805,0.418666055,10197.26563,6464,128
-0.058923371,-817,-238194,-17.17893924,6397,0.461362059,128,6397,0.461362059,10199.21875,6528,128
-0.295410191,-4096,-236876,-17.08388294,8191,0.590748261,128,7103,0.512279929,10201.17188,6592,128
-0.078540454,-1089,-236742,-17.07421864,7423,0.53535885,128,7358,0.530670945,10203.125,6656,128
-0.23071709,-3199,-236927,-17.08756114,7999,0.576900909,128,7995,0.576612422,10205.07813,6720,128
-0.017597677,-244,-235971,-17.01861286,8128,0.586204599,128,7770,0.560385056,10207.03125,6784,128
-0.134434716,-1864,-237126,-17.10191335,6144,0.443115287,128,6308,0.454943234,10208.98438,6848,128
-0.2497572,-3463,-236951,-17.08929206,7423,0.53535885,128,7332,0.528795782,10210.9375,6912,128
-0.58714218,-8141,-237109,-17.10068728,7801,0.562620826,128,7341,0.529444877,10212.89063,6976,128
-0.585699747,-8121,-237635,-17.13862325,6175,0.445351058,128,6528,0.470809993,10214.84375,7040,128
-0.008726717,-121,-237352,-17.11821283,6257,0.451265031,128,7214,0.52028543,10216.79688,7104,128
-0.582742761,-8080,-237787,-17.14958574,7203,0.519492092,128,7253,0.523098174,10218.75,7168,128
-0.586493085,-8132,-236732,-17.07349742,7697,0.555120177,128,7604,0.548412865,10220.70313,7232,128
-0.293607151,-4071,-237001,-17.09289814,7707,0.555841393,128,7388,0.532834593,10222.65625,7296,128
-0.554254717,-7685,-235746,-17.0023855,8064,0.581588814,128,8938,0.644623118,10224.60938,7360,128
-0.138040797,-1914,-235084,-16.95464098,16376,1.181063793,128,9513,0.686093055,10226.5625,7424,128
-9.38E-04,-13,-235086,-16.95478522,15999,1.153873939,128,8799,0.634598212,10228.51563,7488,128
-0.517544808,-7176,-236821,-17.07991625,7168,0.516967835,128,7348,0.529949728,10230.46875,7552,128
-0.572357246,-7936,-237301,-17.11453463,7168,0.516967835,128,7509,0.54156131,10232.42188,7616,128
-0.556202001,-7712,-236223,-17.03678751,15392,1.11009611,128,8428,0.607841087,10234.375,7680,128
-0.153114218,-2123,-236251,-17.03880692,14847,1.070789822,128,8687,0.626520589,10236.32813,7744,128
-0.59024341,-8184,-236664,-17.06859315,7905,0.570121475,128,7909,0.570409962,10238.28125,7808,128
-0.001009703,-14,-236618,-17.06527556,14407,1.039056306,128,8278,0.597022843,10240.23438,7872,128
-0.369406983,-5122,-234906,-16.94180333,15919,1.148104208,128,9257,0.667629918,10242.1875,7936,128
-0.587430666,-8145,-235346,-16.97353685,16383,1.181568644,128,9389,0.677149973,10244.14063,8000,128
-0.149796623,-2077,-235550,-16.98824966,15232,1.09855665,128,9092,0.655729849,10246.09375,8064,128
-0.00706792,-98,-234050,-16.88006721,16379,1.181280158,128,9834,0.709244097,10248.04688,8128,128
-0.517256322,-7172,-235556,-16.98868239,14592,1.052398807,128,8978,0.647507983,10250,8192,128
-0.147705096,-2048,-235698,-16.99892366,15455,1.114639773,128,9201,0.663591106,10251.95313,8256,128
-0.590315532,-8185,-234889,-16.94057726,16156,1.165197035,128,9776,0.705061043,10253.90625,8320,128
-0.077963481,-1081,-234865,-16.93884634,15360,1.107788218,128,10124,0.73015937,10255.85938,8384,128
-0.444269233,-6160,-235786,-17.00527036,15363,1.108004583,128,9611,0.693160974,10257.8125,8448,128
-0.166096111,-2303,-235674,-16.99719274,15872,1.144714492,128,9671,0.697488272,10259.76563,8512,128
-2.365517302,-32799,-235246,-16.96632468,15872,1.144714492,128,9788,0.705926502,10261.71875,8576,128
-0.51941997,-7202,-235523,-16.98630237,15857,1.143632667,128,9883,0.712778057,10263.67188,8640,128
-2.367464586,-32826,-235260,-16.96733439,16199,1.168298265,128,10054,0.725110856,10265.625,8704,128
-2.416723659,-33509,-234182,-16.88958727,15886,1.145724195,128,10970,0.791174268,10267.57813,8768,128
-0.313224234,-4343,-233943,-16.8723502,15751,1.135987775,128,10628,0.766508671,10269.53125,8832,128
-2.497572005,-34630,-235094,-16.9553622,16367,1.180414698,128,9966,0.718764152,10271.48438,8896,128
-2.660999615,-36896,-233915,-16.8703308,16323,1.177241347,128,10566,0.76203713,10273.4375,8960,128
-0.556202001,-7712,-234166,-16.88843332,16131,1.163393994,128,11031,0.795573687,10275.39063,9024,128
-0.304569638,-4223,-234619,-16.92110442,14777,1.065741308,128,10681,0.770331117,10277.34375,9088,128
-2.365517302,-32799,-236049,-17.02423835,15426,1.112548245,128,10306,0.743285506,10279.29688,9152,128
-2.65811475,-36856,-237046,-17.09614361,12931,0.932604782,128,8866,0.639430361,10281.25,9216,128
-2.954101915,-40960,-236541,-17.05972219,13855,0.999245167,128,9247,0.666908701,10283.20313,9280,128
-0.517689051,-7178,-236618,-17.06527556,14242,1.027156237,128,9634,0.694819772,10285.15625,9344,128
-2.367753073,-32830,-236134,-17.03036869,16336,1.178178928,128,9684,0.698425853,10287.10938,9408,128
-2.384052561,-33056,-235804,-17.00656855,16240,1.171255251,128,9809,0.707441057,10289.0625,9472,128
-2.944942468,-40833,-236437,-17.05222154,6559,0.473045763,128,6969,0.502615631,10291.01563,9536,128
-2.930518142,-40633,-236479,-17.05525065,14463,1.043095117,128,4997,0.360391779,10292.96875,9600,128
-2.658186872,-36857,-237367,-17.11929466,791,0.057048208,128,4646,0.335077087,10294.92188,9664,128
-2.595296811,-35985,-237128,-17.10205759,6399,0.461506303,128,2919,0.210523034,10296.875,9728,128
-2.363353653,-32769,-237957,-17.16184642,1567,0.113014592,128,6894,0.497206509,10298.82813,9792,128
-2.926262966,-40574,-237395,-17.12131406,7199,0.519203606,128,3839,0.276874933,10300.78125,9856,128
-3.28643838,-45568,-237754,-17.14720573,15873,1.144786614,128,-3297,-0.23778501,10302.73438,9920,128
-2.957707996,-41010,-237622,-17.13768567,1807,0.130323783,128,3679,0.265335472,10304.6875,9984,128
-2.992326378,-41490,-238292,-17.18600716,15600,1.125097409,128,-576,-0.041542058,10306.64063,10048,128
-3.56316907,-49405,-236285,-17.04125906,15428,1.112692489,128,-3900,-0.281274352,10308.59375,10112,128
-3.255353958,-45137,-238677,-17.21377399,12406,0.894740927,128,-7834,-0.56500084,10310.54688,10176,128
-3.340673845,-46320,-238796,-17.22235647,16352,1.179332874,128,-5140,-0.370705172,10312.5,10240,128
-2.97249293,-41215,-239031,-17.23930505,13720,0.989508747,128,-2632,-0.189824127,10314.45313,10304,128
-3.273095879,-45383,-238919,-17.23122743,12300,0.887096034,128,-7764,-0.559952326,10316.40625,10368,128
-3.027954463,-41984,-239560,-17.27745739,15606,1.125530139,128,-4682,-0.337673466,10318.35938,10432,128
-2.371359154,-32880,-239344,-17.26187912,13829,0.997370004,128,-6523,-0.470449385,10320.3125,10496,128
-2.954390401,-40964,-238788,-17.22177949,14342,1.0343684,128,-5500,-0.396668958,10322.26563,10560,128
-3.093585145,-42894,-239006,-17.23750201,12355,0.891062724,128,-8110,-0.584906409,10324.21875,10624,128
-3.378826187,-46849,-239377,-17.26425913,14272,1.029319886,128,-6975,-0.503048361,10326.17188,10688,128
-4.279048357,-59331,-238927,-17.2318044,7918,0.571059057,128,-8566,-0.617793872,10328.125,10752,128
-3.517011227,-48765,-238681,-17.21406248,8127,0.586132477,128,-8517,-0.614259912,10330.07813,10816,128
-2.3955199,-33215,-239029,-17.2391608,12294,0.886663304,128,-8116,-0.585339139,10332.03125,10880,128
