Device,Device,Device,Device,Device,Device,Device,Device,Device,Device,Device,Device
ECG LL-RA,ECG LL-RA,EXG2 Status,ECG LA-RA,ECG LA-RA,EXG1 Status,ECG Vx-RL,ECG Vx-RL,ExG2 CH1,ExG2 CH1,Timestamp,Timestamp
CAL,RAW,RAW,RAW,CAL,RAW,RAW,CAL,CAL,RAW,RAW,CAL
mV,No Units,No Units,No Units,mV,No Units,No Units,mV,mV,No Units,No Units,mSecs
-9.433436922,-130799,128,-245148,-17.68047305,128,-130596,-9.418796232,0.009231568,128,1920,58.59375
-9.431417517,-130771,128,-245054,-17.67369362,128,-114208,-8.236866979,0.004543663,63,2560,78.125
-9.413026501,-130516,128,-244799,-17.6553026,128,-113680,-8.198786759,0.001153946,16,3200,97.65625
-9.406896163,-130431,128,-244436,-17.62912245,128,-105597,-7.615827634,0.020698907,287,3840,117.1875
-9.438413315,-130868,128,-244446,-17.62984367,128,-65308,-4.710119332,0.03231049,448,4480,136.71875
-9.458823736,-131151,128,-244887,-17.66164931,128,-64528,-4.653864462,1.177674076,16329,5120,156.25
-9.423412016,-130660,128,-243756,-17.58007974,128,-64544,-4.655018408,1.161086102,16099,5760,175.78125
-9.354680104,-129707,128,-243898,-17.59032102,128,-64753,-4.670091828,0.145613568,2019,6400,195.3125
-9.329942385,-129364,128,-244002,-17.59782166,128,-65284,-4.708388413,0.017164948,238,7040,214.84375
-9.333909075,-129419,128,-243515,-17.56269843,128,-65272,-4.707522953,0.14878692,2063,7680,234.375
-9.405742217,-130415,128,-243616,-17.56998272,128,-65410,-4.717475738,0.147128123,2040,8320,253.90625
-9.453991586,-131084,128,-243831,-17.58548887,128,-63733,-4.596527767,1.181063793,16376,8960,273.4375
-9.469497737,-131299,128,-243752,-17.57979126,128,-63709,-4.594796848,1.174644968,16287,9600,292.96875
-9.464088614,-131224,128,-243782,-17.58195491,128,-63496,-4.579434941,1.180342577,16366,10240,312.5
-9.549769109,-132412,128,-244010,-17.59839864,128,-65025,-4.689708911,1.117019786,15488,10880,332.03125
-9.545730298,-132356,128,-243067,-17.53038794,128,-65536,-4.726563063,1.144426005,15868,11520,351.5625
-7.694007479,-106681,128,-241217,-17.39696293,128,-47169,-3.401905108,0.022501948,312,12160,371.09375
-9.392039107,-130225,128,-244559,-17.63799341,128,-61569,-4.440456562,1.048576361,14539,12800,390.625
-9.434807233,-130818,128,-243629,-17.5709203,128,-65533,-4.726346699,1.165990372,16167,13440,410.15625
-9.455794627,-131109,128,-243461,-17.55880386,128,-63632,-4.589243482,1.173563143,16272,14080,429.6875
-9.410141636,-130476,128,-242687,-17.50298172,128,-62338,-4.495918095,0.00223577,31,14720,449.21875
-9.38461058,-130122,128,-242612,-17.4975726,128,-64452,-4.648383218,0.002163649,30,15360,468.75
-9.364849253,-129848,128,-242463,-17.48682648,128,-64097,-4.62278004,0.002019406,28,16000,488.28125
-9.303978599,-129004,128,-241899,-17.44614988,128,-61441,-4.431224994,0.009087325,126,16640,507.8125
-9.227962402,-127950,128,-240874,-17.37222521,128,-58354,-4.208585526,0.17713072,2456,17280,527.34375
-9.076795468,-125854,128,-239836,-17.29736296,128,-58321,-4.206205512,0.451769883,6264,17920,546.875
-9.055014736,-125552,128,-240206,-17.32404796,128,-57360,-4.136896627,0.55836565,7742,18560,566.40625
-9.077949414,-125870,128,-240226,-17.32549039,128,-57346,-4.135886924,0.518049659,7183,19200,585.9375
-9.224644807,-127904,128,-241807,-17.43951469,128,-58977,-4.2535173,0.295987164,4104,19840,605.46875
-9.346746724,-129597,128,-242646,-17.50002474,128,-61890,-4.463607605,0.146623271,2033,20480,625
-9.407473136,-130439,128,-242616,-17.49786109,128,-64001,-4.615856363,0.144099014,1998,21120,644.53125
-9.407545258,-130440,128,-242823,-17.51279026,128,-64657,-4.663168152,0.004543663,63,21760,664.0625
-9.433076314,-130794,128,-243239,-17.54279286,128,-65277,-4.707883562,0.006851555,95,22400,683.59375
-9.404083419,-130392,128,-242509,-17.49014407,128,-65348,-4.713004197,0.036926274,512,23040,703.125
-9.422546556,-130648,128,-243093,-17.5322631,128,-65476,-4.722235766,0.018318894,254,23680,722.65625
-9.384971188,-130127,128,-242753,-17.50774175,128,-64976,-4.686174951,0.008654595,120,24320,742.1875
-9.374152943,-129977,128,-242467,-17.48711496,128,-65489,-4.723173347,0.047239667,655,24960,761.71875
-9.374802038,-129986,128,-242620,-17.49814957,128,-63552,-4.583473752,0.008654595,120,25600,781.25
-9.386990593,-130155,128,-242858,-17.51531452,128,-64545,-4.655090529,0.018391015,255,26240,800.78125
-9.37177293,-129944,128,-242679,-17.50240475,128,-64500,-4.651845056,0.03231049,448,26880,820.3125
-9.388937877,-130182,128,-242732,-17.5062272,128,-64257,-4.6343195,0.002524257,35,27520,839.84375
-9.311407126,-129107,128,-242421,-17.48379737,128,-63999,-4.61571212,0.03454626,479,28160,859.375
-9.321792641,-129251,128,-243200,-17.53998012,128,-63743,-4.597248983,2.16E-04,3,28800,878.90625
-9.30534891,-129023,128,-242201,-17.46793061,128,-59392,-4.283447776,0.148931163,2065,29440,898.4375
-9.382446931,-130092,128,-242417,-17.48350888,128,-61577,-4.441033535,0.001947284,27,30080,917.96875
-9.443173342,-130934,128,-243124,-17.53449887,128,-63474,-4.577848265,0.017886164,248,30720,937.5
-9.443461829,-130938,128,-242978,-17.52396912,128,-65088,-4.694252574,0.009159447,127,31360,957.03125
-9.442740612,-130928,128,-242939,-17.52115637,128,-64637,-4.661725719,0.001226068,17,32000,976.5625
-9.561236448,-132571,128,-242150,-17.46425241,128,-65055,-4.69187256,1.181568644,16383,32640,996.09375
-9.049749857,-125479,128,-240822,-17.36847489,128,-61454,-4.432162575,1.121851936,15555,33280,1015.625
-8.333365719,-115546,128,-241354,-17.40684359,128,-46001,-3.317667045,0.553605622,7676,33920,1035.15625
-9.487672387,-131551,128,-243795,-17.58289249,128,-49053,-3.537782256,0.143810528,1994,34560,1054.6875
-9.343789738,-129556,128,-242022,-17.45502084,128,-61561,-4.439879589,0.017381313,241,35200,1074.21875
-9.337298791,-129466,128,-241554,-17.42126792,128,-61444,-4.431441358,0.065197952,904,35840,1093.75
-9.298425233,-128927,128,-241209,-17.39638596,128,-59385,-4.282942925,0.147705096,2048,36480,1113.28125
-9.304194963,-129007,128,-241203,-17.39595323,128,-57600,-4.154205817,0.056471235,783,37120,1132.8125
-9.251618296,-128278,128,-240845,-17.37013368,128,-57568,-4.151897925,0.176481626,2447,37760,1152.34375
-9.170048734,-127147,128,-240002,-17.30933515,128,-48897,-3.526531282,0.295121705,4092,38400,1171.875
-9.104201687,-126234,128,-239260,-17.2558209,128,-47201,-3.404213,0.45919841,6367,39040,1191.40625
-9.043403154,-125391,128,-239230,-17.25365725,128,-49144,-3.544345325,0.558437772,7743,39680,1210.9375
-8.998327136,-124766,128,-238436,-17.19639268,128,-49040,-3.536844675,0.572357246,7936,40320,1230.46875
-9.04809106,-125456,128,-239152,-17.24803176,128,-48674,-3.510448159,0.441961341,6128,40960,1250
-9.217937495,-127811,128,-240372,-17.33602015,128,-47741,-3.443158679,0.290794407,4032,41600,1269.53125
-9.290852462,-128822,128,-240896,-17.37381189,128,-49152,-3.544922298,0.162634273,2255,42240,1289.0625
-9.348910373,-129627,128,-241166,-17.39328473,128,-48129,-3.471141871,0.00973642,135,42880,1308.59375
-9.392688202,-130234,128,-241654,-17.42848008,128,-57456,-4.143820303,0.021924975,304,43520,1328.125
-9.41519015,-130546,128,-241897,-17.44600564,128,-49152,-3.544922298,0.036565666,507,44160,1347.65625
-9.365426226,-129856,128,-241143,-17.39162593,128,-61682,-4.448606306,0.073708305,1022,44800,1367.1875
-9.382807539,-130097,128,-241691,-17.43114858,128,-58367,-4.209523107,0.003461838,48,45440,1386.71875
-9.380066917,-130059,128,-241355,-17.40691571,128,-58306,-4.205123687,0.046085721,639,46080,1406.25
-9.365858956,-129862,128,-241351,-17.40662723,128,-49127,-3.543119257,0.018318894,254,46720,1425.78125
-9.38150935,-130079,128,-241986,-17.45242446,128,-61441,-4.431224994,0.009159447,127,47360,1445.3125
-9.331889669,-129391,128,-241004,-17.38160102,128,-57585,-4.153123993,0.03411353,473,48000,1464.84375
-9.370691105,-129929,128,-241223,-17.39739566,128,-61553,-4.439302616,0.073780426,1023,48640,1484.375
-9.381653593,-130081,128,-241428,-17.41218059,128,-57424,-4.141512411,0.034618382,480,49280,1503.90625
-9.32705752,-129324,128,-241166,-17.39328473,128,-48640,-3.507996024,5.05E-04,7,49920,1523.4375
-9.319628992,-129221,128,-241465,-17.41484909,128,-48160,-3.473377642,0,0,50560,1542.96875
-9.332178155,-129395,128,-240734,-17.36212818,128,-48157,-3.473161277,0.03721476,516,51200,1562.5
-9.414252569,-130533,128,-240816,-17.36804216,128,-47152,-3.40067904,0.001081824,15,51840,1582.03125
-9.426008394,-130696,128,-240832,-17.3691961,128,-48144,-3.472223696,0.036854152,511,52480,1601.5625
-9.393265175,-130242,128,-239977,-17.30753211,128,-57360,-4.136896627,0.036349301,504,53120,1621.09375
-9.425287178,-130686,128,-241123,-17.3901835,128,-49089,-3.540378635,0.07349194,1019,53760,1640.625
-9.527699891,-132106,128,-239773,-17.2928193,128,-49090,-3.540450757,1.148104208,15919,54400,1660.15625
-8.5530482,-118592,128,-236768,-17.0760938,128,-45632,-3.291054164,0.004543663,63,55040,1679.6875
-8.02569485,-111280,128,-238666,-17.21298065,128,-41986,-3.028098706,0.008654595,120,55680,1699.21875
-9.442596369,-130926,128,-241573,-17.42263823,128,-47208,-3.404717851,1.144714492,15872,56320,1718.75
-9.365786834,-129861,128,-240817,-17.36811428,128,-48129,-3.471141871,0.004543663,63,56960,1738.28125
-9.327850858,-129335,128,-240221,-17.32512979,128,-48048,-3.465300019,0.020698907,287,57600,1757.8125
-9.301887071,-128975,128,-239811,-17.29555992,128,-47345,-3.414598514,0.147777217,2049,58240,1777.34375
-9.268062027,-128506,128,-239981,-17.3078206,128,-48784,-3.518381538,0.19436779,2695,58880,1796.875
-9.239429741,-128109,128,-239788,-17.29390112,128,-47132,-3.399236607,0.203094507,2816,59520,1816.40625
-9.156489868,-126959,128,-239032,-17.23937717,128,-46977,-3.388057755,0.284447704,3944,60160,1835.9375
-9.040157681,-125346,128,-238208,-17.17994895,128,-41983,-3.027882341,0.571780273,7928,60800,1855.46875
-9.001284123,-124807,128,-237866,-17.15528335,128,-40969,-2.954751009,0.451769883,6264,61440,1875
-8.997678041,-124757,128,-238269,-17.18434837,128,-41362,-2.983094809,0.443620139,6151,62080,1894.53125
-9.06006325,-125622,128,-238670,-17.21326914,128,-42829,-3.088897239,0.439581327,6095,62720,1914.0625
-9.227169064,-127939,128,-240061,-17.31359033,128,-47105,-3.397289323,0.267138513,3704,63360,1933.59375
-9.306358612,-129037,128,-240651,-17.35614209,128,-47569,-3.430753759,0.181746505,2520,64000,1953.125
-9.324172655,-129284,128,-240539,-17.34806446,128,-49122,-3.542758649,0.036782031,510,64640,1972.65625
-9.32972602,-129361,128,-240414,-17.33904926,128,-47135,-3.399452972,0.053225762,738,65280,1992.1875
-9.359151645,-129769,128,-240541,-17.34820871,128,-47109,-3.39757781,0.020698907,287,384,2011.71875
-9.337947886,-129475,128,-240644,-17.35563724,128,-48253,-3.480084953,0.038585071,535,1024,2031.25
-9.326913277,-129322,128,-240391,-17.33739046,128,-47495,-3.425416759,0.043128734,598,1664,2050.78125
-9.314291992,-129147,128,-240538,-17.34799234,128,-47913,-3.4555636,0.073564061,1020,2304,2070.3125
-9.317681708,-129194,128,-240307,-17.33133225,128,-47108,-3.397505688,0.062168844,862,2944,2089.84375
-9.348910373,-129627,128,-240832,-17.3691961,128,-47622,-3.434576206,0.152104515,2109,3584,2109.375
-9.297704017,-128917,128,-239794,-17.29433385,128,-48928,-3.528767053,0.073780426,1023,4224,2128.90625
-9.365786834,-129861,128,-240559,-17.3495069,128,-49089,-3.540378635,5.05E-04,7,4864,2148.4375
-9.302752531,-128987,128,-239977,-17.30753211,128,-48068,-3.466742452,0.013919474,193,5504,2167.96875
-9.261066229,-128409,128,-239894,-17.30154601,128,-48133,-3.471430358,0.192059897,2663,6144,2187.5
-9.229044226,-127965,128,-239598,-17.28019801,128,-47136,-3.399525094,0.265623959,3683,6784,2207.03125
-9.263951095,-128449,128,-239812,-17.29563204,128,-49138,-3.543912595,0.18686714,2591,7424,2226.5625
-9.377037809,-130017,128,-240374,-17.3361644,128,-47201,-3.404213,0.015794637,219,8064,2246.09375
-9.386702107,-130151,128,-240481,-17.34388141,128,-49149,-3.544705933,7.21E-05,1,8704,2265.625
-9.360449834,-129787,128,-240289,-17.33003406,128,-49147,-3.544561689,0.034618382,480,9344,2285.15625
-9.411007096,-130488,128,-241088,-17.38765924,128,-49005,-3.534320418,0.073780426,1023,9984,2304.6875
-9.547244852,-132377,128,-240374,-17.3361644,128,-47358,-3.415536096,1.106850637,15347,10624,2324.21875
-7.942105882,-110121,128,-236039,-17.02351713,128,-34704,-2.502909005,0.069381007,962,11264,2343.75
-8.811243631,-122172,128,-240479,-17.34373717,128,-43983,-3.172125598,0.893154251,12384,11904,2363.28125
-9.352011603,-129670,128,-240804,-17.3671767,128,-49144,-3.544345325,0.037431125,519,12544,2382.8125
-9.313210167,-129132,128,-240386,-17.33702985,128,-47874,-3.452750856,0.066207655,918,13184,2402.34375
-9.256378324,-128344,128,-239651,-17.28402046,128,-47112,-3.397794175,0.205835129,2854,13824,2421.875
-9.239934592,-128116,128,-239414,-17.26692763,128,-45311,-3.267903121,0.212326075,2944,14464,2441.40625
-9.223707226,-127891,128,-239343,-17.261807,128,-47144,-3.400102067,0.19350233,2683,15104,2460.9375
-9.203224683,-127607,128,-239515,-17.27421192,128,-41921,-3.0234108,0.229635266,3184,15744,2480.46875
-9.105139268,-126247,128,-238490,-17.20028725,128,-46032,-3.319902816,0.481844602,6681,16384,2500
-8.989167689,-124639,128,-237676,-17.14158024,128,-40961,-2.954174036,0.589522194,8174,17024,2519.53125
-8.93074917,-123829,128,-237012,-17.09369148,128,-34016,-2.453289324,0.572357246,7936,17664,2539.0625
-8.893462288,-123312,128,-236874,-17.08373869,128,-36367,-2.622847274,0.590531896,8188,18304,2558.59375
-9.026382449,-125155,128,-238212,-17.18023743,128,-41972,-3.027089003,0.4348213,6029,18944,2578.125
-9.185987614,-127368,128,-239422,-17.2675046,128,-45297,-3.266893419,0.304353273,4220,19584,2597.65625
-9.255512864,-128332,128,-239959,-17.30623392,128,-41828,-3.016703488,0.225019482,3120,20224,2617.1875
-9.2659705,-128477,128,-239784,-17.29361263,128,-47105,-3.397289323,0.147921461,2051,20864,2636.71875
-9.248733431,-128238,128,-239792,-17.29418961,128,-44860,-3.235376267,0.203022385,2815,21504,2656.25
-9.208561684,-127681,128,-239288,-17.25784031,128,-45192,-3.259320648,0.279182825,3871,22144,2675.78125
-9.235967903,-128061,128,-239776,-17.29303566,128,-42910,-3.094739091,0.240165024,3330,22784,2695.3125
-9.265609892,-128472,128,-239439,-17.26873067,128,-45825,-3.304973639,0.151743907,2104,23424,2714.84375
-9.207479859,-127666,128,-239306,-17.2591385,128,-44116,-3.181717775,0.286178623,3968,24064,2734.375
-9.174231788,-127205,128,-238473,-17.19906118,128,-41212,-2.972276565,0.25949362,3598,24704,2753.90625
-9.18404033,-127341,128,-238397,-17.19357994,128,-41471,-2.990956067,0.292164718,4051,25344,2773.4375
-9.144084948,-126787,128,-237772,-17.14850392,128,-45057,-3.249584228,0.262450607,3639,25984,2792.96875
-9.144373434,-126791,128,-238167,-17.17699196,128,-41752,-3.011222245,0.461001451,6392,26624,2812.5
-9.090642821,-126046,128,-238369,-17.19156053,128,-41217,-2.972637173,0.475497899,6593,27264,2832.03125
-9.077733049,-125867,128,-237708,-17.14388813,128,-41092,-2.96362197,0.58137245,8061,27904,2851.5625
-9.151801962,-126894,128,-237472,-17.12686743,128,-36432,-2.62753518,0.470809993,6528,28544,2871.09375
-9.189160966,-127412,128,-237880,-17.15629305,128,-41024,-2.958717699,0.258772404,3588,29184,2890.625
-9.271595987,-128555,128,-239022,-17.23865595,128,-41489,-2.992254256,0.221629765,3073,29824,2910.15625
-9.217937495,-127811,128,-238388,-17.19293084,128,-45095,-3.25232485,0.201868439,2799,30464,2929.6875
-9.270297798,-128537,128,-238908,-17.23043409,128,-42000,-3.029108409,0.182828329,2535,31104,2949.21875
-9.031863693,-125231,128,-237011,-17.09361936,128,-41924,-3.023627165,0.00223577,31,31744,2968.75
-7.645974475,-106015,128,-234080,-16.88223086,128,-36866,-2.658835966,1.068626174,14817,32384,2988.28125
-9.261859567,-128420,128,-239604,-17.28063074,128,-41504,-2.993336081,0.581300328,8060,33024,3007.8125
-9.159374733,-126999,128,-238162,-17.17663135,128,-41969,-3.026872638,0.295121705,4092,33664,3027.34375
-9.141704934,-126754,128,-237979,-17.16343309,128,-41459,-2.990090607,0.445351058,6175,34304,3046.875
-9.132401244,-126625,128,-237652,-17.13984932,128,-40980,-2.955544347,0.47996944,6655,34944,3066.40625
-9.109755052,-126311,128,-237649,-17.13963296,128,-40961,-2.954174036,0.497927725,6904,35584,3085.9375
-9.036623721,-125297,128,-236665,-17.06866527,128,-34553,-2.492018639,0.590315532,8185,36224,3105.46875
-9.000562906,-124797,128,-236478,-17.05517853,128,-33694,-2.43006616,0.452563221,6275,36864,3125
-8.891875612,-123290,128,-235843,-17.0093813,128,-33789,-2.436917715,0.516895713,7167,37504,3144.53125
-8.850477797,-122716,128,-235317,-16.97144532,128,-40765,-2.940038197,1.051244861,14576,38144,3164.0625
-8.757657261,-121429,128,-234481,-16.91115164,128,-34429,-2.483075557,1.181352279,16380,38784,3183.59375
-8.777851317,-121709,128,-234819,-16.93552875,128,-40819,-2.943932765,1.10786034,15361,39424,3203.125
-8.953683848,-124147,128,-236234,-17.03758085,128,-33218,-2.395736265,0.519203606,7199,40064,3222.65625
-9.067275413,-125722,128,-237229,-17.10934187,128,-36384,-2.624073341,0.438860111,6085,40704,3242.1875
-9.117760553,-126422,128,-237808,-17.1511003,128,-40968,-2.954678888,0.446000152,6184,41344,3261.71875
-9.116822972,-126409,128,-237380,-17.12023224,128,-41183,-2.970185038,0.459775383,6375,41984,3281.25
-9.140839474,-126742,128,-237435,-17.12419893,128,-36639,-2.642464357,0.461506303,6399,42624,3300.78125
-9.134276406,-126651,128,-237226,-17.10912551,128,-36864,-2.658691723,0.470882114,6529,43264,3320.3125
-9.122881189,-126493,128,-237152,-17.10378851,128,-36448,-2.628689126,0.450111085,6241,43904,3339.84375
-9.114442958,-126376,128,-237417,-17.12290074,128,-41026,-2.958861942,0.462660249,6415,44544,3359.375
-9.089921604,-126036,128,-236912,-17.08647932,128,-34785,-2.508750857,0.516895713,7167,45184,3378.90625
-9.125621811,-126531,128,-237377,-17.12001587,128,-36833,-2.656455953,0.327432195,4540,45824,3398.4375
-9.097854984,-126146,128,-237126,-17.10191335,128,-40961,-2.954174036,0.459270532,6368,46464,3417.96875
-9.105499876,-126252,128,-236884,-17.08445991,128,-35932,-2.591474365,0.497350752,6896,47104,3437.5
-9.015996935,-125011,128,-236473,-17.05481792,128,-36761,-2.651263195,0.558437772,7743,47744,3457.03125
-8.977988837,-124484,128,-236089,-17.02712322,128,-40761,-2.939749711,0.47996944,6655,48384,3476.5625
-9.012823583,-124967,128,-235994,-17.02027166,128,-33521,-2.417589118,0.454582626,6303,49024,3496.09375
-9.094753754,-126103,128,-235795,-17.00591946,128,-33025,-2.38181679,0.506005347,7016,49664,3515.625
-9.108096255,-126288,128,-235697,-16.99885154,128,-33788,-2.436845593,0.452418977,6273,50304,3535.15625
-9.141488569,-126751,128,-236122,-17.02950323,128,-35709,-2.575391242,0.461506303,6399,50944,3554.6875
-9.09150828,-126058,128,-235238,-16.96574771,128,-40952,-2.953524942,0.477012453,6614,51584,3574.21875
-9.236544876,-128069,128,-235839,-17.00909281,128,-35790,-2.581233094,0.286178623,3968,52224,3593.75
-8.81917701,-122282,128,-234312,-16.89896308,128,-37124,-2.677443347,0.006851555,95,52864,3613.28125
-7.878566727,-109240,128,-234844,-16.93733179,128,-35829,-2.584045837,1.17962136,16356,53504,3632.8125
-9.179568789,-127279,128,-237427,-17.12362196,128,-40705,-2.935710899,0.294256245,4080,54144,3652.34375
-9.034460072,-125267,128,-236037,-17.02337289,128,-40770,-2.940398805,0.558582015,7745,54784,3671.875
-9.026093963,-125151,128,-235391,-16.97678232,128,-34624,-2.497139275,0.574665138,7968,55424,3691.40625
-9.033450369,-125253,128,-235763,-17.00361157,128,-40185,-2.898207652,0.585627626,8120,56064,3710.9375
-8.996596217,-124742,128,-235152,-16.95954525,128,-34649,-2.498942315,0.461073573,6393,56704,3730.46875
-8.984191297,-124570,128,-235057,-16.9526937,128,-32817,-2.366815492,0.450038964,6240,57344,3750
-8.895265328,-123337,128,-234294,-16.89766489,128,-40868,-2.947466725,0.51675147,7165,57984,3769.53125
-8.833889822,-122486,128,-233761,-16.85922406,128,-40889,-2.948981279,1.043311482,14466,58624,3789.0625
-8.751526922,-121344,128,-233160,-16.81587897,128,-36643,-2.642752843,1.179044387,16348,59264,3808.59375
-8.669164022,-120202,128,-232720,-16.78414545,128,-32784,-2.364435478,1.079444418,14967,59904,3828.125
-8.787371372,-121841,128,-233444,-16.83636151,128,-34368,-2.478676138,1.145219343,15879,60544,3847.65625
-8.904569018,-123466,128,-234622,-16.92132079,128,-33793,-2.437206201,0.517112078,7170,61184,3867.1875
-8.999985933,-124789,128,-235382,-16.97613322,128,-38910,-2.806252576,0.453140194,6283,61824,3886.71875
-9.050975925,-125496,128,-235479,-16.98312902,128,-34832,-2.512140574,0.553821987,7679,62464,3906.25
-9.066554197,-125712,128,-235623,-16.99351454,128,-32867,-2.370421573,0.534277026,7408,63104,3925.78125
-9.084584604,-125962,128,-235966,-17.01825226,128,-34930,-2.519208493,0.452274734,6271,63744,3945.3125
-9.071097859,-125775,128,-235983,-17.01947832,128,-33279,-2.400135684,0.582814882,8081,64384,3964.84375
-9.047874695,-125453,128,-235567,-16.98947573,128,-32777,-2.363930626,0.507736267,7040,65024,3984.375
-9.03568614,-125284,128,-235531,-16.98687935,128,-39945,-2.880898461,0.554975933,7695,128,4003.90625
-9.037777667,-125313,128,-235489,-16.98385024,128,-40929,-2.951866144,0.590748261,8191,768,4023.4375
-9.040662532,-125353,128,-235402,-16.97757566,128,-34768,-2.507524789,0.554110474,7683,1408,4042.96875
-9.039652829,-125339,128,-235420,-16.97887385,128,-40857,-2.946673387,0.588512491,8160,2048,4062.5
-8.972002741,-124401,128,-234973,-16.94663548,128,-32786,-2.364579721,0.590171288,8183,2688,4082.03125
-8.957073564,-124194,128,-235600,-16.99185574,128,-34896,-2.516756358,0.489128886,6782,3328,4101.5625
-8.964790578,-124301,128,-234823,-16.93581723,128,-40449,-2.917247762,0.515813889,7152,3968,4121.09375
-9.011020543,-124942,128,-234948,-16.94483244,128,-40898,-2.949630374,0.59024341,8184,4608,4140.625
-9.107230795,-126276,128,-235949,-17.01702619,128,-33789,-2.436917715,0.452274734,6271,5248,4160.15625
-9.058837182,-125605,128,-235181,-16.96163678,128,-33725,-2.43230193,0.578776071,8025,5888,4179.6875
-9.099081051,-126163,128,-235840,-17.00916493,128,-40768,-2.940254562,0.462083276,6407,6528,4199.21875
-9.150792259,-126880,128,-235331,-16.97245502,128,-34881,-2.515674533,0.500524104,6940,7168,4218.75
-9.090498577,-126044,128,-235089,-16.95500159,128,-33405,-2.409223009,0.590531896,8188,7808,4238.28125
-7.402131248,-102634,128,-232332,-16.75616226,128,-34560,-2.49252349,0.588728856,8163,8448,4257.8125
-9.082276712,-125930,128,-237129,-17.10212971,128,-40457,-2.917824735,0.295410191,4096,9088,4277.34375
-8.993350743,-124697,128,-234959,-16.94562578,128,-40958,-2.953957671,0.554471082,7688,9728,4296.875
-8.969478484,-124366,128,-234660,-16.92406141,128,-40834,-2.945014589,0.483503399,6704,10368,4316.40625
-8.947409266,-124060,128,-234359,-16.9023528,128,-33556,-2.420113375,0.514659943,7136,11008,4335.9375
-8.918776979,-123663,128,-234236,-16.89348184,128,-37888,-2.732544271,0.519203606,7199,11648,4355.46875
-8.873123988,-123030,128,-233654,-16.85150705,128,-32920,-2.374244019,0.572357246,7936,12288,4375
-8.845645648,-122649,128,-233699,-16.85475252,128,-36863,-2.658619602,1.042013293,14448,12928,4394.53125
-8.728448001,-121024,128,-232564,-16.77289447,128,-35968,-2.594070744,1.177024982,16320,13568,4414.0625
-8.652215439,-119967,128,-231871,-16.72291419,128,-36739,-2.64967652,1.090406905,15119,14208,4433.59375
-8.597547245,-119209,128,-231714,-16.71159109,128,-35298,-2.545749253,1.149402398,15937,14848,4453.125
-8.614279463,-119441,128,-231541,-16.69911405,128,-34929,-2.519136372,1.164259453,16143,15488,4472.65625
-8.770999762,-121614,128,-233163,-16.81609533,128,-36545,-2.635684924,1.116659178,15483,16128,4492.1875
-8.890865909,-123276,128,-234030,-16.87862478,128,-40958,-2.953957671,0.558437772,7743,16768,4511.71875
-8.930100075,-123820,128,-234288,-16.89723216,128,-38944,-2.808704711,0.580651233,8051,17408,4531.25
-8.942072265,-123986,128,-234066,-16.88122116,128,-40945,-2.95302009,0.508818091,7055,18048,4550.78125
-8.886538611,-123216,128,-233636,-16.85020886,128,-37696,-2.718696918,0.590748261,8191,18688,4570.3125
-8.901251424,-123420,128,-233654,-16.85150705,128,-40117,-2.893303382,0.590531896,8188,19328,4589.84375
-8.852857811,-122749,128,-233132,-16.81385956,128,-40447,-2.917103519,0.59024341,8184,19968,4609.375
-8.81874428,-122276,128,-233032,-16.8066474,128,-36452,-2.628977612,1.035017495,14351,20608,4628.90625
-8.812613942,-122191,128,-232627,-16.77743814,128,-32827,-2.367536708,1.106634272,15344,21248,4648.4375
-8.822061875,-122322,128,-233283,-16.82474993,128,-36723,-2.648522574,1.034079913,14338,21888,4667.96875
-8.827759484,-122401,128,-233047,-16.80772922,128,-36480,-2.630997018,1.03393567,14336,22528,4687.5
-8.770062181,-121601,128,-232537,-16.77094719,128,-32769,-2.363353653,1.0937245,15165,23168,4707.03125
-8.751454801,-121343,128,-232689,-16.78190968,128,-33009,-2.380662844,1.180558941,16369,23808,4726.5625
-8.709119404,-120756,128,-231614,-16.70437893,128,-35936,-2.591762852,1.111250056,15408,24448,4746.09375
-8.773451897,-121648,128,-231806,-16.71822628,128,-33277,-2.399991441,1.181496523,16382,25088,4765.625
-8.845140796,-122642,128,-232276,-16.75212345,128,-33780,-2.43626862,1.038407211,14398,25728,4785.15625
-8.843626242,-122621,128,-232163,-16.7439737,128,-36601,-2.639723735,1.052615172,14595,26368,4804.6875
-8.863820298,-122901,128,-232535,-16.77080295,128,-34336,-2.476368246,0.590748261,8191,27008,4824.21875
-8.90464114,-123467,128,-232728,-16.78472242,128,-33793,-2.437206201,0.553821987,7679,27648,4843.75
-8.884086476,-123182,128,-230924,-16.654615,128,-34564,-2.492811977,0.554110474,7683,28288,4863.28125
-7.164274116,-99336,128,-228529,-16.4818837,128,-6145,-0.443187409,1.203709984,16690,28928,4882.8125
-8.755709977,-121402,128,-233539,-16.84321306,128,-36867,-2.658908088,0.900582779,12487,29568,4902.34375
-8.762561531,-121497,128,-231820,-16.71923598,128,-36855,-2.658042629,1.03393567,14336,30208,4921.875
-8.737679569,-121152,128,-231198,-16.67437633,128,-33550,-2.419680645,1.177024982,16320,30848,4941.40625
-8.682073794,-120381,128,-230515,-16.62511726,128,-33795,-2.437350444,1.143632667,15857,31488,4960.9375
-8.651566345,-119958,128,-230286,-16.6086014,128,-32910,-2.373522803,1.096465122,15203,32128,4980.46875
-8.634112911,-119716,128,-230071,-16.59309525,128,-33527,-2.418021848,1.181352279,16380,32768,5000
-8.555211849,-118622,128,-229187,-16.52933973,128,-33021,-2.381528304,1.144714492,15872,33408,5019.53125
-8.48532599,-117653,128,-228644,-16.49017769,128,-8161,-0.588584612,1.114928259,15459,34048,5039.0625
-8.366036816,-115999,128,-227565,-16.41235845,128,-912,-0.065774925,1.181568644,16383,34688,5058.59375
-8.310286797,-115226,128,-227278,-16.39165954,128,-2032,-0.14655115,1.179549239,16355,35328,5078.125
-8.33920757,-115627,128,-227492,-16.40709357,128,-3076,-0.22184613,1.145219343,15879,35968,5097.65625
-8.496216356,-117804,128,-228773,-16.49948138,128,-3325,-0.239804416,1.042878752,14460,36608,5117.1875
-8.56898708,-118813,128,-229188,-16.52941186,128,-7937,-0.572429368,1.180703185,16371,37248,5136.71875
-8.682001672,-120380,128,-229925,-16.5825655,128,-33281,-2.400279927,1.03393567,14336,37888,5156.25
-8.696137511,-120576,128,-230151,-16.59886498,128,-33735,-2.433023147,1.03393567,14336,38528,5175.78125
-8.707316364,-120731,128,-230483,-16.62280937,128,-32784,-2.364435478,1.043311482,14466,39168,5195.3125
-8.683876834,-120406,128,-230079,-16.59367223,128,-33536,-2.418670943,1.038190846,14395,39808,5214.84375
-8.702772701,-120668,128,-230137,-16.59785528,128,-32769,-2.363353653,1.063866146,14751,40448,5234.375
-8.662023981,-120103,128,-230027,-16.5899219,128,-33289,-2.4008569,1.107211245,15352,41088,5253.90625
-8.673779806,-120266,128,-229912,-16.58162792,128,-32800,-2.365589424,1.075333485,14910,41728,5273.4375
-8.657624562,-120042,128,-229460,-16.54902894,128,-32884,-2.371647641,1.067832836,14806,42368,5292.96875
-8.689646565,-120486,128,-230144,-16.59836013,128,-33024,-2.381744669,1.043022995,14462,43008,5312.5
-8.715682473,-120847,128,-230432,-16.61913116,128,-32800,-2.365589424,1.180558941,16369,43648,5332.03125
-8.623294666,-119566,128,-229681,-16.56496782,128,-32785,-2.364507599,1.181568644,16383,44288,5351.5625
-8.613558246,-119431,128,-230011,-16.58876796,128,-32784,-2.364435478,1.159643669,16079,44928,5371.09375
-8.573242256,-118872,128,-228906,-16.50907356,128,-3642,-0.262666972,1.179332874,16352,45568,5390.625
-8.617669179,-119488,128,-228912,-16.50950629,128,-7952,-0.573511192,1.144570249,15870,46208,5410.15625
-8.714312162,-120828,128,-229824,-16.57528121,128,-33024,-2.381744669,1.03393567,14336,46848,5429.6875
-8.726140109,-120992,128,-229897,-16.58054609,128,-33281,-2.400279927,1.170101305,16224,47488,5449.21875
-8.72440919,-120968,128,-229936,-16.58335883,128,-32832,-2.367897316,1.172337076,16255,48128,5468.75
-8.753834814,-121376,128,-229499,-16.55184168,128,-32793,-2.365084572,1.179332874,16352,48768,5488.28125
-8.207874084,-113806,128,-226548,-16.33901076,128,-3313,-0.238938956,1.181496523,16382,49408,5507.8125
-7.041306739,-97631,128,-226671,-16.34788172,128,-29823,-2.150883335,0.011611582,161,50048,5527.34375
-8.742655962,-121221,128,-230504,-16.62432392,128,-33615,-2.424368551,1.033863549,14335,50688,5546.875
-8.649258453,-119926,128,-229455,-16.54866833,128,-32783,-2.364363356,1.173130414,16266,51328,5566.40625
-8.612187935,-119412,128,-228816,-16.50258261,128,-8192,-0.590820383,1.135482923,15744,51968,5585.9375
-8.558024592,-118661,128,-228255,-16.46212238,128,-2952,-0.212903048,1.107788218,15360,52608,5605.46875
-8.550451821,-118556,128,-228398,-16.47243577,128,-4096,-0.295410191,1.052254564,14590,53248,5625
-8.443279081,-117070,128,-227349,-16.39678018,128,-2053,-0.148065704,1.14817633,15920,53888,5644.53125
-8.416017105,-116692,128,-227017,-16.3728358,128,-32257,-2.326427379,1.108293069,15367,54528,5664.0625
-8.289083038,-114932,128,-225735,-16.28037587,128,-961,-0.069308885,1.153369087,15992,55168,5683.59375
-8.203618908,-113747,128,-225169,-16.23955503,128,-4089,-0.29490534,0.064620979,896,55808,5703.125
-8.202537084,-113732,128,-225646,-16.27395705,128,-2,-1.44E-04,0.073780426,1023,56448,5722.65625
-8.225183275,-114046,128,-225637,-16.27330795,128,-1,-7.21E-05,0.018318894,254,57088,5742.1875
-8.300478256,-115090,128,-226051,-16.30316631,128,-1,-7.21E-05,1.149258155,15935,57728,5761.71875
-8.476166544,-117526,128,-227215,-16.38711588,128,-2024,-0.145974177,1.124520436,15592,58368,5781.25
-8.527228657,-118234,128,-227759,-16.42635005,128,-48,-0.003461838,1.071366795,14855,59008,5800.78125
-8.530257765,-118276,128,-227248,-16.3894959,128,-5008,-0.361185117,1.1167313,15484,59648,5820.3125
-8.54908151,-118537,128,-227982,-16.44243317,128,-208,-0.015001299,1.051749712,14583,60288,5839.84375
-8.540859645,-118423,128,-227827,-16.43125432,128,-6385,-0.4604966,1.043095117,14463,60928,5859.375
-8.535811131,-118353,128,-227931,-16.43875497,128,-544,-0.039234166,1.110600962,15399,61568,5878.90625
-8.543888753,-118465,128,-228306,-16.46580058,128,-4082,-0.294400489,1.054634578,14623,62208,5898.4375
-8.506241263,-117943,128,-227622,-16.41646939,128,-257,-0.018535259,1.177674076,16329,62848,5917.96875
-8.526363197,-118222,128,-227674,-16.42021971,128,-345,-0.024881962,1.093003284,15155,63488,5937.5
-8.531195346,-118289,128,-228029,-16.44582289,128,-3775,-0.272259149,1.052326685,14591,64128,5957.03125
-8.527084413,-118232,128,-227944,-16.43969255,128,-7720,-0.556778974,1.070861944,14848,64768,5976.5625
-8.372311398,-116086,128,-226482,-16.33425073,128,-33,-0.002380014,1.115721597,15470,65408,5996.09375
-8.370724722,-116064,128,-226745,-16.35321872,128,-5135,-0.370344564,1.082401405,15008,512,6015.625
-8.409093429,-116596,128,-226611,-16.34355442,128,-1824,-0.131549851,1.034224157,14340,1152,6035.15625
-8.524992886,-118203,128,-227364,-16.397862,128,-2084,-0.150301474,1.038551454,14400,1792,6054.6875
-8.547422713,-118514,128,-227749,-16.42562883,128,-417,-0.030074719,1.05340851,14606,2432,6074.21875
-8.56812162,-118801,128,-228130,-16.45310717,128,-3873,-0.279327068,1.181568644,16383,3072,6093.75
-8.600648475,-119252,128,-228584,-16.48585039,128,-2048,-0.147705096,1.145579951,15884,3712,6113.28125
-8.637142019,-119758,128,-227967,-16.44135135,128,-1023,-0.073780426,1.148320573,15922,4352,6132.8125
-7.367080136,-102148,128,-224536,-16.19390204,128,-32516,-2.345106881,2.086262356,28927,4992,6152.34375
-7.572915265,-105002,128,-227639,-16.41769545,128,-31807,-2.293972646,0.977897165,13559,5632,6171.875
-8.616659476,-119474,128,-229352,-16.5412398,128,-4088,-0.294833218,1.178106806,16335,6272,6191.40625
-8.539705698,-118407,128,-228484,-16.47863823,128,-4084,-0.294544732,1.061414011,14717,6912,6210.9375
-8.52117044,-118150,128,-228209,-16.45880478,128,-7161,-0.516462984,1.038190846,14395,7552,6230.46875
-8.479628382,-117574,128,-227744,-16.42526822,128,-3104,-0.223865536,1.181280158,16379,8192,6250
-8.445514851,-117101,128,-227714,-16.42310458,128,-386,-0.027838949,1.162240048,16115,8832,6269.53125
-8.419406822,-116739,128,-227671,-16.42000335,128,-2311,-0.166673084,1.181568644,16383,9472,6289.0625
-8.344544571,-115701,128,-227245,-16.38927953,128,-2047,-0.147632974,1.107571853,15357,10112,6308.59375
-8.281798754,-114831,128,-226817,-16.35841147,128,-2033,-0.146623271,1.18048682,16368,10752,6328.125
-8.222659018,-114011,128,-226592,-16.34218411,128,-385,-0.027766827,0.002380014,33,11392,6347.65625
-8.208811666,-113819,128,-226514,-16.33655862,128,-114,-0.008221866,0.062385209,865,12032,6367.1875
-8.339135449,-115626,128,-227606,-16.41531544,128,-2306,-0.166312476,1.114639773,15455,12672,6386.71875
-8.49152845,-117739,128,-228878,-16.50705415,128,-3590,-0.258916647,1.109302772,15381,13312,6406.25
-8.527228657,-118234,128,-228726,-16.49609166,128,-3456,-0.249252349,1.089541446,15107,13952,6425.78125
-8.528166238,-118247,128,-229120,-16.52450759,128,-4096,-0.295410191,1.144714492,15872,14592,6445.3125
-8.54908151,-118537,128,-229154,-16.52695972,128,-1009,-0.072770723,1.035161738,14353,15232,6464.84375
-8.542518442,-118446,128,-229199,-16.53020519,128,-3856,-0.278101001,1.061269767,14715,15872,6484.375
-8.538191144,-118386,128,-228983,-16.51462692,128,-2040,-0.147128123,1.108293069,15367,16512,6503.90625
-8.527733508,-118241,128,-229108,-16.52364213,128,-3840,-0.276947054,1.091560852,15135,17152,6523.4375
-8.537902658,-118382,128,-228953,-16.51246327,128,-1629,-0.117486133,1.061630376,14720,17792,6542.96875
-8.548071807,-118523,128,-229210,-16.53099853,128,-4048,-0.291948353,1.034440522,14343,18432,6562.5
-8.530257765,-118276,128,-228936,-16.51123721,128,-4048,-0.291948353,1.034440522,14343,19072,6582.03125
-8.471911367,-117467,156,-228742,-16.49724561,128,-65536,-4.726563063,0.00223577,31,20352,6621.09375
-8.429359606,-116877,128,-228672,-16.4921971,128,-3316,-0.239155321,1.162889142,16124,20992,6640.625
-8.454962785,-117232,128,-228682,-16.49291831,128,-4084,-0.294544732,1.181568644,16383,21632,6660.15625
-8.490735113,-117728,128,-228368,-16.47027212,128,-4080,-0.294256245,1.165269156,16157,22272,6679.6875
-8.582834432,-119005,128,-229184,-16.52912337,128,-4096,-0.295410191,1.17695286,16319,22912,6699.21875
-8.58802719,-119077,128,-229410,-16.54542286,128,-3903,-0.281490717,1.16411521,16141,23552,6718.75
-8.571367093,-118846,128,-229131,-16.52530092,128,-32773,-2.36364214,1.17471709,16288,24192,6738.28125
-8.625818923,-119601,128,-228970,-16.51368934,128,-4032,-0.290794407,1.181568644,16383,24832,6757.8125
-8.566895553,-118784,128,-227998,-16.44358712,128,-7183,-0.518049659,1.162023683,16112,25472,6777.34375
-7.27822629,-100916,128,-225169,-16.23955503,128,-32672,-2.356357855,0.286971961,3979,26112,6796.875
-8.561125822,-118704,128,-230552,-16.62778576,128,-13,-9.38E-04,0.890846359,12352,26752,6816.40625
-8.566030093,-118772,128,-228954,-16.51253539,128,-33289,-2.4008569,1.179260752,16351,27392,6835.9375
-8.465781029,-117382,128,-228254,-16.46205025,128,-4096,-0.295410191,1.17695286,16319,28032,6855.46875
-8.503500641,-117905,128,-228633,-16.48938435,128,-4096,-0.295410191,1.108004583,15363,28672,6875
-8.42863839,-116867,128,-227689,-16.42130153,128,-2049,-0.147777217,1.163177629,16128,29312,6894.53125
-8.422796538,-116786,128,-227922,-16.43810587,128,-788,-0.056831843,1.164331575,16144,29952,6914.0625
-8.354857964,-115844,128,-227316,-16.39440017,128,-1024,-0.073852548,1.103677285,15303,30592,6933.59375
-8.301848567,-115109,128,-226874,-16.36252241,128,-2039,-0.147056001,1.181063793,16376,31232,6953.125
-8.205061341,-113767,128,-226119,-16.30807058,128,-7,-5.05E-04,0.004543663,63,31872,6972.65625
-8.112962021,-112490,128,-225399,-16.256143,128,-13,-9.38E-04,0.088493239,1227,32512,6992.1875
-8.138709442,-112847,128,-225890,-16.29155472,128,-32705,-2.358737869,0.149868745,2078,33152,7011.71875
-8.306464351,-115173,128,-227531,-16.40990632,128,-1532,-0.110490335,0.064548858,895,33792,7031.25
-8.361132546,-115931,128,-227519,-16.40904086,128,-8,-5.77E-04,1.145579951,15884,34432,7050.78125
-8.466358002,-117390,128,-228477,-16.47813338,128,-2176,-0.156936664,1.145219343,15879,35072,7070.3125
-8.475445327,-117516,128,-228346,-16.46868544,128,-2553,-0.184126518,1.172625562,16259,35712,7089.84375
-8.499317586,-117847,128,-228267,-16.46298784,128,-4065,-0.293174421,1.102595461,15288,36352,7109.375
-8.472632584,-117477,128,-228424,-16.47431093,128,-4094,-0.295265948,1.164187332,16142,36992,7128.90625
-8.459217961,-117291,128,-228222,-16.45974236,128,-3704,-0.267138513,1.148753303,15928,37632,7148.4375
-8.454962785,-117232,128,-228109,-16.45159262,128,-2142,-0.154484529,1.148753303,15928,38272,7167.96875
-8.440033607,-117025,128,-228188,-16.45729023,128,-3065,-0.221052792,1.146950262,15903,38912,7187.5
-8.404549766,-116533,128,-227708,-16.42267185,128,-2559,-0.184559248,1.035955076,14364,39552,7207.03125
-8.420993497,-116761,128,-227820,-16.43074947,128,-2176,-0.156936664,1.037397508,14384,40192,7226.5625
-8.466502245,-117392,128,-228219,-16.459526,128,-3068,-0.221269157,1.144137519,15864,40832,7246.09375
-8.407867361,-116579,128,-227761,-16.42649429,128,-977,-0.070462831,1.179260752,16351,41472,7265.625
-8.37108533,-116069,128,-227865,-16.43399494,128,-2285,-0.164797922,1.038190846,14395,42112,7285.15625
-8.343318503,-115684,128,-227742,-16.42512398,128,-2300,-0.165879746,1.158633966,16065,42752,7304.6875
-8.346780341,-115732,128,-226935,-16.36692183,128,-1024,-0.073852548,1.179332874,16352,43392,7324.21875
-8.488932072,-117703,128,-228449,-16.47611397,128,-2064,-0.148859042,1.149258155,15935,44032,7343.75
-8.480349598,-117584,128,-228056,-16.44777017,128,-3088,-0.22271159,1.153224844,15990,44672,7363.28125
-8.508260668,-117971,128,-228532,-16.48210007,128,-3161,-0.227976469,1.061630376,14720,45312,7382.8125
-8.484244166,-117638,128,-228096,-16.45065504,128,-3189,-0.229995874,1.16368248,16135,45952,7402.34375
-8.6327426,-119697,128,-227581,-16.4135124,128,-2173,-0.156720299,1.110312475,15395,46592,7421.875
-7.277000222,-100899,128,-223484,-16.11803009,128,-31496,-2.27154282,1.183371685,16408,47232,7441.40625
-7.528560463,-104387,128,-227184,-16.38488011,128,-32760,-2.362704559,0.128664986,1784,47872,7460.9375
-8.475373206,-117515,128,-228758,-16.49839956,128,-2048,-0.147705096,1.037613873,14387,48512,7480.46875
-8.407795239,-116578,128,-227734,-16.42454701,128,-3073,-0.221629765,1.116947665,15487,49152,7500
-8.403107334,-116513,128,-227822,-16.43089371,128,-2562,-0.184775613,1.038262968,14396,49792,7519.53125
-8.357165856,-115876,128,-227071,-16.37673037,128,-247,-0.017814042,1.067111619,14796,50432,7539.0625
-8.338414233,-115616,128,-227244,-16.38920741,128,-1984,-0.143089311,1.16764917,16190,51072,7558.59375
-8.293626701,-114995,128,-226927,-16.36634485,128,-1,-7.21E-05,1.106634272,15344,51712,7578.125
-8.250137359,-114392,128,-226452,-16.33208708,128,-1026,-0.073996791,0,0,52352,7597.65625
-8.128973023,-112712,128,-225576,-16.26890853,128,-449,-0.032382611,0.074718007,1036,52992,7617.1875
-8.093056451,-112214,128,-225597,-16.27042309,128,-16,-0.001153946,0.148209947,2055,53632,7636.71875
-8.04740346,-111581,128,-225034,-16.22981861,128,-31833,-2.295847809,0.260719688,3615,54272,7656.25
-8.172029635,-113309,128,-226301,-16.32119671,128,-32513,-2.344890516,0.156648178,2172,54912,7675.78125
-8.328172961,-115474,128,-227139,-16.38163464,128,-412,-0.029714111,1.180631063,16370,55552,7695.3125
-8.380028412,-116193,128,-227951,-16.4401974,128,-256,-0.018463137,1.052326685,14591,56192,7714.84375
-8.410175253,-116611,128,-228126,-16.45281869,128,-2464,-0.177707693,1.038479333,14399,56832,7734.375
-8.463761623,-117354,128,-228664,-16.49162012,128,-3279,-0.236486821,1.148753303,15928,57472,7753.90625
-8.449842149,-117161,128,-228583,-16.48577827,128,-3108,-0.224154022,1.158633966,16065,58112,7773.4375
-8.444505148,-117087,128,-228674,-16.49234134,128,-2557,-0.184415005,1.181063793,16376,58752,7792.96875
-8.415295889,-116682,128,-228208,-16.45873266,128,-3064,-0.220980671,1.181063793,16376,59392,7812.5
-8.394669103,-116396,128,-228183,-16.45692962,128,-4033,-0.290866529,1.108004583,15363,60032,7832.03125
-8.404621888,-116534,128,-228275,-16.46356481,128,-2173,-0.156720299,1.038479333,14399,60672,7851.5625
-8.417026808,-116706,128,-228601,-16.48707646,128,-3193,-0.230284361,1.036099319,14366,61312,7871.09375
-8.463040407,-117344,128,-229198,-16.53013307,128,-3088,-0.22271159,1.036171441,14367,61952,7890.625
-8.386952089,-116289,128,-228618,-16.48830253,128,-3982,-0.287188326,1.036171441,14367,62592,7910.15625
-8.299684918,-115079,128,-228132,-16.45325142,128,-3841,-0.277019176,1.172409197,16256,63232,7929.6875
-8.307041324,-115181,128,-227819,-16.43067735,128,-830,-0.059860952,1.172337076,16255,63872,7949.21875
-8.372455641,-116088,128,-228046,-16.44704896,128,-8,-5.77E-04,1.163177629,16128,64512,7968.75
-8.447390014,-117127,128,-228709,-16.4948656,128,-1017,-0.073347696,1.037974481,14392,65152,7988.28125
-8.483739315,-117631,128,-229036,-16.51844937,128,-3653,-0.26346031,1.148753303,15928,256,8007.8125
-8.469964083,-117440,128,-228476,-16.47806126,128,-3633,-0.262017877,1.108653678,15372,896,8027.34375
-8.468954381,-117426,128,-228978,-16.51426631,128,-3709,-0.267499121,1.163321872,16130,1536,8046.875
-8.491744815,-117742,128,-228268,-16.46305996,128,-3293,-0.237496524,1.181568644,16383,2176,8066.40625
-7.176174185,-99501,128,-223891,-16.14738359,128,-32576,-2.349434179,1.182145617,16391,2816,8085.9375
-8.496649086,-117810,128,-230577,-16.6295888,128,-509,-0.036709909,0.89135121,12359,3456,8105.46875
-8.468810137,-117424,128,-229451,-16.54837984,128,-32833,-2.367969438,1.098989379,15238,4096,8125
-8.42907112,-116873,128,-228643,-16.49010557,128,-3073,-0.221629765,1.181496523,16382,4736,8144.53125
-8.387096332,-116291,128,-228116,-16.45209747,128,-3073,-0.221629765,1.126179233,15615,5376,8164.0625
-8.392000603,-116359,128,-228188,-16.45729023,128,-2842,-0.204969669,1.054201848,14617,6016,8183.59375
-8.335817854,-115580,128,-228026,-16.44560652,128,-2240,-0.161552448,1.107499731,15356,6656,8203.125
-8.313099541,-115265,128,-227763,-16.42663853,128,-385,-0.027766827,1.181568644,16383,7296,8222.65625
-8.221649316,-113997,128,-227044,-16.37478308,128,-1,-7.21E-05,0.002163649,30,7936,8242.1875
-8.134526388,-112789,128,-226434,-16.33078889,128,-1600,-0.115394606,0.073852548,1024,8576,8261.71875
-8.069472679,-111887,128,-225813,-16.28600136,128,-32705,-2.358737869,0.221485522,3071,9216,8281.25
-8.100989831,-112324,128,-226440,-16.33122162,128,-109,-0.007861258,0.18686714,2591,9856,8300.78125
-8.260234387,-114532,128,-227862,-16.43377858,128,-1985,-0.143161433,0.002812744,39,10496,8320.3125
-8.328172961,-115474,128,-228296,-16.46507936,128,-1021,-0.073636183,1.172481319,16257,11136,8339.84375
-8.41580074,-116689,128,-228845,-16.50467414,128,-4065,-0.293174421,1.034440522,14343,11776,8359.375
-8.45784765,-117272,128,-229176,-16.5285464,128,-32800,-2.365589424,1.149330276,15936,12416,8378.90625
-8.480782328,-117590,128,-229651,-16.56280417,128,-33049,-2.383547709,1.126107112,15614,13056,8398.4375
-8.469747719,-117437,128,-229339,-16.54030222,128,-32848,-2.369051262,1.18048682,16368,13696,8417.96875
-8.46138161,-117321,128,-229546,-16.5552314,128,-33073,-2.385278629,1.126107112,15614,14336,8437.5
-8.454385812,-117224,128,-229602,-16.55927021,128,-4066,-0.293246543,1.171904346,16249,14976,8457.03125
-8.468161043,-117415,128,-229732,-16.56864602,128,-33039,-2.382826493,1.141180532,15823,15616,8476.5625
-8.433470539,-116934,128,-229164,-16.52768094,128,-3874,-0.27939919,1.167432805,16187,16256,8496.09375
-8.493908464,-117772,128,-229834,-16.57600243,128,-32866,-2.370349451,1.163177629,16128,16896,8515.625
-8.439384513,-117016,128,-229003,-16.51606935,128,-7824,-0.564279624,1.144714492,15872,17536,8535.15625
-8.439456634,-117017,128,-229274,-16.53561432,128,-4093,-0.295193827,1.164620061,16148,18176,8554.6875
-8.40339582,-116517,128,-229632,-16.56143386,128,-32771,-2.363497897,1.178106806,16335,18816,8574.21875
-8.395967292,-116414,128,-229144,-16.5262385,128,-3842,-0.277091298,1.107716096,15359,19456,8593.75
-8.417243173,-116709,128,-228937,-16.51130933,128,-3651,-0.263316067,1.035594468,14359,20096,8613.28125
-8.526291076,-118221,128,-229801,-16.57362241,128,-33280,-2.400207806,1.037397508,14384,20736,8632.8125
-8.531916563,-118299,128,-229627,-16.56107325,128,-33024,-2.381744669,1.111827029,15416,21376,8652.34375
-8.543672388,-118462,128,-229711,-16.56713147,128,-32783,-2.364363356,1.034152035,14339,22016,8671.875
-8.523117724,-118177,128,-229627,-16.56107325,128,-32800,-2.365589424,1.089469324,15106,22656,8691.40625
-8.662240346,-120106,128,-229406,-16.54513437,128,-32800,-2.365589424,1.17918863,16350,23296,8710.9375
-6.935720674,-96167,128,-227228,-16.38805346,128,-32704,-2.358665747,1.156181831,16031,23936,8730.46875
-8.251651913,-114413,128,-231450,-16.69255098,128,-31753,-2.290078079,1.170101305,16224,24576,8750
-8.529536549,-118266,128,-231197,-16.67430421,128,-33768,-2.435403161,1.18048682,16368,25216,8769.53125
-8.505375803,-117931,128,-230981,-16.65872594,128,-33777,-2.436052255,1.075261363,14909,25856,8789.0625
-8.458208258,-117277,128,-230387,-16.61588569,128,-33265,-2.399125981,1.179404995,16353,26496,8808.59375
-8.448832446,-117147,128,-230549,-16.62756939,128,-32871,-2.370710059,1.153873939,15999,27136,8828.125
-8.427340201,-116849,128,-230534,-16.62648757,128,-32774,-2.363714261,1.173491022,16271,27776,8847.65625
-8.345482152,-115714,128,-229546,-16.5552314,128,-33280,-2.400207806,1.098773014,15235,28416,8867.1875
-8.273072037,-114710,128,-229231,-16.53251309,128,-4095,-0.29533807,1.179477117,16354,29056,8886.71875
-8.197127962,-113657,128,-228673,-16.49226922,128,-3084,-0.222423103,0.001875162,26,29696,8906.25
-8.130920307,-112739,128,-228350,-16.46897393,128,-1,-7.21E-05,0.128664986,1784,30336,8925.78125
-8.135031239,-112796,128,-228191,-16.45750659,128,-2431,-0.17532768,0.063467033,880,30976,8945.3125
-8.281149659,-114822,128,-229827,-16.57549758,128,-2048,-0.147705096,9.38E-04,13,31616,8964.84375
-8.397986698,-116442,128,-230776,-16.643941,128,-32884,-2.371647641,1.036243562,14368,32256,8984.375
-8.448688203,-117145,128,-230891,-16.65223499,128,-33224,-2.396168994,1.165413399,16159,32896,9003.90625
-8.443711811,-117076,128,-230381,-16.61545296,128,-33277,-2.399991441,1.180198333,16364,33536,9023.4375
-8.45784765,-117272,128,-230892,-16.65230711,128,-33788,-2.436845593,1.167288562,16185,34176,9042.96875
-8.41846924,-116726,128,-230263,-16.60694261,128,-33247,-2.397827792,1.181496523,16382,34816,9062.5
-8.41536801,-116683,128,-230070,-16.59302313,128,-32769,-2.363353653,1.040787225,14431,35456,9082.03125
-8.389981197,-116331,128,-229885,-16.57968063,128,-33210,-2.395159292,1.03393567,14336,36096,9101.5625
-8.375340506,-116128,128,-229574,-16.5572508,128,-32776,-2.363858505,1.089325081,15104,36736,9121.09375
-8.388106035,-116305,128,-229674,-16.56446297,128,-8185,-0.590315532,1.089252959,15103,37376,9140.625
-8.363296194,-115961,128,-229406,-16.54513437,128,-32800,-2.365589424,1.089541446,15107,38016,9160.15625
-8.33120207,-115516,128,-229224,-16.53200823,128,-32963,-2.377345249,1.089902054,15112,38656,9179.6875
-8.270836266,-114679,128,-228645,-16.49024981,128,-3845,-0.277307663,0,0,39296,9199.21875
-8.270475658,-114674,128,-228590,-16.48628312,128,-3970,-0.286322866,1.179837725,16359,39936,9218.75
-8.274658713,-114732,128,-228024,-16.44546228,128,-1056,-0.07616044,0.004110933,57,40576,9238.28125
-8.341587584,-115660,128,-228631,-16.48924011,128,-4035,-0.291010772,1.149258155,15935,41216,9257.8125
-8.347068828,-115736,128,-228202,-16.45829993,128,-2049,-0.147777217,1.144714492,15872,41856,9277.34375
-8.351251882,-115794,128,-228462,-16.47705155,128,-104,-0.007500649,1.069563755,14830,42496,9296.875
-8.379379318,-116184,128,-228628,-16.48902374,128,-3316,-0.239155321,1.061918862,14724,43136,9316.40625
-8.433542661,-116935,128,-227429,-16.40254991,128,-33,-0.002380014,1.16721644,16184,43776,9335.9375
-6.708681787,-93019,128,-225165,-16.23926654,128,-32708,-2.358954234,1.181280158,16379,44416,9355.46875
-8.031753067,-111364,128,-229170,-16.52811367,128,-505,-0.036421423,0.018391015,255,45056,9375
-8.325288096,-115434,128,-228632,-16.48931223,128,-1023,-0.073780426,1.09855665,15232,45696,9394.53125
-8.272855672,-114707,128,-227969,-16.44149559,128,-3085,-0.222495225,1.17695286,16319,46336,9414.0625
-8.266076239,-114613,128,-228074,-16.44906836,128,-1021,-0.073636183,0,0,46976,9433.59375
-8.249416143,-114382,128,-227904,-16.43680768,128,-1011,-0.072914967,0.041542058,576,47616,9453.125
-8.214581396,-113899,128,-227337,-16.39591472,128,-1,-7.21E-05,0.066135534,917,48256,9472.65625
-8.15363862,-113054,128,-226852,-16.36093573,128,-144,-0.010385515,0.073708305,1022,48896,9492.1875
-8.107913507,-112420,128,-226544,-16.33872227,128,-32768,-2.363281532,0.156792421,2174,49536,9511.71875
-7.98141217,-110666,128,-225502,-16.26357153,128,-32705,-2.358737869,0.286467109,3972,50176,9531.25
-7.941456788,-110112,128,-225709,-16.27850071,128,-30726,-2.216009166,0.445423179,6176,50816,9550.78125
-7.94643318,-110181,128,-225204,-16.24207929,128,-32658,-2.355348153,0.479464588,6648,51456,9570.3125
-8.087791573,-112141,128,-226717,-16.35119931,128,-32753,-2.362199707,0.229635266,3184,52096,9589.84375
-8.195324921,-113632,128,-227473,-16.40572326,128,-31873,-2.298732674,0.002307892,32,52736,9609.375
-8.297881877,-115054,128,-228299,-16.46529573,128,-61,-0.004399419,7.21E-05,1,53376,9628.90625
-8.30906073,-115209,128,-227817,-16.4305331,128,-3321,-0.239515929,1.14464237,15871,54016,9648.4375
-8.307834662,-115192,128,-228112,-16.45180898,128,-1024,-0.073852548,1.181496523,16382,54656,9667.96875
-8.333726327,-115551,128,-228638,-16.48974496,128,-3458,-0.249396592,1.11009611,15392,55296,9687.5
-8.325432339,-115436,128,-228197,-16.45793932,128,-3073,-0.221629765,1.154162425,16003,55936,9707.03125
-8.307690419,-115190,128,-228157,-16.45505446,128,-193,-0.013919474,1.146878141,15902,56576,9726.5625
-8.252589494,-114426,128,-227332,-16.39555411,128,-32768,-2.363281532,0.032526855,451,57216,9746.09375
-8.282447849,-114840,128,-227807,-16.42981189,128,-2176,-0.156936664,1.180703185,16371,57856,9765.625
-8.292977606,-114986,128,-227796,-16.42901855,128,-466,-0.033608679,1.160725494,16094,58496,9785.15625
-8.189483069,-113551,128,-227539,-16.41048329,128,-4023,-0.290145313,0.001658797,23,59136,9804.6875
-8.180323622,-113424,128,-228150,-16.45454961,128,-24,-0.001730919,0.008654595,120,59776,9824.21875
-8.228789357,-114096,128,-226921,-16.36591212,128,-2993,-0.215860035,0.035772328,496,60416,9843.75
-8.322619596,-115397,128,-227576,-16.41315179,128,-32719,-2.359747572,7.21E-05,1,61056,9863.28125
-8.367407127,-116018,128,-228705,-16.49457711,128,-3425,-0.247016579,1.071294674,14854,61696,9882.8125
-8.402386117,-116503,128,-228904,-16.50892931,128,-3841,-0.277019176,1.070789822,14847,62336,9902.34375
-8.404982496,-116539,128,-229249,-16.53381128,128,-1921,-0.138545649,1.034440522,14343,62976,9921.875
-8.569924661,-118826,128,-229056,-16.5198918,128,-33024,-2.381744669,1.163177629,16128,63616,9941.40625
-7.910805096,-109687,128,-226562,-16.34002046,128,-1,-7.21E-05,1.246838718,17288,64256,9960.9375
-7.468122538,-103549,128,-227560,-16.41199784,128,-28680,-2.068448313,0.534349148,7409,64896,9980.46875
-8.443206959,-117069,128,-229644,-16.56229932,128,-33252,-2.3981884,1.145868438,15888,0,10000
-8.332139651,-115529,128,-228361,-16.46976727,128,-3073,-0.221629765,1.181568644,16383,640,10019.53125
-8.287784849,-114914,128,-226960,-16.36872487,128,-8,-5.77E-04,1.171111008,16238,1280,10039.0625
-8.302064932,-115112,128,-227560,-16.41199784,128,-100,-0.007212163,1.167793413,16192,1920,10058.59375
-8.259080441,-114516,128,-227465,-16.40514629,128,-2289,-0.165086408,2.16E-04,3,2560,10078.125
-8.239823966,-114249,128,-227114,-16.3798316,128,-32761,-2.36277668,0.00973642,135,3200,10097.65625
-8.150609511,-113012,128,-226269,-16.31888882,128,-32755,-2.362343951,0.083011995,1151,3840,10117.1875
-8.084618221,-112097,128,-225438,-16.25895575,128,-32,-0.002307892,0.221485522,3071,4480,10136.71875
-7.983070968,-110689,128,-224872,-16.21813491,128,-129,-0.00930369,0.226173428,3136,5120,10156.25
-7.980907319,-110659,128,-224806,-16.21337488,128,-32258,-2.326499501,0.288414393,3999,5760,10175.78125
-8.025622729,-111279,128,-225057,-16.23147741,128,-32545,-2.347198409,0.257329971,3568,6400,10195.3125
-8.212057139,-113864,128,-227181,-16.38466375,128,-1329,-0.095849645,0.133785621,1855,7040,10214.84375
-8.322331109,-115393,128,-227736,-16.42469125,128,-224,-0.016155245,1.165413399,16159,7680,10234.375
-8.372022912,-116082,128,-227976,-16.44200044,128,-767,-0.055317289,1.052326685,14591,8320,10253.90625
-8.392216968,-116362,128,-227936,-16.43911558,128,-769,-0.055461533,1.070212849,14839,8960,10273.4375
-8.392000603,-116359,128,-228146,-16.45426112,128,-32765,-2.363065167,1.070573458,14844,9600,10292.96875
-8.38125448,-116210,128,-228169,-16.45591992,128,-3841,-0.277019176,1.090334784,15118,10240,10312.5
-8.360771937,-115926,128,-227863,-16.4338507,128,-544,-0.039234166,1.068770417,14819,10880,10332.03125
-8.377792642,-116162,128,-228072,-16.44892412,128,-241,-0.017381313,1.050018793,14559,11520,10351.5625
-8.357382221,-115879,128,-227934,-16.43897133,128,-4094,-0.295265948,1.16498067,16153,12160,10371.09375
-8.351756734,-115801,128,-227897,-16.43630283,128,-2161,-0.15585484,1.108220948,15366,12800,10390.625
-8.335385124,-115574,128,-227785,-16.42822521,128,-2273,-0.163932462,1.159643669,16079,13440,10410.15625
-8.255185873,-114462,128,-227427,-16.40240567,128,-49,-0.00353396,0,0,14080,10429.6875
-8.270259293,-114671,128,-227484,-16.4065166,128,-2180,-0.157225151,0.002019406,28,14720,10449.21875
-8.31216196,-115252,128,-227057,-16.37572066,128,-32,-0.002307892,0.02791107,387,15360,10468.75
-8.337548773,-115604,128,-226860,-16.3615127,128,-33,-0.002380014,1.164187332,16142,16000,10488.28125
-8.378297493,-116169,128,-227557,-16.41178148,128,-225,-0.016227366,1.03790236,14391,16640,10507.8125
-8.415223767,-116681,128,-227911,-16.43731254,128,-3816,-0.275216135,1.035666589,14360,17280,10527.34375
-8.39719336,-116431,128,-227680,-16.42065244,128,-72,-0.005192757,1.03393567,14336,17920,10546.875
-8.536820833,-118367,128,-227424,-16.4021893,128,-3131,-0.22581282,1.107716096,15359,18560,10566.40625
-7.563683696,-104874,128,-223531,-16.1214198,128,-32768,-2.363281532,1.841914277,25539,19200,10585.9375
-8.039686446,-111474,128,-227954,-16.44041377,128,-28610,-2.063399799,0.145397204,2016,19840,10605.46875
-8.390053319,-116332,128,-228053,-16.44755381,128,-215,-0.01550615,1.108293069,15367,20480,10625
-8.333149354,-115543,128,-227597,-16.41466634,128,-1,-7.21E-05,1.17652013,16313,21120,10644.53125
-8.302714026,-115121,128,-226784,-16.35603146,128,-256,-0.018463137,1.150412101,15951,21760,10664.0625
-8.2829527,-114847,128,-226729,-16.35206477,128,-481,-0.034690503,1.179404995,16353,22400,10683.59375
-8.268023523,-114640,128,-226471,-16.33345739,128,-17,-0.001226068,1.172409197,16256,23040,10703.125
-8.226769951,-114068,128,-225258,-16.24597385,128,-32766,-2.363137288,0.036926274,512,23680,10722.65625
-8.125006333,-112657,128,-226444,-16.33151011,128,-16,-0.001153946,0.072698602,1008,24320,10742.1875
-8.060457475,-111762,128,-225229,-16.24388233,128,-32705,-2.358737869,0.284952555,3951,24960,10761.71875
-7.985811589,-110727,128,-224550,-16.19491174,128,-32764,-2.362993045,0.260431202,3611,25600,10781.25
-7.974416372,-110569,128,-223844,-16.14399387,128,-32768,-2.363281532,0.517472686,7175,26240,10800.78125
-8.047042852,-111576,128,-224621,-16.20003238,128,-32765,-2.363065167,0.224442509,3112,26880,10820.3125
-8.230159668,-114115,128,-225747,-16.28124133,128,-480,-0.034618382,0.008077622,112,27520,10839.84375
-8.318869271,-115345,128,-226544,-16.33872227,128,-31984,-2.306738175,1.133679883,15719,28160,10859.375
-8.366253181,-116002,128,-227260,-16.39036136,128,-449,-0.032382611,1.043383603,14467,28800,10878.90625
-8.344472449,-115700,128,-226799,-16.35711328,128,-32768,-2.363281532,1.107788218,15360,29440,10898.4375
-8.388250278,-116307,128,-227231,-16.38826983,128,-769,-0.055461533,1.037397508,14384,30080,10917.96875
-8.382047818,-116221,128,-227154,-16.38271646,128,-2034,-0.146695393,1.071078309,14851,30720,10937.5
-8.330841462,-115511,128,-226626,-16.34463624,128,-2018,-0.145541447,1.112404002,15424,31360,10957.03125
-8.306608594,-115175,128,-226097,-16.3064839,128,-817,-0.058923371,1.145579951,15884,32000,10976.5625
-8.295285499,-115018,128,-226217,-16.3151385,128,-189,-0.013630988,1.162167926,16114,32640,10996.09375
-8.328172961,-115474,128,-226415,-16.32941858,128,-16,-0.001153946,1.177024982,16320,33280,11015.625
-8.289010917,-114931,128,-226352,-16.32487492,128,-48,-0.003461838,1.181568644,16383,33920,11035.15625
-8.283313308,-114852,128,-226799,-16.35711328,128,-481,-0.034690503,2.16E-04,3,34560,11054.6875
-8.272062334,-114696,128,-226107,-16.30720512,128,-507,-0.036565666,1.181063793,16376,35200,11074.21875
-8.390053319,-116332,128,-226360,-16.32545189,128,-141,-0.01016915,1.097979676,15224,35840,11093.75
-8.426114133,-116832,128,-227165,-16.3835098,128,-991,-0.071472534,1.179332874,16352,36480,11113.28125
-8.46094888,-117315,128,-227507,-16.4081754,128,-2065,-0.148931163,1.176808617,16317,37120,11132.8125
-8.406857658,-116565,128,-226772,-16.355166,128,-32241,-2.325273433,1.046556955,14511,37760,11152.34375
-8.394596981,-116395,128,-225993,-16.29898325,128,-975,-0.070318588,1.067472228,14801,38400,11171.875
-8.102071655,-112339,128,-224840,-16.21582701,128,-1992,-0.143666285,1.075189242,14908,39040,11191.40625
-6.789530133,-94140,128,-223521,-16.12069859,128,-28545,-2.058711893,0.443403774,6148,39680,11210.9375
-8.527300778,-118235,128,-228794,-16.50099593,128,-484,-0.034906868,1.158561845,16064,40320,11230.46875
-8.390413927,-116337,128,-227132,-16.38112979,128,-512,-0.036926274,1.122717395,15567,40960,11250
-8.299829161,-115081,128,-225484,-16.26227334,128,-194,-0.013991596,1.163177629,16128,41600,11269.53125
-8.279707227,-114802,128,-225499,-16.26335517,128,-30913,-2.22949591,1.173491022,16271,42240,11289.0625
-8.309637703,-115217,128,-225636,-16.27323583,128,-30977,-2.234111695,1.181568644,16383,42880,11308.59375
-8.243718534,-114303,128,-225142,-16.23760775,128,-32764,-2.362993045,1.172481319,16257,43520,11328.125
-8.20015707,-113699,128,-224723,-16.20738878,128,-81,-0.005841852,0.073780426,1023,44160,11347.65625
-8.096157681,-112257,128,-223816,-16.14197447,128,-120,-0.008654595,0.146406906,2030,44800,11367.1875
-8.032474283,-111374,128,-223350,-16.10836579,128,-30722,-2.215720679,0.22581282,3131,45440,11386.71875
-7.938716166,-110074,128,-222492,-16.04648543,128,-32160,-2.319431581,0.55439896,7687,46080,11406.25
-7.999442577,-110916,128,-223002,-16.08326746,128,-26617,-1.919661393,0.262811215,3644,46720,11425.78125
-8.120606914,-112596,128,-224607,-16.19902267,128,-32639,-2.353977842,0.152032393,2108,47360,11445.3125
-8.258575589,-114509,128,-225430,-16.25837877,128,-30934,-2.231010465,0.003678203,51,48000,11464.84375
-8.312089838,-115251,128,-225434,-16.25866726,128,-129,-0.00930369,1.14464237,15871,48640,11484.375
-8.312883176,-115262,128,-225580,-16.26919702,128,-30721,-2.215648558,1.163249751,16129,49280,11503.90625
-8.333798448,-115552,128,-225788,-16.28419832,128,-28,-0.002019406,1.121058598,15544,49920,11523.4375
-8.348439139,-115755,128,-226117,-16.30792633,128,-32768,-2.363281532,1.179909847,16360,50560,11542.96875
-8.270331415,-114672,128,-224817,-16.21416822,128,-3889,-0.280481014,0.001730919,24,51200,11562.5
-8.245233088,-114324,128,-224792,-16.21236518,128,-32,-0.002307892,0.020771029,288,51840,11582.03125
-8.233982114,-114168,128,-224825,-16.21474519,128,-32513,-2.344890516,0.036926274,512,52480,11601.5625
-8.244728237,-114317,128,-224755,-16.20969668,128,-32768,-2.363281532,0.027334097,379,53120,11621.09375
-8.211047436,-113850,128,-224983,-16.22614041,128,-32669,-2.35614149,0.057697303,800,53760,11640.625
-8.203186179,-113741,128,-224929,-16.22224584,128,-32761,-2.36277668,0.072698602,1008,54400,11660.15625
-8.18111696,-113435,128,-224173,-16.16772189,128,-1796,-0.129530445,0.059716709,828,55040,11679.6875
-8.27588478,-114749,128,-224777,-16.21128335,128,-32257,-2.326427379,1.177241347,16323,55680,11699.21875
-8.313171662,-115266,128,-225196,-16.24150231,128,-32752,-2.362127586,1.176880738,16318,56320,11718.75
-8.298819458,-115067,128,-224922,-16.22174099,128,-193,-0.013919474,1.15394606,16000,56960,11738.28125
-8.271485361,-114688,128,-224736,-16.20832636,128,-32720,-2.359819694,0,0,57600,11757.8125
-8.309637703,-115217,128,-224459,-16.18834867,128,-1551,-0.111860646,1.111177935,15407,58240,11777.34375
-8.293554579,-114994,128,-224106,-16.16288974,128,-128,-0.009231568,1.180342577,16366,58880,11796.875
-6.55737061,-90921,128,-222238,-16.02816654,128,-32641,-2.354122085,0.29447261,4083,59520,11816.40625
-8.261099846,-114544,128,-226159,-16.31095544,128,-29667,-2.139632361,0.001153946,16,60160,11835.9375
-8.182703636,-113457,128,-224388,-16.18322804,128,-32575,-2.349362057,0.036782031,510,60800,11855.46875
-8.196478867,-113648,128,-224546,-16.19462326,128,-1,-7.21E-05,0.001730919,24,61440,11875
-8.153782863,-113056,128,-224121,-16.16397156,128,-31549,-2.275365266,0.129241959,1792,62080,11894.53125
-8.168567797,-113261,128,-224311,-16.17767467,128,-1,-7.21E-05,0.009447933,131,62720,11914.0625
-8.09832133,-112287,128,-223777,-16.13916172,128,-32289,-2.328735272,0.240020781,3328,63360,11933.59375
-8.061178692,-111772,128,-223431,-16.11420764,128,-31816,-2.294621741,0.276947054,3840,64000,11953.125
-7.959631438,-110364,128,-222747,-16.06487644,128,-30239,-2.180885933,0.53535885,7423,64640,11972.65625
-7.895154702,-109470,128,-222316,-16.03379202,128,-249,-0.017958286,0.58670945,8135,65280,11992.1875
-7.785890434,-107955,128,-221314,-15.96152615,128,-24770,-1.786452745,0.577045152,8001,384,12011.71875
-7.844164711,-108763,128,-221991,-16.01035249,128,-31156,-2.247021466,0.586132477,8127,1024,12031.25
-7.997134685,-110884,128,-223430,-16.11413552,128,-31997,-2.307675756,0.295265948,4094,1664,12050.78125
-8.126953617,-112684,128,-224453,-16.18791594,128,-31941,-2.303636945,0.013847353,192,2304,12070.3125
-8.172967216,-113322,128,-224460,-16.1884208,128,-32738,-2.361117883,5.05E-04,7,2944,12089.84375
-8.188112758,-113532,128,-224461,-16.18849292,128,-32269,-2.327292839,0,0,3584,12109.375
-8.201887989,-113723,128,-225016,-16.22852042,128,-32721,-2.359891815,0.008077622,112,4224,12128.90625
-8.19128611,-113576,128,-224766,-16.21049001,128,-31808,-2.294044768,0.006346703,88,4864,12148.4375
-8.134742753,-112792,128,-224479,-16.18979111,128,-1,-7.21E-05,0.065125831,903,5504,12167.96875
-8.137555496,-112831,128,-224432,-16.18640139,128,-31984,-2.306738175,0.069236764,960,6144,12187.5
-8.19171884,-113582,128,-224954,-16.22404888,128,-1977,-0.14258446,0.008077622,112,6784,12207.03125
-8.170947811,-113294,128,-224867,-16.2177743,128,-2020,-0.14568569,0.003606081,50,7424,12226.5625
-8.13726701,-112827,128,-224609,-16.19916692,128,-32767,-2.36320941,0.073564061,1020,8064,12246.09375
-8.090387951,-112177,128,-224812,-16.21380761,128,-32260,-2.326643744,0.161768813,2243,8704,12265.625
-8.095364344,-112246,128,-224462,-16.18856504,128,-32462,-2.341212313,0.22227886,3082,9344,12285.15625
-8.172318121,-113313,128,-224547,-16.19469538,128,-1023,-0.073780426,0.055677897,772,9984,12304.6875
-8.227635411,-114080,128,-224875,-16.21835127,128,-32768,-2.363281532,0,0,10624,12324.21875
-8.222659018,-114011,128,-225504,-16.26371578,128,-31748,-2.28971747,0.00930369,129,11264,12343.75
-8.229582695,-114107,128,-225069,-16.23234287,128,-32765,-2.363065167,0.044354802,615,11904,12363.28125
-8.270475658,-114674,128,-225527,-16.26537457,128,-31872,-2.298660552,0,0,12544,12382.8125
-8.045672541,-111557,128,-223189,-16.0967542,128,-1,-7.21E-05,1.185751699,16441,13184,12402.34375
-6.603744817,-91564,128,-220805,-15.92481624,128,-32263,-2.326860109,0.590748261,8191,13824,12421.875
-8.296439445,-115034,128,-226009,-16.3001372,128,-32352,-2.333278934,1.14860906,15926,14464,12441.40625
-8.205566192,-113774,128,-225292,-16.24842599,128,-28676,-2.068159827,0.065919169,914,15104,12460.9375
-8.134093658,-112783,128,-224077,-16.16079821,128,-32762,-2.362848802,0.127150432,1763,15744,12480.46875
-8.081733356,-112057,128,-223588,-16.12553073,128,-508,-0.036637787,0.221485522,3071,16384,12500
-8.096590411,-112263,128,-223809,-16.14146961,128,-32705,-2.358737869,0.149508136,2073,17024,12519.53125
-8.044446474,-111540,128,-223558,-16.12336709,128,-32518,-2.345251125,0.28473619,3948,17664,12539.0625
-7.999803185,-110921,128,-222806,-16.06913162,128,-30232,-2.180381081,0.29533807,4095,18304,12558.59375
-7.872003659,-109149,128,-221740,-15.99224996,128,-31241,-2.253151805,0.534853999,7416,18944,12578.125
-7.789640759,-108007,128,-220936,-15.93426418,128,-32520,-2.345395368,0.553894109,7680,19584,12597.65625
-7.748603552,-107438,128,-221059,-15.94313514,128,-32705,-2.358737869,0.586420964,8131,20224,12617.1875
-7.780048583,-107874,128,-221392,-15.96715164,128,-28912,-2.085180531,0.480546413,6663,20864,12636.71875
-7.884624944,-109324,128,-222129,-16.02030528,128,-29105,-2.099100006,0.535286729,7422,21504,12656.25
-8.010837795,-111074,128,-222731,-16.0637225,128,-32761,-2.36277668,0.288414393,3999,22144,12675.78125
-8.093849789,-112225,128,-223591,-16.1257471,128,-32611,-2.351958436,0.18109741,2511,22784,12695.3125
-8.116135373,-112534,128,-223912,-16.14889814,128,-27584,-1.989403008,0.156359691,2168,23424,12714.84375
-8.112240805,-112480,128,-224072,-16.1604376,128,-456,-0.032887463,0.151166934,2096,24064,12734.375
-8.102576506,-112346,128,-223892,-16.14745571,128,-30852,-2.225096491,0.148137826,2054,24704,12753.90625
-8.070915111,-111907,128,-223474,-16.11730887,128,-32754,-2.362271829,0.267427,3708,25344,12773.4375
-8.08901764,-112158,128,-223671,-16.13151683,128,-31232,-2.25250271,0.184487126,2558,25984,12792.96875
-8.046393758,-111567,128,-223112,-16.09120084,128,-900,-0.064909466,0.294833218,4088,26624,12812.5
-8.08014668,-112035,128,-223421,-16.11348642,128,-29,-0.002091527,0.184919856,2564,27264,12832.03125
-8.008746267,-111045,128,-223144,-16.09350873,128,-32754,-2.362271829,0.294833218,4088,27904,12851.5625
-7.99735105,-110887,128,-223651,-16.1300744,128,-32164,-2.319720068,0.274567041,3807,28544,12871.09375
-7.99511528,-110856,128,-223228,-16.09956695,128,-29696,-2.141723888,0.267643364,3711,29184,12890.625
-8.062044151,-111784,128,-223403,-16.11218823,128,-227,-0.01637161,0.2214134,3070,29824,12910.15625
-8.098465574,-112289,128,-223457,-16.1160828,128,-32497,-2.34373657,0.149940866,2079,30464,12929.6875
-8.128035441,-112699,128,-223996,-16.15495636,128,-31744,-2.289428984,0.032815341,455,31104,12949.21875
-8.144118565,-112922,128,-224262,-16.17414071,128,-32257,-2.326427379,0.007356406,102,31744,12968.75
-8.144046443,-112921,128,-223612,-16.12726165,128,-32764,-2.362993045,0.05358637,743,32384,12988.28125
-8.220279005,-113978,128,-223571,-16.12430467,128,-371,-0.026757124,0.018391015,255,33024,13007.8125
-6.497726023,-90094,128,-220882,-15.93036961,128,-32754,-2.362271829,1.03393567,14336,33664,13027.34375
-7.992086171,-110814,128,-225094,-16.23414591,128,-32578,-2.349578422,0.059644587,827,34304,13046.875
-8.132939712,-112767,128,-224854,-16.21683672,128,-32712,-2.359242721,0.064693101,897,34944,13066.40625
-8.065145381,-111827,128,-223654,-16.13029076,128,-31138,-2.245723277,0.276947054,3840,35584,13085.9375
-8.054110772,-111674,128,-223494,-16.1187513,128,-5,-3.61E-04,0.219682481,3046,36224,13105.46875
-8.025478485,-111277,128,-223291,-16.10411061,128,-28185,-2.032748107,0.29533807,4095,36864,13125
-8.001029253,-110938,128,-222960,-16.08023835,128,-30436,-2.195093893,0.290722286,4031,37504,13144.53125
-7.92825853,-109929,128,-222531,-16.04929817,128,-32740,-2.361262126,0.514587821,7135,38144,13164.0625
-7.893568026,-109448,128,-222302,-16.03278232,128,-28800,-2.077102909,0.59067614,8190,38784,13183.59375
-7.759638162,-107591,128,-221295,-15.96015584,128,-28680,-2.068448313,0.555913515,7708,39424,13203.125
-7.687877141,-106596,128,-220686,-15.91623377,128,-28680,-2.068448313,0.555913515,7708,40064,13222.65625
-7.658090908,-106183,128,-220282,-15.88709663,128,49152,3.544922298,0.590531896,8188,40704,13242.1875
-7.800891733,-108163,128,-221402,-15.96787285,128,-32689,-2.357583923,0.517472686,7175,41344,13261.71875
-7.945639842,-110170,128,-222780,-16.06725646,128,-30948,-2.232020167,0.434172205,6020,41984,13281.25
-8.034854297,-111407,128,-223106,-16.09076811,128,-30681,-2.212763692,0.291659867,4044,42624,13300.78125
-8.031392459,-111359,128,-223152,-16.0940857,128,-30784,-2.22019222,0.277668271,3850,43264,13320.3125
-8.075603017,-111972,128,-223944,-16.15120603,128,-30909,-2.229207424,0.166096111,2303,43904,13339.84375
-8.046970731,-111575,128,-223281,-16.10338939,128,-32640,-2.354049963,0.28560165,3960,44544,13359.375
-7.983070968,-110689,128,-222846,-16.07201649,128,-32272,-2.327509204,0.291876232,4047,45184,13378.90625
-7.950327748,-110235,128,-222469,-16.04482663,128,-30703,-2.214350368,0.278605852,3863,45824,13398.4375
-7.96504056,-110439,128,-222440,-16.0427351,128,-29697,-2.14179601,0.461506303,6399,46464,13417.96875
-7.954727167,-110296,128,-222329,-16.0347296,128,-29704,-2.142300861,0.479753075,6652,47104,13437.5
-7.998072266,-110897,128,-223089,-16.08954204,128,-30672,-2.212114598,0.286250745,3969,47744,13457.03125
-8.019780877,-111198,128,-223466,-16.1167319,128,-30504,-2.199998164,0.283870731,3936,48384,13476.5625
-7.934821598,-110020,128,-223059,-16.08737839,128,-31008,-2.236347465,0.292308961,4053,49024,13496.09375
-7.966699358,-110462,128,-223170,-16.09538389,128,-32272,-2.327509204,0.511198105,7088,49664,13515.625
-7.97564244,-110586,128,-222776,-16.06696797,128,-32753,-2.362199707,0.295121705,4092,50304,13535.15625
-8.088368546,-112149,128,-224206,-16.1701019,128,-31136,-2.245579034,0.152248758,2111,50944,13554.6875
-8.134382145,-112787,128,-224696,-16.2054415,128,-32767,-2.36320941,0.147705096,2048,51584,13574.21875
-8.10625471,-112397,128,-224261,-16.17406859,128,-32305,-2.329889218,0.065125831,903,52224,13593.75
-8.1439022,-112919,128,-224747,-16.2091197,128,-32516,-2.345106881,0.057769425,801,52864,13613.28125
-8.267735036,-114636,128,-223865,-16.14550843,128,-32768,-2.363281532,0.004543663,63,53504,13632.8125
-6.624587968,-91853,128,-219984,-15.86560438,128,-32768,-2.363281532,2.06787134,28672,54144,13652.34375
-7.648138124,-106045,128,-224506,-16.19173839,128,-24848,-1.792078232,0.446577125,6192,54784,13671.875
-8.083969126,-112088,128,-224713,-16.20666757,128,-32713,-2.359314842,0.064693101,897,55424,13691.40625
-8.023963931,-111256,128,-224124,-16.16418793,128,-31106,-2.243415385,0.29533807,4095,56064,13710.9375
-8.084906707,-112101,128,-224767,-16.21056214,128,-31872,-2.298660552,0.279182825,3871,56704,13730.46875
-7.997062564,-110883,128,-223422,-16.11355854,128,-30737,-2.216802504,0.223865536,3104,57344,13750
-7.91722392,-109776,128,-222814,-16.06970859,128,-30664,-2.211537625,0.516823592,7166,57984,13769.53125
-7.90611719,-109622,128,-222945,-16.07915653,128,-30827,-2.22329345,0.477950034,6627,58624,13789.0625
-7.861546023,-109004,128,-222737,-16.06415523,128,-30233,-2.180453203,0.581588814,8064,59264,13808.59375
-7.712326373,-106935,128,-221296,-15.96022796,128,-29695,-2.141651766,0.588512491,8160,59904,13828.125
-7.700282061,-106768,128,-221996,-16.0107131,128,-28914,-2.085324774,0.582598517,8078,60544,13847.65625
-7.705763305,-106844,128,-221706,-15.98979783,128,-24936,-1.798424935,1.0343684,14342,61184,13867.1875
-7.816037275,-108373,128,-222906,-16.07634378,128,-28913,-2.085252653,0.522088471,7239,61824,13886.71875
-7.935254328,-110026,128,-223546,-16.12250163,128,-29685,-2.14093055,0.521583619,7232,62464,13906.25
-8.045456176,-111554,128,-224192,-16.1690922,128,-31732,-2.288563524,0.257979066,3577,63104,13925.78125
-8.100412858,-112316,128,-225175,-16.23998776,128,-32711,-2.359170599,0.156864543,2175,63744,13945.3125
-8.06334234,-111802,128,-224597,-16.19830146,128,-32760,-2.362704559,0.221485522,3071,64384,13964.84375
-8.071059355,-111909,128,-225003,-16.22758284,128,-32527,-2.345900219,0.148859042,2064,65024,13984.375
-8.032979135,-111381,128,-224692,-16.20515301,128,-31871,-2.298588431,0.212326075,2944,128,14003.90625
-8.052163488,-111647,128,-224370,-16.18192985,128,-32712,-2.359242721,0.217013981,3009,768,14023.4375
-8.021006944,-111215,128,-224541,-16.19426265,128,-32525,-2.345755976,0.291948353,4048,1408,14042.96875
-8.0128572,-111102,128,-224469,-16.18906989,128,-31985,-2.306810296,0.276947054,3840,2048,14062.5
-8.035936121,-111422,128,-224649,-16.20205178,128,-32765,-2.363065167,0.278028879,3855,2688,14082.03125
-7.919603934,-109809,128,-223819,-16.14219083,128,-31920,-2.302122391,0.279182825,3871,3328,14101.5625
-7.909795393,-109673,128,-224054,-16.15913941,128,-31721,-2.287770186,0.558221407,7740,3968,14121.09375
-7.93402826,-110009,128,-223612,-16.12726165,128,-31085,-2.24190083,0.512568416,7107,4608,14140.625
-8.047187096,-111578,128,-224647,-16.20190754,128,-32704,-2.358665747,0.443187409,6145,5248,14160.15625
-8.00312078,-110967,128,-224047,-16.15863456,128,-31232,-2.25250271,0.267715486,3712,5888,14179.6875
-8.058582313,-111736,128,-224290,-16.17616012,128,-32513,-2.344890516,0.258772404,3588,6528,14199.21875
-8.035647635,-111418,128,-224213,-16.17060675,128,-32721,-2.359891815,0.291227137,4038,7168,14218.75
-8.169072648,-113268,128,-223570,-16.12423255,128,-31229,-2.252286345,0.274927649,3812,7808,14238.28125
-7.499423325,-103983,128,-221992,-16.01042462,128,-30708,-2.214710976,0.277019176,3841,8448,14257.8125
-7.093090068,-98349,128,-223581,-16.12502588,128,-32705,-2.358737869,1.179765604,16358,9088,14277.34375
-8.037306432,-111441,128,-224688,-16.20486453,128,-28693,-2.069385894,0.266633662,3697,9728,14296.875
-7.932369463,-109986,128,-223636,-16.12899257,128,-32708,-2.358954234,0.518338146,7187,10368,14316.40625
-7.923065772,-109857,128,-223067,-16.08795537,128,-32263,-2.326860109,0.572357246,7936,11008,14335.9375
-7.891837107,-109424,128,-223083,-16.08910931,128,-30716,-2.215287949,0.516967835,7168,11648,14355.46875
-7.862050874,-109011,128,-222925,-16.07771409,128,-29465,-2.125063792,0.586493085,8132,12288,14375
-7.873734578,-109173,128,-223182,-16.09624935,128,-30335,-2.187809609,0.556202001,7712,12928,14394.53125
-7.760287256,-107600,128,-222921,-16.07742561,128,-30612,-2.2077873,0.50081259,6944,13568,14414.0625
-7.658018787,-106182,128,-221589,-15.9813596,128,-26433,-1.906391013,0.554975933,7695,14208,14433.59375
-7.584094117,-105157,128,-221039,-15.9416927,128,-32737,-2.361045761,1.108004583,15363,14848,14453.125
-7.58243532,-105134,128,-221122,-15.9476788,128,-32768,-2.363281532,1.167721292,16191,15488,14472.65625
-7.587628077,-105206,128,-221105,-15.94645273,128,-32657,-2.355276031,1.126251355,15616,16128,14492.1875
-7.802189923,-108181,128,-223360,-16.109087,128,-28674,-2.068015584,0.588584612,8161,16768,14511.71875
-7.857939942,-108954,128,-223636,-16.12899257,128,-31218,-2.251493007,0.590171288,8183,17408,14531.25
-7.921406975,-109834,128,-223983,-16.15401878,128,-31752,-2.290005957,0.516967835,7168,18048,14550.78125
-7.933811895,-110006,128,-224356,-16.18092015,128,-32249,-2.325850406,0.477589426,6622,18688,14570.3125
-7.935614936,-110031,128,-224444,-16.18726685,128,-31741,-2.289212619,0.480041561,6656,19328,14589.84375
-7.902871716,-109577,128,-224387,-16.18315592,128,-31865,-2.298155701,0.461434181,6398,19968,14609.375
-7.869118794,-109109,128,-224126,-16.16433217,128,-32633,-2.353545112,0.589882802,8179,20608,14628.90625
-7.883182512,-109304,128,-224225,-16.17147221,128,-32665,-2.355853004,0.580434868,8048,21248,14648.4375
-7.872075781,-109150,128,-223860,-16.14514782,128,-32640,-2.354049963,0.59067614,8190,21888,14667.96875
-7.83926044,-108695,128,-224302,-16.17702558,128,-31112,-2.243848114,0.59024341,8184,22528,14687.5
-7.755887837,-107539,128,-223371,-16.10988034,128,-32740,-2.361262126,0.51675147,7165,23168,14707.03125
-7.735477416,-107256,128,-223245,-16.10079302,128,-31748,-2.28971747,0.590748261,8191,23808,14726.5625
-7.788847421,-107996,128,-223166,-16.09509541,128,-30720,-2.215576436,0.514155092,7129,24448,14746.09375
-7.852025968,-108872,128,-223841,-16.14377751,128,-30848,-2.224808004,0.581588814,8064,25088,14765.625
-7.898255932,-109513,128,-224267,-16.17450132,128,-31229,-2.252286345,0.583319734,8088,25728,14785.15625
-7.896741378,-109492,128,-224379,-16.18257894,128,-32767,-2.36320941,0.517256322,7172,26368,14804.6875
-7.920974245,-109828,128,-224430,-16.18625715,128,-32754,-2.362271829,0.489201008,6783,27008,14824.21875
-8.055120475,-111688,128,-224300,-16.17688133,128,-32572,-2.349145692,0.220980671,3064,27648,14843.75
-6.269244703,-86926,128,-220654,-15.91392588,128,-32768,-2.363281532,2.361478491,32743,28288,14863.28125
-7.361021919,-102064,128,-225153,-16.23840108,128,-26114,-1.883384214,1.181568644,16383,28928,14882.8125
-7.862195118,-109013,128,-224757,-16.20984092,128,-30724,-2.215864923,0.514299335,7131,29568,14902.34375
-7.80471418,-108216,128,-224409,-16.18474259,128,-31771,-2.291376268,0.458116586,6352,30208,14921.875
-7.756104202,-107542,128,-223494,-16.1187513,128,-30733,-2.216514017,0.532906715,7389,30848,14941.40625
-7.767283054,-107697,128,-223975,-16.15344181,128,-30819,-2.222716477,0.519203606,7199,31488,14960.9375
-7.704825724,-106831,128,-223403,-16.11218823,128,-30756,-2.218172815,0.585122774,8113,32128,14980.46875
-7.666961869,-106306,128,-223221,-16.0990621,128,-31169,-2.247959047,0.584978531,8111,32768,15000
-7.577026198,-105059,128,-222696,-16.06119824,128,-26596,-1.918146839,1.173491022,16271,33408,15019.53125
-7.458169753,-103411,128,-221634,-15.98460507,128,-29122,-2.100326073,1.108220948,15366,34048,15039.0625
-7.384822057,-102394,128,-221051,-15.94255816,128,-32768,-2.363281532,1.179404995,16353,34688,15058.59375
-7.405304599,-102678,128,-221336,-15.96311283,128,-24656,-1.778230879,1.034440522,14343,35328,15078.125
-7.502957285,-104032,128,-222186,-16.02441621,128,-25064,-1.807656504,1.107788218,15360,35968,15097.65625
-7.618135526,-105629,128,-223126,-16.09221054,128,-29088,-2.097873938,1.061269767,14715,36608,15117.1875
-7.740598052,-107327,128,-223947,-16.1514224,128,-28616,-2.063832529,0.59024341,8184,37248,15136.71875
-7.736847727,-107275,128,-223651,-16.1300744,128,-32227,-2.324263731,0.562476583,7799,37888,15156.25
-7.721197333,-107058,128,-223506,-16.11961676,128,-31684,-2.285101686,0.590748261,8191,38528,15175.78125
-7.755166621,-107529,128,-224298,-16.17673709,128,-31503,-2.272047671,0.530887309,7361,39168,15195.3125
-7.721125212,-107057,128,-223976,-16.15351393,128,-31679,-2.284741078,0.581444571,8062,39808,15214.84375
-7.717086401,-107001,128,-224112,-16.16332247,128,-32520,-2.345395368,0.590748261,8191,40448,15234.375
-7.723649469,-107092,128,-224130,-16.16462066,128,-31744,-2.289428984,0.572429368,7937,41088,15253.90625
-7.677924356,-106458,128,-223746,-16.13692595,128,-31729,-2.288347159,0.590171288,8183,41728,15273.4375
-7.685425006,-106562,128,-224631,-16.20075359,128,-32767,-2.36320941,0.582598517,8078,42368,15292.96875
-7.615971877,-105599,128,-223645,-16.12964167,128,-32768,-2.363281532,1.08882023,15097,43008,15312.5
-7.643378096,-105979,128,-223430,-16.11413552,128,-28641,-2.06563557,1.089325081,15104,43648,15332.03125
-7.772475812,-107769,128,-224199,-16.16959705,128,-31742,-2.289284741,0.528363052,7326,44288,15351.5625
-7.814162113,-108347,128,-225173,-16.23984352,128,-32761,-2.36277668,0.443115287,6144,44928,15371.09375
-7.795554733,-108089,128,-224862,-16.21741369,128,-32706,-2.358809991,0.47996944,6655,45568,15390.625
-7.806012369,-108234,128,-224638,-16.20125844,128,-32228,-2.324335852,0.4915089,6815,46208,15410.15625
-7.922128191,-109844,128,-224487,-16.19036808,128,-32257,-2.326427379,0.590748261,8191,46848,15429.6875
-6.657619674,-92311,128,-220554,-15.90671371,128,-24849,-1.792150353,1.77736542,24644,47488,15449.21875
-6.606196953,-91598,128,-223423,-16.11363067,128,-24640,-1.777076933,0.445351058,6175,48128,15468.75
-7.812791802,-108328,128,-225881,-16.29090563,128,-28704,-2.070179232,0.586204599,8128,48768,15488.28125
-7.745285957,-107392,128,-225074,-16.23270348,128,-32754,-2.362271829,0.586204599,8128,49408,15507.8125
-7.71131667,-106921,128,-224590,-16.19779661,128,-31745,-2.289501105,0.586637328,8134,50048,15527.34375
-7.72458705,-107105,128,-224330,-16.17904498,128,-31857,-2.297578728,0.58093972,8055,50688,15546.875
-7.696387493,-106714,128,-224476,-16.18957474,128,-32730,-2.36054091,0.576828787,7998,51328,15566.40625
-7.697252953,-106726,128,-224837,-16.21561065,128,-32761,-2.36277668,1.038479333,14399,51968,15585.9375
-7.586618374,-105192,128,-223862,-16.14529206,128,-28286,-2.040032392,1.140098708,15808,52608,15605.46875
-7.478219566,-103689,128,-222779,-16.06718434,128,-26374,-1.902135837,1.145147222,15878,53248,15625
-7.456078226,-103382,128,-222883,-16.07468499,128,-26609,-1.91908442,1.175798914,16303,53888,15644.53125
-7.440139346,-103161,128,-222511,-16.04785574,128,-24992,-1.802463746,1.180991671,16375,54528,15664.0625
-7.591162037,-105255,128,-224277,-16.17522254,128,-30754,-2.218028571,1.172481319,16257,55168,15683.59375
-7.736414997,-107269,128,-224631,-16.20075359,128,-32449,-2.340274732,1.043095117,14463,55808,15703.125
-7.818417289,-108406,128,-225704,-16.2781401,128,-32752,-2.362127586,0.444774085,6167,56448,15722.65625
-7.852386576,-108877,128,-225773,-16.28311649,128,-32232,-2.324624339,0.581805179,8067,57088,15742.1875
-7.870056375,-109122,128,-225926,-16.2941511,128,-30834,-2.223798302,0.581588814,8064,57728,15761.71875
-7.888231026,-109374,128,-226095,-16.30633966,128,-263,-0.018967988,0.589666437,8176,58368,15781.25
-7.869551524,-109115,128,-226089,-16.30590693,128,-30975,-2.233967451,0.586493085,8132,59008,15800.78125
-7.856353266,-108932,128,-226144,-16.30987362,128,-29444,-2.123549238,0.576900909,7999,59648,15820.3125
-7.86717151,-109082,128,-226197,-16.31369606,128,-32096,-2.314815797,0.556490488,7716,60288,15839.84375
-7.813224532,-108334,128,-225581,-16.26926914,128,-32765,-2.363065167,0.553966231,7681,60928,15859.375
-7.769663068,-107730,128,-225358,-16.25318602,128,-32269,-2.327292839,0.516823592,7166,61568,15878.90625
-7.743410795,-107366,128,-225210,-16.24251202,128,-28736,-2.072487125,0.589017342,8167,62208,15898.4375
-7.780120704,-107875,128,-225249,-16.24532476,128,-32753,-2.362199707,0.459054167,6365,62848,15917.96875
-7.889889823,-109397,128,-225677,-16.27619282,128,-31217,-2.251420885,0.572213003,7934,63488,15937.5
-7.883038268,-109302,128,-225439,-16.25902787,128,-30735,-2.21665826,0.590459775,8187,64128,15957.03125
-7.92825853,-109929,128,-226130,-16.30886392,128,-30818,-2.222644356,0.446505004,6191,64768,15976.5625
-7.878710971,-109242,128,-225323,-16.25066176,128,-30736,-2.216730382,0.57697303,8000,65408,15996.09375
-7.981267927,-110664,128,-225287,-16.24806538,128,-29160,-2.103066695,0.214489724,2974,512,16015.625
-6.740343182,-93458,128,-221684,-15.98821115,128,-31153,-2.246805101,1.778158757,24655,1152,16035.15625
-6.748853534,-93576,128,-224775,-16.21113911,128,-32264,-2.326932231,0.354838414,4920,1792,16054.6875
-7.900924432,-109550,128,-226529,-16.33764044,128,-32764,-2.362993045,0.445351058,6175,2432,16074.21875
-7.812142707,-108319,128,-225295,-16.24864236,128,-28679,-2.068376192,0.534349148,7409,3072,16093.75
-7.792309259,-108044,128,-225008,-16.22794345,128,-31749,-2.289789592,0.525983039,7293,3712,16113.28125
-7.80694995,-108247,128,-225066,-16.2321265,128,-32752,-2.362127586,0.461578424,6400,4352,16132.8125
-7.755455107,-107533,128,-224734,-16.20818212,128,-32377,-2.335081975,0.59067614,8190,4992,16152.34375
-7.696964466,-106722,128,-223950,-16.15163876,128,-32540,-2.3468378,0.519275727,7200,5632,16171.875
-7.652898151,-106111,128,-223877,-16.14637389,128,-32257,-2.326427379,1.06624616,14784,6272,16191.40625
-7.547600573,-104651,128,-223001,-16.08319534,128,-29631,-2.137035982,1.112620367,15427,6912,16210.9375
-7.48593658,-103796,128,-222666,-16.05903459,128,-24641,-1.777149055,1.159571547,16078,7552,16230.46875
-7.505553663,-104068,128,-222859,-16.07295407,128,-25072,-1.808233477,1.073241958,14881,8192,16250
-7.578973482,-105086,128,-223459,-16.11622704,128,-27700,-1.997769117,1.121635571,15552,8832,16269.53125
-7.754589648,-107521,128,-224674,-16.20385482,128,-31745,-2.289501105,0.583824585,8095,9472,16289.0625
-7.817191221,-108389,128,-224919,-16.22152462,128,-32401,-2.336812894,0.445351058,6175,10112,16308.59375
-7.858661158,-108964,128,-225491,-16.26277819,128,-31176,-2.248463899,0.586060355,8126,10752,16328.125
-7.859959347,-108982,128,-225299,-16.24893084,128,-29072,-2.096719992,0.5712033,7920,11392,16347.65625
-7.906189311,-109623,128,-226256,-16.31795124,128,-31696,-2.285967146,0.461289938,6396,12032,16367.1875
-7.817263343,-108390,128,-224916,-16.22130826,128,-30725,-2.215937044,0.576900909,7999,12672,16386.71875
-7.856064779,-108928,128,-225728,-16.27987102,128,-28832,-2.079410801,0.553894109,7680,13312,16406.25
-7.803271747,-108196,128,-225004,-16.22765496,128,-32641,-2.354122085,0.452274734,6271,13952,16425.78125
-7.740165322,-107321,128,-224911,-16.22094765,128,-28304,-2.041330581,0.58627672,8129,14592,16445.3125
-7.738145916,-107293,128,-224530,-16.19346931,128,-30976,-2.234039573,0.581877301,8068,15232,16464.84375
-7.77550492,-107811,128,-225031,-16.22960225,128,-32516,-2.345106881,0.45919841,6367,15872,16484.375
-7.882389174,-109293,128,-225434,-16.25866726,128,-30729,-2.216225531,0.574593016,7967,16512,16503.90625
-7.926743975,-109908,128,-225664,-16.27525524,128,-31745,-2.289501105,0.452274734,6271,17152,16523.4375
-7.938644044,-110073,128,-225794,-16.28463105,128,-32257,-2.326427379,0.443331652,6147,17792,16542.96875
-7.939148896,-110080,128,-225882,-16.29097775,128,-29695,-2.141651766,0.47996944,6655,18432,16562.5
-8.056851394,-111712,128,-225596,-16.27035097,128,-30721,-2.215648558,0.286178623,3968,19072,16582.03125
-6.962189312,-96534,128,-221206,-15.95373701,128,-30722,-2.215720679,1.7756345,24620,19712,16601.5625
-6.612976386,-91692,128,-223838,-16.14356114,128,-27648,-1.994018792,0.445134693,6172,20352,16621.09375
-7.932874314,-109993,128,-226246,-16.31723002,128,-28936,-2.08691145,0.293030178,4063,20992,16640.625
-7.878638849,-109241,128,-225633,-16.27301947,128,-30737,-2.216802504,0.588512491,8160,21632,16660.15625
-7.860247834,-108986,128,-225124,-16.23630956,128,-32516,-2.345106881,0.580651233,8051,22272,16679.6875
-7.827865222,-108537,128,-224933,-16.22253433,128,-32705,-2.358737869,0.582382152,8075,22912,16699.21875
-7.823465803,-108476,128,-225001,-16.2274386,128,-32489,-2.343159597,0.443115287,6144,23552,16718.75
-7.753724188,-107509,128,-224356,-16.18092015,128,-31776,-2.291736876,0.558437772,7743,24192,16738.28125
-7.705042089,-106834,128,-223906,-16.14846541,128,-31282,-2.256108791,0.581805179,8067,24832,16757.8125
-7.586546253,-105191,128,-222967,-16.0807432,128,-29696,-2.141723888,1.107499731,15356,25472,16777.34375
-7.5240168,-104324,128,-222337,-16.03530658,128,-25601,-1.846385818,1.038407211,14398,26112,16796.875
-7.539306586,-104536,128,-222486,-16.0460527,128,-29704,-2.142300861,1.1734189,16270,26752,16816.40625
-7.589142631,-105227,128,-222606,-16.0547073,128,-25352,-1.828427533,1.180414698,16367,27392,16835.9375
-7.729563442,-107174,128,-224420,-16.18553593,128,-27810,-2.005702496,0.535430972,7424,28032,16855.46875
-7.823249438,-108473,128,-224377,-16.1824347,128,-30816,-2.222500112,0.461434181,6398,28672,16875
-7.860464199,-108989,128,-224639,-16.20133057,128,-28543,-2.05856765,0.588728856,8163,29312,16894.53125
-7.908929933,-109661,128,-224884,-16.21900037,128,-32753,-2.362199707,0.558582015,7745,29952,16914.0625
-7.905107487,-109608,128,-225224,-16.24352172,128,-32708,-2.358954234,0.51408297,7128,30592,16933.59375
-7.877268538,-109222,128,-224641,-16.20147481,128,-32753,-2.362199707,0.581011841,8056,31232,16953.125
-7.866306051,-109070,128,-224917,-16.22138038,128,-32743,-2.361478491,0.588368248,8158,31872,16972.65625
-7.848203522,-108819,128,-224349,-16.18041529,128,-28609,-2.063327678,0.588873099,8165,32512,16992.1875
-7.836447696,-108656,128,-224291,-16.17623224,128,-28609,-2.063327678,0.581444571,8062,33152,17011.71875
-7.793751692,-108064,128,-223872,-16.14601328,128,-31744,-2.289428984,0.523891511,7264,33792,17031.25
-7.74449262,-107381,128,-224102,-16.16260125,128,-28672,-2.06787134,0.554975933,7695,34432,17050.78125
-7.771393987,-107754,128,-223681,-16.13223805,128,-30913,-2.22949591,0.572789976,7942,35072,17070.3125
-7.851088387,-108859,128,-223763,-16.13815202,128,-32744,-2.361550613,0.493888914,6848,35712,17089.84375
-7.896164405,-109484,128,-224311,-16.17767467,128,-31796,-2.293179309,0.563053556,7807,36352,17109.375
-7.904169906,-109595,128,-224356,-16.18092015,128,-31748,-2.28971747,0.514659943,7136,36992,17128.90625
-7.926094881,-109899,128,-224611,-16.19931116,128,-32767,-2.36320941,0.516679349,7164,37632,17148.4375
-7.934605233,-110017,128,-224502,-16.1914499,128,-31998,-2.307747878,0.55439896,7687,38272,17167.96875
-7.687949263,-106597,128,-222596,-16.05398608,128,-31520,-2.273273739,0.285241042,3955,38912,17187.5
-6.28193811,-87102,128,-220322,-15.8899815,128,-23586,-1.701060736,1.105696691,15331,39552,17207.03125
-7.971170899,-110524,128,-225765,-16.28253952,128,-28804,-2.077391395,0.581588814,8064,40192,17226.5625
-7.846905332,-108801,128,-224362,-16.18135288,128,-28641,-2.06563557,0.572285124,7935,40832,17246.09375
-7.857651455,-108950,128,-224337,-16.17954983,128,-32721,-2.359891815,0.554975933,7695,41472,17265.625
-7.790866827,-108024,128,-223349,-16.10829367,128,-30837,-2.224014667,0.516390862,7160,42112,17285.15625
-7.780986164,-107887,128,-223313,-16.10569729,128,-32513,-2.344890516,0.515886011,7153,42752,17304.6875
-7.736847727,-107275,128,-222764,-16.06610251,128,-31760,-2.29058293,0.572357246,7936,43392,17324.21875
-7.708071197,-106876,128,-222791,-16.0680498,128,-28673,-2.067943462,0.586637328,8134,44032,17343.75
-7.593181442,-105283,128,-221760,-15.9936924,128,-28737,-2.072559246,1.181568644,16383,44672,17363.28125
-7.509303988,-104120,128,-221132,-15.94840001,128,-32768,-2.363281532,1.140098708,15808,45312,17382.8125
-7.482907472,-103754,128,-220788,-15.92359017,128,-32765,-2.363065167,1.108076705,15364,45952,17402.34375
-7.54038841,-104551,128,-221433,-15.97010862,128,-24829,-1.790707921,1.174644968,16287,46592,17421.875
-7.629602865,-105788,128,-222086,-16.01720405,128,-25537,-1.841770034,1.038551454,14400,47232,17441.40625
-7.793535327,-108061,128,-223419,-16.11334218,128,-28289,-2.040248756,0.44765895,6207,47872,17460.9375
-7.814666964,-108354,128,-223513,-16.12012161,128,-26895,-1.939711206,0.461506303,6399,48512,17480.46875
-7.869984254,-109121,128,-224152,-16.16620733,128,-30972,-2.233751086,0.59024341,8184,49152,17500
-7.848708373,-108826,128,-223787,-16.13988294,128,-31489,-2.271037969,0.588945221,8166,49792,17519.53125
-7.871210321,-109138,128,-224515,-16.19238748,128,-31758,-2.290438687,0.535142486,7420,50432,17539.0625
-7.833130101,-108610,128,-223736,-16.13620474,128,-32754,-2.362271829,0.581733058,8066,51072,17558.59375
-7.849790198,-108841,128,-224018,-16.15654304,128,-32642,-2.354194206,0.563053556,7807,51712,17578.125
-7.841424089,-108725,128,-223856,-16.14485933,128,-32640,-2.354049963,0.57343907,7951,52352,17597.65625
-7.821518519,-108449,128,-223754,-16.13750293,128,-28417,-2.049480325,0.449966842,6239,52992,17617.1875
-7.760647864,-107605,128,-223439,-16.11478461,128,-26618,-1.919733515,0.580362747,8047,53632,17636.71875
-7.740598052,-107327,128,-223681,-16.13223805,128,-30785,-2.220264342,0.553966231,7681,54272,17656.25
-7.779543731,-107867,128,-223197,-16.09733118,128,-27968,-2.017097714,0.512568416,7107,54912,17675.78125
-7.844669562,-108770,128,-223035,-16.08564747,128,-30601,-2.206993962,0.582598517,8078,55552,17695.3125
-7.91765665,-109782,128,-224554,-16.19520023,128,-32768,-2.363281532,0.521295133,7228,56192,17714.84375
-7.94729864,-110193,128,-224953,-16.22397676,128,-32509,-2.34460203,0.443331652,6147,56832,17734.375
-7.907631744,-109643,128,-224287,-16.17594375,128,-32516,-2.345106881,0.478887615,6640,57472,17753.90625
-8.016319038,-111150,128,-224036,-16.15784122,128,-30724,-2.215864923,0.29447261,4083,58112,17773.4375
-7.77197096,-107762,128,-222841,-16.07165588,128,-32257,-2.326427379,0.581588814,8064,58752,17792.96875
-6.483301697,-89894,128,-222737,-16.06415523,128,-32569,-2.348929328,1.179765604,16358,59392,17812.5
-7.992230414,-110816,128,-225968,-16.29718021,128,-31680,-2.2848132,0.140781419,1952,60032,17832.03125
-7.881956444,-109287,128,-224595,-16.19815721,128,-32752,-2.362127586,0.571708151,7927,60672,17851.5625
-7.847121697,-108804,128,-223926,-16.14990785,128,-30910,-2.229279545,0.572068759,7932,61312,17871.09375
-7.825701574,-108507,128,-223542,-16.12221314,128,-32574,-2.349289936,0.517472686,7175,61952,17890.625
-7.767787906,-107704,128,-223216,-16.09870149,128,-26608,-1.919012298,0.512352051,7104,62592,17910.15625
-7.744997471,-107388,128,-222763,-16.06603039,128,-30219,-2.1794435,0.517400565,7174,63232,17929.6875
-7.665591558,-106287,128,-221631,-15.98438871,128,-28735,-2.072415003,1.107788218,15360,63872,17949.21875
-7.625996783,-105738,128,-221294,-15.96008372,128,-24589,-1.77339873,1.148320573,15922,64512,17968.75
-7.536998694,-104504,128,-220782,-15.92315744,128,-31746,-2.289573227,1.034296278,14341,65152,17988.28125
-7.503245771,-104036,128,-220471,-15.90072762,128,-31807,-2.293972646,1.061630376,14720,256,18007.8125
-7.58907051,-105226,128,-221310,-15.96123766,128,-32767,-2.36320941,1.17695286,16319,896,18027.34375
-7.682684384,-106524,128,-221853,-16.00039971,128,-24592,-1.773615095,0.589666437,8176,1536,18046.875
-7.780264947,-107877,128,-222844,-16.07187224,128,-25216,-1.818618991,0.444918328,6169,2176,18066.40625
-7.830677966,-108576,128,-222946,-16.07922865,128,-29682,-2.140714185,0.588512491,8160,2816,18085.9375
-7.86053632,-108990,128,-223387,-16.11103429,128,-30913,-2.22949591,0.586348842,8130,3456,18105.46875
-7.840702872,-108715,128,-223131,-16.09257115,128,-26616,-1.919589271,0.59067614,8190,4096,18125
-7.830389479,-108572,128,-223033,-16.08550323,128,-29577,-2.133141414,0.588945221,8166,4736,18144.53125
-7.787404989,-107976,128,-222522,-16.04864908,128,-31871,-2.298588431,0.488912521,6779,5376,18164.0625
-7.766129108,-107681,128,-222516,-16.04821635,128,-29698,-2.141868131,0.507664145,7039,6016,18183.59375
-7.770384284,-107740,128,-222457,-16.04396117,128,-28921,-2.085829626,0.498504698,6912,6656,18203.125
-7.779183123,-107862,128,-222677,-16.05982793,128,-25025,-1.80484376,0.46006387,6379,7296,18222.65625
-7.759349675,-107587,128,-223031,-16.08535899,128,-25592,-1.845736724,0.461506303,6399,7936,18242.1875
-7.721846428,-107067,128,-223145,-16.09358085,128,-26607,-1.918940177,0.586493085,8132,8576,18261.71875
-7.735116808,-107251,128,-222577,-16.05261577,128,-32761,-2.36277668,0.590748261,8191,9216,18281.25
-7.835365872,-108641,128,-223246,-16.10086514,128,-26500,-1.911223163,0.445278936,6174,9856,18300.78125
-7.888735877,-109381,128,-223914,-16.14904239,128,-32385,-2.335658948,0.437994652,6073,10496,18320.3125
-7.828730682,-108549,128,-223103,-16.09055174,128,-26624,-1.920166245,0.590459775,8187,11136,18339.84375
-7.840774994,-108716,128,-223381,-16.11060156,128,-31889,-2.29988662,0.572789976,7942,11776,18359.375
-7.920180907,-109817,128,-222672,-16.05946732,128,-32740,-2.361262126,0.507736267,7040,12416,18378.90625
-6.901390779,-95691,128,-220087,-15.87303291,128,-31732,-2.288563524,3.61E-04,5,13056,18398.4375
-6.446375423,-89382,128,-222419,-16.04122055,128,-24643,-1.777293298,0.892721521,12378,13696,18417.96875
-7.905035365,-109607,128,-225195,-16.24143019,128,-30848,-2.224808004,0.313729085,4350,14336,18437.5
-7.840630751,-108714,128,-224517,-16.19253173,128,-27649,-1.994090914,0.590748261,8191,14976,18457.03125
-7.826567033,-108519,128,-224406,-16.18452623,128,-32257,-2.326427379,0.590748261,8191,15616,18476.5625
-7.821879127,-108454,128,-224254,-16.17356374,128,-28672,-2.06787134,0.452202612,6270,16256,18496.09375
-7.801108098,-108166,128,-224139,-16.16526975,128,-32708,-2.358954234,0.479680953,6651,16896,18515.625
-7.767427298,-107699,128,-223710,-16.13432957,128,-31169,-2.247959047,0.516895713,7167,17536,18535.15625
-7.677996478,-106459,128,-223295,-16.1043991,128,-27712,-1.998634577,1.037758116,14389,18176,18554.6875
-7.574574062,-105025,128,-221913,-16.00472701,128,-24825,-1.790419434,1.181568644,16383,18816,18574.21875
-7.518824043,-104252,128,-222119,-16.01958406,128,-29059,-2.095782411,1.048071509,14532,19456,18593.75
-7.50540942,-104066,128,-222025,-16.01280463,128,-28811,-2.077896247,1.034584765,14345,20096,18613.28125
-7.584743212,-105166,128,-222932,-16.07821895,128,-25556,-1.843140345,1.017636182,14110,20736,18632.8125
-7.661408503,-106229,128,-223103,-16.09055174,128,-28932,-2.086622964,1.052615172,14595,21376,18652.34375
-7.811998464,-108317,128,-224466,-16.18885352,128,-31745,-2.289501105,0.590748261,8191,22016,18671.875
-7.812214829,-108320,128,-224210,-16.17039039,128,-28626,-2.064553745,0.451769883,6264,22656,18691.40625
-7.835005264,-108636,128,-224339,-16.17969408,128,-32768,-2.363281532,0.583896707,8096,23296,18710.9375
-7.804786301,-108217,128,-224244,-16.17284252,128,-28665,-2.067366489,0.450543815,6247,23936,18730.46875
-7.818273046,-108404,128,-224671,-16.20363846,128,-31749,-2.289789592,0.447298342,6202,24576,18750
-7.772115203,-107764,128,-223642,-16.1294253,128,-31106,-2.243415385,0.499370158,6924,25216,18769.53125
-7.743050187,-107361,128,-223608,-16.12697317,128,-31226,-2.25206998,0.512929024,7112,25856,18789.0625
-7.745285957,-107392,128,-223419,-16.11334218,128,-32643,-2.354266328,0.581588814,8064,26496,18808.59375
-7.727832523,-107150,128,-223211,-16.09834088,128,-30692,-2.21355703,0.59067614,8190,27136,18828.125
-7.67100068,-106362,128,-223038,-16.08586384,128,-26622,-1.920022001,1.03393567,14336,27776,18847.65625
-7.671938261,-106375,128,-223324,-16.10649062,128,-30752,-2.217884328,1.035666589,14360,28416,18867.1875
-7.702806318,-106803,128,-222680,-16.0600443,128,-32196,-2.32202796,0.568823286,7887,29056,18886.71875
-7.790289854,-108016,128,-223466,-16.1167319,128,-30970,-2.233606843,0.444269233,6160,29696,18906.25
-7.743987768,-107374,128,-222786,-16.06768919,128,-30719,-2.215504314,0.514659943,7136,30336,18925.78125
-7.770312163,-107739,128,-223084,-16.08918143,128,-30704,-2.21442249,0.501101077,6948,30976,18945.3125
-7.753002972,-107499,128,-222849,-16.07223285,128,-30705,-2.214494612,0.555408663,7701,31616,18964.84375
-7.901789892,-109562,128,-222618,-16.05557275,128,-26509,-1.911872257,0.5171842,7171,32256,18984.375
-6.849895936,-94977,128,-219215,-15.81014285,128,-30736,-2.216730382,0.009159447,127,32896,19003.90625
-7.537503545,-104511,128,-223966,-16.15279271,128,-28381,-2.046883946,0.959578271,13305,33536,19023.4375
-7.812503316,-108324,128,-224352,-16.18063166,128,-27680,-1.996326685,0.445278936,6174,34176,19042.96875
-7.727039185,-107139,128,-223032,-16.08543111,128,-30496,-2.199421191,0.590748261,8191,34816,19062.5
-7.742256849,-107350,128,-223086,-16.08932568,128,-25358,-1.828860262,0.586060355,8126,35456,19082.03125
-7.681818924,-106512,128,-222369,-16.03761447,128,-32766,-2.363137288,0.578126976,8016,36096,19101.5625
-7.679799519,-106484,128,-222576,-16.05254365,128,-28736,-2.072487125,1.03393567,14336,36736,19121.09375
-7.590296577,-105243,128,-221517,-15.97616684,128,-24840,-1.791501259,1.112115516,15420,37376,19140.625
-7.512333097,-104162,128,-220977,-15.93722116,128,-32697,-2.358160896,1.110023988,15391,38016,19160.15625
-7.448793942,-103281,128,-220469,-15.90058337,128,-32576,-2.349434179,1.181568644,16383,38656,19179.6875
-7.379052327,-102314,128,-219917,-15.86077224,128,-32749,-2.361911221,1.116947665,15487,39296,19199.21875
-7.400688815,-102614,128,-220413,-15.89654456,128,-32765,-2.363065167,1.173130414,16266,39936,19218.75
-7.537359302,-104509,128,-221761,-15.99376452,128,-29182,-2.104653371,1.181568644,16383,40576,19238.28125
-7.658307273,-106186,128,-222733,-16.06386674,128,-25101,-1.810325004,1.037830238,14390,41216,19257.8125
-7.712759103,-106941,128,-222844,-16.07187224,128,-26492,-1.91064619,0.590748261,8191,41856,19277.34375
-7.753940553,-107512,128,-223182,-16.09624935,128,-32720,-2.359819694,0.518049659,7183,42496,19296.875
-7.761657567,-107619,128,-223342,-16.10778881,128,-26686,-1.924637786,0.470809993,6528,43136,19316.40625
-7.733385889,-107227,128,-223044,-16.08629657,128,-30692,-2.21355703,0.57473726,7969,43776,19335.9375
-7.72812101,-107154,128,-223608,-16.12697317,128,-27008,-1.94786095,0.55259592,7662,44416,19355.46875
-7.714129414,-106960,128,-223034,-16.08557535,128,-26618,-1.919733515,0.55793292,7736,45056,19375
-7.707638467,-106870,128,-222894,-16.07547832,128,-32701,-2.358449383,0.563125677,7808,45696,19394.53125
-7.720187631,-107044,128,-222739,-16.06429947,128,-25091,-1.809603788,0.554254717,7685,46336,19414.0625
-7.729419199,-107172,128,-223271,-16.10266818,128,-30721,-2.215648558,0.518987241,7196,46976,19433.59375
-7.679078302,-106474,128,-221390,-15.96700739,128,-24784,-1.787462448,1.107788218,15360,47616,19453.125
-7.657946665,-106181,128,-223574,-16.12452103,128,-26750,-1.92925357,1.035017495,14351,48256,19472.65625
-7.65419634,-106129,128,-222360,-16.03696537,128,-31944,-2.30385331,1.108870042,15375,48896,19492.1875
-7.7604315,-107602,128,-222731,-16.0637225,128,-26371,-1.901919472,0.47996944,6655,49536,19511.71875
-7.825413087,-108503,128,-223132,-16.09264327,128,-32672,-2.356357855,0.44369226,6152,50176,19531.25
-7.848347765,-108821,128,-223468,-16.11687614,128,-32738,-2.361117883,0.571780273,7928,50816,19550.78125
-7.857795698,-108952,128,-223640,-16.12928106,128,-31224,-2.251925737,0.588512491,8160,51456,19570.3125
-7.872796997,-109160,128,-223344,-16.10793306,128,-26632,-1.920743218,0.516967835,7168,52096,19589.84375
-7.531878058,-104433,128,-221460,-15.97205591,128,-29148,-2.102201236,1.772966,24583,52736,19609.375
-6.206643129,-86058,128,-220484,-15.9016652,128,-31748,-2.28971747,1.177457711,16326,53376,19628.90625
-7.932297341,-109985,128,-224549,-16.19483962,128,-32005,-2.308252729,0.341495912,4735,54016,19648.4375
-7.827793101,-108536,128,-223362,-16.10923125,128,-31745,-2.289501105,0.516967835,7168,54656,19667.96875
-7.789568638,-108006,128,-222902,-16.0760553,128,-32664,-2.355780882,0.480185804,6658,55296,19687.5
-7.782789204,-107912,128,-222756,-16.06552554,128,-25122,-1.811839558,0.507159294,7032,55936,19707.03125
-7.749036282,-107444,128,-222336,-16.03523446,128,-31776,-2.291736876,0.590531896,8188,56576,19726.5625
-7.736631362,-107272,128,-221909,-16.00443852,128,-24577,-1.77253327,0.516967835,7168,57216,19746.09375
-7.684992276,-106556,128,-220810,-15.92517685,128,-32706,-2.358809991,0.589017342,8167,57856,19765.625
-7.605369998,-105452,128,-222135,-16.02073801,128,-29107,-2.099244249,1.165197035,16156,58496,19785.15625
-7.532527153,-104442,128,-220964,-15.93628358,128,-32546,-2.34727053,1.108220948,15366,59136,19804.6875
-7.511395515,-104149,128,-220363,-15.89293848,128,-31939,-2.303492701,1.070284971,14840,59776,19824.21875
-7.592965078,-105280,128,-221122,-15.9476788,128,-31977,-2.306233323,1.034296278,14341,60416,19843.75
-7.731438605,-107200,128,-221693,-15.98886025,128,-29181,-2.104581249,0.549278325,7616,61056,19863.28125
-7.853468401,-108892,156,-222593,-16.05376971,128,-32768,-2.363281532,0.498504698,6912,62336,19902.34375
-7.873950943,-109176,128,-222661,-16.05867398,128,-30220,-2.179515622,0.572357246,7936,62976,19921.875
-7.896452891,-109488,128,-223101,-16.0904075,128,-30149,-2.174394986,0.574593016,7967,63616,19941.40625
-7.875249133,-109194,128,-223007,-16.08362807,128,-30336,-2.187881731,0.572573611,7939,64256,19960.9375
-7.893423783,-109446,128,-222924,-16.07764197,128,-32708,-2.358954234,0.574665138,7968,64896,19980.46875
-7.892918932,-109439,128,-223106,-16.09076811,128,-30708,-2.214710976,0.524396363,7271,0,20000
-7.868181213,-109096,128,-222609,-16.05492366,128,-31760,-2.29058293,0.517472686,7175,640,20019.53125
-7.880802498,-109271,128,-222627,-16.05622185,128,-29698,-2.141868131,0.586204599,8128,1280,20039.0625
-7.887581931,-109365,128,-222071,-16.01612222,128,-29153,-2.102561844,0.517472686,7175,1920,20058.59375
-7.892197715,-109429,128,-222701,-16.06155885,128,-31756,-2.290294443,0.554543204,7689,2560,20078.125
-7.827504614,-108532,128,-222562,-16.05153394,128,-29716,-2.143166321,0.569472381,7896,3200,20097.65625
-7.806372977,-108239,128,-222665,-16.05896247,128,-29181,-2.104581249,0.44765895,6207,3840,20117.1875
-7.838683467,-108687,128,-221917,-16.00501549,128,-28673,-2.067943462,0.447803193,6209,4480,20136.71875
-7.917800894,-109784,128,-222549,-16.05059636,128,-28872,-2.082295666,0.546898311,7583,5120,20156.25
-7.940158598,-110094,128,-222426,-16.0417254,128,-29699,-2.141940253,0.498937428,6918,5760,20175.78125
-7.948308342,-110207,128,-222639,-16.05708731,128,-30480,-2.198267245,0.444197112,6159,6400,20195.3125
-7.94376468,-110144,128,-222729,-16.06357826,128,-30658,-2.211104895,0.443115287,6144,7040,20214.84375
-8.075314531,-111968,128,-222149,-16.02174771,128,-29668,-2.139704483,0.295265948,4094,7680,20234.375
-7.49076873,-103863,128,-220110,-15.87469171,128,-25137,-1.812921383,0.572357246,7936,8320,20253.90625
-7.046138888,-97698,128,-222076,-16.01648283,128,-32000,-2.307892121,1.054562456,14622,8960,20273.4375
-8.006077767,-111008,128,-224174,-16.16779401,128,-32288,-2.32866315,0.332336465,4608,9600,20292.96875
-7.879504309,-109253,128,-222352,-16.0363884,128,-29951,-2.160114903,0.589738558,8177,10240,20312.5
-7.865873321,-109064,128,-222238,-16.02816654,128,-28680,-2.068448313,0.588800977,8164,10880,20332.03125
-7.866522415,-109073,128,-222376,-16.03811932,128,-28904,-2.084603558,0.590748261,8191,11520,20351.5625
-7.79807899,-108124,128,-221854,-16.00047183,128,-28784,-2.075948963,0.454366261,6300,12160,20371.09375
-7.793535327,-108061,128,-221666,-15.98691296,128,-29441,-2.123332873,0.452274734,6271,12800,20390.625
-7.701291764,-106782,128,-220202,-15.8813269,128,-32258,-2.326499501,0.52605516,7294,13440,20410.15625
-7.642079907,-105961,128,-220335,-15.89091908,128,-32193,-2.321811595,1.040859346,14432,14080,20429.6875
-7.548754519,-104667,128,-219345,-15.81951866,128,-30785,-2.220264342,1.163177629,16128,14720,20449.21875
-7.555389709,-104759,128,-219449,-15.82701931,128,-30745,-2.217379477,1.181568644,16383,15360,20468.75
-7.64842661,-106049,128,-220107,-15.87447534,128,-30724,-2.215864923,1.137141721,15767,16000,20488.28125
-7.763965459,-107651,128,-221684,-15.98821115,128,-32127,-2.317051568,0.570049354,7904,16640,20507.8125
-7.857074482,-108942,128,-222281,-16.03126777,128,-28733,-2.07227076,0.44765895,6207,17280,20527.34375
-7.899265635,-109527,128,-222371,-16.03775871,128,-29429,-2.122467413,0.517544808,7176,17920,20546.875
-7.902727473,-109575,128,-222122,-16.01980043,128,-29767,-2.146844524,0.515813889,7152,18560,20566.40625
-7.91722392,-109776,128,-222458,-16.04403329,128,-28704,-2.070179232,0.475930628,6599,19200,20585.9375
-7.912031163,-109704,128,-222278,-16.0310514,128,-29745,-2.145257848,0.516823592,7166,19840,20605.46875
-7.879432187,-109252,128,-222101,-16.01828587,128,-29695,-2.141651766,0.563125677,7808,20480,20625
-7.87467216,-109186,128,-221811,-15.9973706,128,-28894,-2.083882342,0.58670945,8135,21120,20644.53125
-7.895226824,-109471,128,-222274,-16.03076291,128,-28738,-2.072631368,0.590604018,8189,21760,20664.0625
-7.896525013,-109489,128,-222077,-16.01655495,128,-29407,-2.120880737,0.53535885,7423,22400,20683.59375
-7.894649851,-109463,128,-221995,-16.01064098,128,-28953,-2.088137518,0.580290625,8046,23040,20703.125
-7.883615241,-109310,128,-222474,-16.04518724,128,-30311,-2.18607869,0.516967835,7168,23680,20722.65625
-7.838467102,-108684,128,-222076,-16.01648283,128,-29952,-2.160187025,0.575458476,7979,24320,20742.1875
-7.843587738,-108755,128,-222166,-16.02297378,128,-29696,-2.141723888,0.445351058,6175,24960,20761.71875
-7.871931538,-109148,128,-221815,-15.99765909,128,-28911,-2.08510841,0.586060355,8126,25600,20781.25
-7.961795087,-110394,128,-222264,-16.0300417,128,-28704,-2.070179232,0.45739537,6342,26240,20800.78125
-7.955592627,-110308,128,-222302,-16.03278232,128,-29728,-2.14403178,0.456818397,6334,26880,20820.3125
-7.948308342,-110207,128,-222140,-16.02109862,128,-29628,-2.136819617,0.452346856,6272,27520,20839.84375
-7.928979746,-109939,128,-222242,-16.02845502,128,-30716,-2.215287949,0.487181602,6755,28160,20859.375
-8.054327137,-111677,128,-221572,-15.98013353,128,-30721,-2.215648558,0.294256245,4080,28800,20878.90625
-6.454380924,-89493,128,-217919,-15.71667322,128,-28724,-2.071621665,1.178106806,16335,29440,20898.4375
-7.491201459,-103869,128,-222316,-16.03379202,128,-32670,-2.356213612,0.904116738,12536,30080,20917.96875
-7.930638543,-109962,128,-222807,-16.06920374,128,-28928,-2.086334477,0.445134693,6172,30720,20937.5
-7.869407281,-109113,128,-221908,-16.0043664,128,-28928,-2.086334477,0.586204599,8128,31360,20957.03125
-7.846472603,-108795,128,-221633,-15.98453295,128,-28865,-2.081790815,0.572429368,7937,32000,20976.5625
-7.826062182,-108512,128,-221507,-15.97544563,128,-29152,-2.102489722,0.580579112,8050,32640,20996.09375
-7.815027573,-108359,128,-221361,-15.96491587,128,-28921,-2.085829626,0.443980747,6156,33280,21015.625
-7.737713186,-107287,128,-220956,-15.93570661,128,-28674,-2.068015584,0.554471082,7688,33920,21035.15625
-7.687011681,-106584,128,-220316,-15.88954877,128,-32633,-2.353545112,0.590748261,8191,34560,21054.6875
-7.57580013,-105042,128,-219729,-15.84721337,128,-32513,-2.344890516,1.105696691,15331,35200,21074.21875
-7.532094423,-104436,128,-218996,-15.79434822,128,-31859,-2.297722971,1.163177629,16128,35840,21093.75
-7.536349599,-104495,128,-219284,-15.81511924,128,-30849,-2.224880126,1.178178928,16336,36480,21113.28125
-7.668404301,-106326,128,-220749,-15.92077743,128,-30781,-2.219975855,1.025208953,14215,37120,21132.8125
-7.768364879,-107712,128,-221599,-15.98208082,128,-29060,-2.095854532,0.447731071,6208,37760,21152.34375
-7.869190916,-109110,128,-222176,-16.02369499,128,-26113,-1.883312092,0.586204599,8128,38400,21171.875
-7.892197715,-109429,128,-222679,-16.05997217,128,-29177,-2.104292763,0.525189701,7282,39040,21191.40625
-7.940807693,-110103,128,-223102,-16.09047962,128,-29634,-2.137252347,0.463742073,6430,39680,21210.9375
-7.944630139,-110156,128,-223432,-16.11427976,128,-32514,-2.344962638,0.459847505,6376,40320,21230.46875
-7.950111383,-110232,128,-223414,-16.11298157,128,-30817,-2.222572234,0.444269233,6160,40960,21250
-7.963958736,-110424,128,-223392,-16.1113949,128,-30713,-2.215071585,0.479320345,6646,41600,21269.53125
-7.947659248,-110198,128,-223369,-16.1097361,128,-30735,-2.21665826,0.45696264,6336,42240,21289.0625
-7.960424776,-110375,128,-223445,-16.11521734,128,-32603,-2.351381463,0.443331652,6147,42880,21308.59375
-7.951914424,-110257,128,-223059,-16.08737839,128,-30713,-2.215071585,0.477733669,6624,43520,21328.125
-7.897751081,-109506,128,-223078,-16.0887487,128,-30273,-2.183338068,0.497927725,6904,44160,21347.65625
-7.867532118,-109087,128,-223109,-16.09098447,128,-31745,-2.289501105,0.588512491,8160,44800,21367.1875
-7.88267766,-109297,128,-222844,-16.07187224,128,-30720,-2.215576436,0.58137245,8061,45440,21386.71875
-7.938932531,-110077,128,-222734,-16.06393886,128,-28871,-2.082223544,0.570554205,7911,46080,21406.25
-7.997639537,-110891,128,-222284,-16.03148413,128,-31872,-2.298660552,0.290866529,4033,46720,21425.78125
-8.018843295,-111185,128,-222887,-16.07497347,128,-30782,-2.220047977,0.29137138,4040,47360,21445.3125
-7.993744969,-110837,128,-224706,-16.20616272,128,-32738,-2.361117883,0.286250745,3969,48000,21464.84375
-8.095869195,-112253,128,-223665,-16.1310841,128,-32753,-2.362199707,0.293318664,4067,48640,21484.375
-7.884480701,-109322,128,-222055,-16.01496828,128,-32276,-2.32779769,0.110850943,1537,49280,21503.90625
-6.523545566,-90452,128,-221999,-16.01092947,128,-31748,-2.28971747,0.576828787,7998,49920,21523.4375
-8.089955221,-112171,128,-224905,-16.22051492,128,-32542,-2.346982044,0.961092825,13326,50560,21542.96875
-7.987975238,-110757,128,-223355,-16.1087264,128,-31728,-2.288275038,0.259637864,3600,51200,21562.5
-7.963958736,-110424,128,-222983,-16.08189715,128,-30592,-2.206344868,0.445351058,6175,51840,21582.03125
-7.959054465,-110356,128,-222824,-16.07042981,128,-30328,-2.187304758,0.446505004,6191,52480,21601.5625
-7.920541515,-109822,128,-222897,-16.07569469,128,-30724,-2.215864923,0.455808694,6320,53120,21621.09375
-7.907487501,-109641,128,-222859,-16.07295407,128,-28687,-2.068953165,0.511702956,7095,53760,21640.625
-7.834644656,-108631,128,-222412,-16.0407157,128,-30208,-2.178650162,0.553894109,7680,54400,21660.15625
-7.764975162,-107665,128,-221392,-15.96715164,128,-28673,-2.067943462,0.516967835,7168,55040,21679.6875
-7.678140721,-106461,128,-221099,-15.94602,128,-32705,-2.358737869,0.572501489,7938,55680,21699.21875
-7.642729001,-105970,128,-220405,-15.89596759,128,-32765,-2.363065167,1.047999388,14531,56320,21718.75
-7.668043693,-106321,128,-221033,-15.94125997,128,-32761,-2.36277668,1.034152035,14339,56960,21738.28125
-7.845823508,-108786,128,-222619,-16.05564488,128,-28927,-2.086262356,0.572285124,7935,57600,21757.8125
-7.917296042,-109777,128,-222746,-16.06480432,128,-28681,-2.068520435,0.466122087,6463,58240,21777.34375
-8.002760172,-110962,128,-223682,-16.13231017,128,-32261,-2.326715866,0.272403392,3777,58880,21796.875
-8.01105416,-111077,128,-223796,-16.14053203,128,-30724,-2.215864923,0.256248147,3553,59520,21816.40625
-8.018626931,-111182,128,-223597,-16.12617983,128,-32753,-2.362199707,0.292525326,4056,60160,21835.9375
-8.014515998,-111125,128,-223675,-16.13180532,128,-32767,-2.36320941,0.29180411,4046,60800,21855.46875
-8.012280227,-111094,128,-223342,-16.10778881,128,-30721,-2.215648558,0.29093865,4034,61440,21875
-7.981051562,-110661,128,-223690,-16.13288714,128,-31904,-2.300968444,0.266777905,3699,62080,21894.53125
-7.977301237,-110609,128,-223423,-16.11363067,128,-32319,-2.33089892,0.293607151,4071,62720,21914.0625
-7.963093276,-110412,128,-223245,-16.10079302,128,-30981,-2.234400181,0.295049583,4091,63360,21933.59375
-7.906261433,-109624,128,-223038,-16.08586384,128,-30653,-2.210744287,0.516895713,7167,64000,21953.125
-7.892053472,-109427,128,-223714,-16.13461806,128,-32516,-2.345106881,0.534493391,7411,64640,21972.65625
-7.912391771,-109709,128,-223026,-16.08499838,128,-32113,-2.316041865,0.516679349,7164,65280,21992.1875
-8.032907013,-111380,128,-223553,-16.12300648,128,-32720,-2.359819694,0.259349377,3596,384,22011.71875
-8.038893108,-111463,128,-223698,-16.13346411,128,-32765,-2.363065167,0.258483918,3584,1024,22031.25
-8.058942921,-111741,128,-224028,-16.15726425,128,-32768,-2.363281532,0.217158224,3011,1664,22050.78125
-8.046321636,-111566,128,-224066,-16.16000487,128,-30952,-2.232308654,0.222062495,3079,2304,22070.3125
-8.167918702,-113252,128,-224279,-16.17536678,128,-32711,-2.359170599,0.036854152,511,2944,22089.84375
-7.166509887,-99367,128,-219965,-15.86423407,128,-28673,-2.067943462,1.23717442,17154,3584,22109.375
-6.630574063,-91936,128,-221511,-15.97573411,128,-24904,-1.796117043,0.450038964,6240,4224,22128.90625
-8.05093742,-111630,128,-224519,-16.19267597,128,-32753,-2.362199707,0.148282069,2056,4864,22148.4375
-7.980186102,-110649,128,-223700,-16.13360836,128,-31227,-2.252142102,0.265407594,3680,5504,22167.96875
-7.95660233,-110322,128,-223037,-16.08579172,128,-28673,-2.067943462,0.5171842,7171,6144,22187.5
-7.928835503,-109937,128,-223279,-16.10324515,128,-32754,-2.362271829,0.484152494,6713,6784,22207.03125
-7.933811895,-110006,128,-223241,-16.10050453,128,-32269,-2.327292839,0.488912521,6779,7424,22226.5625
-7.8481314,-108818,128,-222151,-16.02189195,128,-29183,-2.104725493,0.534853999,7416,8064,22246.09375
-7.799160814,-108139,128,-222134,-16.02066589,128,-29600,-2.134800212,0.472324547,6549,8704,22265.625
-7.68254014,-106522,128,-221207,-15.95380914,128,-28994,-2.091094505,0.522016349,7238,9344,22285.15625
-7.632343487,-105826,128,-221082,-15.94479393,128,-32569,-2.348929328,1.067111619,14796,9984,22304.6875
-7.643378096,-105979,128,-221340,-15.96340131,128,-28925,-2.086118112,1.070861944,14848,10624,22324.21875
-7.698983872,-106750,128,-221384,-15.96657466,128,-32764,-2.362993045,1.051316983,14577,11264,22343.75
-7.821374276,-108447,128,-222704,-16.06177521,128,-26624,-1.920166245,0.443187409,6145,11904,22363.28125
-7.955664749,-110309,128,-223350,-16.10836579,128,-30717,-2.215360071,0.485090075,6726,12544,22382.8125
-7.979609129,-110641,128,-223686,-16.13259865,128,-32744,-2.361550613,0.294184124,4079,13184,22402.34375
-8.009828092,-111060,128,-224006,-16.15567758,128,-31857,-2.297578728,0.294184124,4079,13824,22421.875
-8.002904415,-110964,128,-224074,-16.16058185,128,-32528,-2.345972341,0.258916647,3590,14464,22441.40625
-7.98097944,-110660,128,-223747,-16.13699807,128,-30832,-2.223654058,0.287188326,3982,15104,22460.9375
-7.98848009,-110764,128,-224044,-16.1584182,128,-32648,-2.354626936,0.287332569,3984,15744,22480.46875
-7.980690954,-110656,128,-224061,-16.15964427,128,-31552,-2.275581631,0.290794407,4032,16384,22500
-7.962516303,-110404,128,-223437,-16.11464037,128,-30727,-2.216081287,0.460352356,6383,17024,22519.53125
-7.974632737,-110572,128,-224067,-16.16007699,128,-31615,-2.280125294,0.443403774,6148,17664,22539.0625
-7.893423783,-109446,128,-223277,-16.10310091,128,-30734,-2.216586139,0.580867598,8054,18304,22558.59375
-7.878278241,-109236,128,-223756,-16.13764717,128,-31492,-2.271254333,0.57697303,8000,18944,22578.125
-7.920180907,-109817,128,-223256,-16.10158635,128,-30745,-2.217379477,0.516895713,7167,19584,22597.65625
-8.010909916,-111075,128,-223654,-16.13029076,128,-32753,-2.362199707,0.260575445,3613,20224,22617.1875
-8.045384055,-111553,128,-224527,-16.19325294,128,-32756,-2.362416072,0.221990373,3078,20864,22636.71875
-8.052812583,-111656,128,-224239,-16.17248192,128,-32711,-2.359170599,0.204464818,2835,21504,22656.25
