Device,Device,Device,Device,Device,Device,Device,Device,Device,Device,Device,Device
ECG LL-RA,ECG LL-RA,EXG2 Status,ECG LA-RA,ECG LA-RA,EXG1 Status,ECG Vx-RL,ECG Vx-RL,ExG2 CH1,ExG2 CH1,Timestamp,Timestamp
CAL,RAW,RAW,RAW,CAL,RAW,RAW,CAL,CAL,RAW,CAL,RAW
mV,No Units,No Units,No Units,mV,No Units,No Units,mV,mV,No Units,mSecs,No Units
6.294054543,87270,128,-67411,-4.861791117,128,-25600,-1.846313697,0.004543663,63,58.59375,1920
8.10538925,112385,128,-66834,-4.820176938,128,-2033,-0.146623271,1.158706088,16066,78.125,2560
8.073367247,111941,128,-66132,-4.769547554,128,-900,-0.064909466,1.130795018,15679,97.65625,3200
8.053533799,111666,128,-65484,-4.722812739,128,-29,-0.002091527,1.116947665,15487,117.1875,3840
8.021151188,111217,128,-65696,-4.738102524,128,-1,-7.21E-05,1.029824737,14279,136.71875,4480
8.029733661,111336,128,-65450,-4.720360603,128,32702,2.358521504,1.035955076,14364,156.25,5120
8.039325838,111469,128,-64994,-4.687473141,128,528,0.03808022,1.048215753,14534,175.78125,5760
8.08634914,112121,128,-64336,-4.640017109,128,-16337,-1.178251049,1.116947665,15487,195.3125,6400
8.147291916,112966,128,-63504,-4.580011914,128,67582,4.874123916,1.063361295,14744,214.84375,7040
8.237588196,114218,128,-62766,-4.526786152,128,-62463,-4.504933298,1.148825425,15929,234.375,7680
8.272062334,114696,128,-62308,-4.493754446,128,101630,7.329721132,1.181063793,16376,253.90625,8320
8.251363427,114409,128,-62407,-4.500894487,128,102012,7.357271595,8.65E-04,12,273.4375,8960
8.170731446,113291,128,-63422,-4.57409794,128,-32641,-2.354122085,1.163105507,16127,292.96875,9600
8.091253411,112189,128,-63982,-4.614486052,128,99090,7.146532195,1.033647184,14332,312.5,10240
8.015814187,111143,128,-64817,-4.674707612,128,98559,7.108235611,1.043022995,14462,332.03125,10880
8.00975597,111059,128,-64631,-4.661292989,128,99328,7.163697143,1.03480113,14348,351.5625,11520
7.99511528,110856,128,-65058,-4.692088925,128,98809,7.126266018,1.03393567,14336,371.09375,12160
7.99028313,110789,128,-65238,-4.705070818,128,98380,7.095325839,1.036099319,14366,390.625,12800
7.991725563,110809,128,-65127,-4.697065317,128,98304,7.089844595,1.069419511,14828,410.15625,13440
7.990860103,110797,128,-65153,-4.69894048,128,98557,7.108091367,1.051244861,14576,429.6875,14080
8.021944525,111228,128,-64841,-4.676438531,128,99324,7.163408657,1.066101917,14782,449.21875,14720
7.972469088,110542,128,-65323,-4.711201157,128,98876,7.131098167,1.03393567,14336,468.75,15360
7.98537886,110721,128,-65151,-4.698796236,128,98535,7.106504691,1.179332874,16352,488.28125,16000
7.979104278,110634,128,-65288,-4.7086769,128,98616,7.112346543,1.180342577,16366,507.8125,16640
7.96814179,110482,128,-65196,-4.70204171,128,-32653,-2.354987544,1.034152035,14339,527.34375,17280
7.985306738,110720,128,-65115,-4.696199858,128,-32449,-2.340274732,1.036171441,14367,546.875,17920
7.977301237,110609,128,-65174,-4.700455034,128,-32633,-2.353545112,1.05030728,14563,566.40625,18560
7.982926724,110687,128,-65141,-4.69807502,128,98439,7.099581015,1.050090915,14560,585.9375,19200
7.989561914,110779,128,-65014,-4.688915573,128,98304,7.089844595,1.03393567,14336,605.46875,19840
7.991509198,110806,128,-64992,-4.687328897,128,-32256,-2.326355258,1.051749712,14583,625,20480
8.026993039,111298,128,-64615,-4.660139043,128,-32700,-2.358377261,1.181424401,16381,644.53125,21120
8.07437695,111955,128,-64715,-4.667351206,128,-31775,-2.291664754,1.172337076,16255,664.0625,21760
8.140151875,112867,128,-63994,-4.615351512,128,98332,7.091864001,1.179332874,16352,683.59375,22400
8.117289319,112550,128,-63434,-4.5749634,128,-31208,-2.250771791,1.181568644,16383,703.125,23040
7.989345549,110776,128,-65039,-4.690718614,128,98304,7.089844595,1.066101917,14782,722.65625,23680
7.955592627,110308,128,-64820,-4.674923977,128,98425,7.098571312,1.181063793,16376,742.1875,24320
7.942250126,110123,128,-65317,-4.710768427,128,98304,7.089844595,1.165197035,16156,761.71875,24960
7.99071586,110795,128,-64726,-4.668144544,128,-32641,-2.354122085,1.177529833,16327,781.25,25600
7.94953441,110224,128,-65459,-4.721009698,128,98304,7.089844595,1.172409197,16256,800.78125,26240
7.95039987,110236,128,-65634,-4.733630983,128,-1,-7.21E-05,1.145363587,15881,820.3125,26880
8.08591641,112115,128,-63942,-4.611601187,128,-32755,-2.362343951,6.49E-04,9,839.84375,27520
8.147652524,112971,128,-58097,-4.190050267,128,123111,8.87896584,1.181352279,16380,859.375,28160
7.984369157,110707,128,-68454,-4.937013976,128,-31777,-2.291808998,1.170173427,16225,878.90625,28800
7.995836496,110866,128,-67207,-4.847078305,128,-2129,-0.153546948,1.173491022,16271,898.4375,29440
8.02526212,111274,128,-66226,-4.776326987,128,-1032,-0.074429521,1.167577048,16189,917.96875,30080
8.019997241,111201,128,-66321,-4.783178542,128,-769,-0.055461533,1.163249751,16129,937.5,30720
8.0385325,111458,128,-66198,-4.774307582,128,-1,-7.21E-05,1.174644968,16287,957.03125,31360
8.050144082,111619,128,-66140,-4.770124527,128,-859,-0.061952479,1.172769806,16261,976.5625,32000
8.042354946,111511,128,-66584,-4.80214653,128,65532,4.726274577,1.107499731,15356,996.09375,32640
8.052379853,111650,128,-66461,-4.79327557,128,-897,-0.064693101,1.112331881,15423,1015.625,33280
8.054110772,111674,128,-66491,-4.795439219,128,-128,-0.009231568,1.181568644,16383,1035.15625,33920
8.106326831,112398,128,-65484,-4.722812739,128,-253,-0.018246772,1.16368248,16135,1054.6875,34560
8.168423554,113259,128,-65037,-4.690574371,128,-32640,-2.354049963,1.118390097,15507,1074.21875,35200
8.239246993,114241,128,-64109,-4.623645499,128,99315,7.162759562,1.152792114,15984,1093.75,35840
8.307834662,115192,128,-63540,-4.582608292,128,99327,7.163625021,0.004038811,56,1113.28125,36480
8.342164557,115668,128,-63646,-4.590253185,128,100292,7.233222393,0,0,1132.8125,37120
8.246459156,114341,128,-64481,-4.650474745,128,99327,7.163625021,0.053081519,736,1152.34375,37760
8.127025739,112685,128,-66002,-4.760171742,128,98313,7.09049369,1.070861944,14848,1171.875,38400
8.052596218,111653,128,-66751,-4.814190842,128,-541,-0.039017801,1.148104208,15919,1191.40625,39040
8.042931919,111519,128,-66895,-4.824576357,128,-452,-0.032598976,1.114784016,15457,1210.9375,39680
8.032907013,111380,128,-66824,-4.819455721,128,-272,-0.019617083,1.173491022,16271,1230.46875,40320
8.044807082,111545,128,-66611,-4.804093814,128,-1595,-0.115033998,1.181135914,16377,1250,40960
8.009900213,111061,128,-67127,-4.841308575,128,65512,4.724832144,1.17471709,16288,1269.53125,41600
8.001245618,110941,128,-67259,-4.85082863,128,-2041,-0.147200244,1.165269156,16157,1289.0625,42240
8.051947123,111644,128,-66539,-4.798901057,128,-289,-0.020843151,1.108293069,15367,1308.59375,42880
8.03009427,111341,128,-66839,-4.820537546,128,-1012,-0.072987088,1.174933454,16291,1328.125,43520
8.056995637,111714,128,-66087,-4.766302081,128,65523,4.725625482,1.116442813,15480,1347.65625,44160
8.015453579,111138,128,-66574,-4.801425314,128,-193,-0.013919474,1.181135914,16377,1367.1875,44800
8.026704553,111294,128,-66516,-4.79724226,128,64536,4.654441435,1.173563143,16272,1386.71875,45440
8.000668645,110933,128,-66675,-4.808709599,128,-796,-0.057408817,1.172337076,16255,1406.25,46080
7.988768576,110768,128,-66671,-4.808421112,128,63873,4.606624795,1.051244861,14576,1425.78125,46720
7.985883711,110728,128,-66693,-4.810007788,128,-468,-0.033752922,1.138295667,15783,1445.3125,47360
8.017184498,111162,128,-66136,-4.769836041,128,-784,-0.056543357,1.172625562,16259,1464.84375,48000
7.960857506,110381,128,-67000,-4.832149128,128,63994,4.615351512,1.050090915,14560,1484.375,48640
8.048918015,111602,128,-65995,-4.759666891,128,64572,4.657037813,1.172409197,16256,1503.90625,49280
8.106326831,112398,128,-65854,-4.749497741,128,65408,4.717331495,1.181352279,16380,1523.4375,49920
8.117722048,112556,128,-65251,-4.706008399,128,-32762,-2.362848802,1.14550783,15883,1542.96875,50560
8.081444869,112053,128,-65172,-4.700310791,128,-32660,-2.355492396,1.181568644,16383,1562.5,51200
7.989850401,110783,128,-65714,-4.739400713,128,-256,-0.018463137,1.119255557,15519,1582.03125,51840
7.947010153,110189,128,-65729,-4.740482538,128,65295,4.709181751,1.145002978,15876,1601.5625,52480
7.914699663,109741,128,-65905,-4.753175944,128,65505,4.724327293,1.164331575,16144,1621.09375,53120
7.939365261,110083,128,-65726,-4.740266173,128,64766,4.671029409,1.145002978,15876,1640.625,53760
7.913834204,109729,128,-66066,-4.764787527,128,65520,4.725409117,1.126828328,15624,1660.15625,54400
7.957251424,110331,128,-65812,-4.746468633,128,-477,-0.034402017,1.172337076,16255,1679.6875,55040
8.101278317,112328,128,-63091,-4.550225681,128,101765,7.339457552,0.111644281,1548,1699.21875,55680
8.101783169,112335,128,-61136,-4.409227897,128,122880,8.862305744,1.179332874,16352,1718.75,56320
7.843155008,108749,128,-68927,-4.971127507,128,-4096,-0.295410191,1.158633966,16065,1738.28125,56960
7.970089074,110509,128,-66162,-4.771711203,128,63992,4.615207269,0.002019406,28,1757.8125,57600
7.986027954,110730,128,-65651,-4.734857051,128,65413,4.717692103,1.177024982,16320,1777.34375,58240
8.023098472,111244,128,-64959,-4.684948884,128,98753,7.122227206,1.163177629,16128,1796.875,58880
8.019780877,111198,128,-65079,-4.693603479,128,-32252,-2.326066771,1.180703185,16371,1816.40625,59520
8.014804484,111129,128,-65211,-4.703123534,128,98908,7.133406059,1.177313468,16324,1835.9375,60160
8.017328741,111164,128,-64937,-4.683362208,128,-31903,-2.300896323,1.158056993,16057,1855.46875,60800
8.005212308,110996,128,-65267,-4.707162345,128,98567,7.108812584,1.174572846,16286,1875,61440
8.043653136,111529,128,-64115,-4.624078229,128,-32737,-2.361045761,0.006995798,97,1894.53125,62080
8.08324791,112078,128,-63864,-4.6059757,128,-32256,-2.326355258,0.005697609,79,1914.0625,62720
8.16294231,113183,128,-62856,-4.533277098,128,99276,7.159946818,1.177169225,16322,1933.59375,63360
8.27278355,114706,128,-61929,-4.466420348,128,101376,7.311402239,0.004471541,62,1953.125,64000
8.307401932,115186,128,-61569,-4.440456562,128,-15506,-1.118317976,0.018535259,257,1972.65625,64640
8.275956902,114750,128,-61846,-4.460434253,128,102398,7.385110543,0.01817465,252,1992.1875,65280
8.214148666,113893,128,-62367,-4.498009622,128,-16384,-1.181640766,1.115072503,15461,2011.71875,384
8.088007937,112144,128,-63514,-4.58073313,128,114744,8.275524172,1.180775306,16372,2031.25,1024
8.039109473,111466,128,-63904,-4.608860565,128,100344,7.236972718,1.180342577,16366,2050.78125,1664
8.014588119,111126,128,-63941,-4.611529066,128,100225,7.228390244,1.181063793,16376,2070.3125,2304
8.003409267,110971,128,-63977,-4.614125444,128,-31209,-2.250843912,1.163826724,16137,2089.84375,2944
7.996341347,110873,128,-63797,-4.601143551,128,100295,7.233438758,1.146445411,15896,2109.375,3584
7.970593926,110516,128,-64064,-4.620400026,128,-30753,-2.21795645,1.10786034,15361,2128.90625,4224
7.976003048,110591,128,-64052,-4.619534566,128,-30752,-2.217884328,1.149835128,15943,2148.4375,4864
7.973695156,110559,128,-63599,-4.586863469,128,-16244,-1.171543738,1.155027885,16015,2167.96875,5504
7.961795087,110394,128,-63824,-4.603090835,128,100348,7.237261204,1.16764917,16190,2187.5,6144
7.92696034,109911,128,-64187,-4.629270986,128,-32301,-2.329600731,1.149258155,15935,2207.03125,6784
7.925806394,109895,128,-63752,-4.597898078,128,-30724,-2.215864923,1.177529833,16327,2226.5625,7424
7.917945137,109786,128,-63883,-4.607346011,128,-32381,-2.335370461,1.111177935,15407,2246.09375,8064
7.927753678,109922,128,-63833,-4.60373993,128,98624,7.112923516,1.139810221,15804,2265.625,8704
7.902727473,109575,128,-64025,-4.617587282,128,100317,7.235025434,1.113269462,15436,2285.15625,9344
7.885201917,109332,128,-63987,-4.61484666,128,-30848,-2.224808004,1.181135914,16377,2304.6875,9984
7.88000916,109260,128,-64082,-4.621698215,128,98690,7.117683544,1.149618763,15940,2324.21875,10624
7.892269837,109430,128,-63681,-4.592777442,128,-30736,-2.216730382,1.156037588,16029,2343.75,11264
7.909867514,109674,128,-63591,-4.586286495,128,98780,7.12417449,1.116875543,15486,2363.28125,11904
7.969728466,110504,128,-63121,-4.55238933,128,-16384,-1.181640766,1.168009778,16195,2382.8125,12544
7.983864305,110700,128,-62989,-4.542869275,128,100593,7.254931003,1.145724195,15886,2402.34375,13184
7.948452586,110209,128,-63062,-4.548134154,128,-29954,-2.160331268,1.145796316,15887,2421.875,13824
7.869767889,109118,128,-63428,-4.57453067,128,-32417,-2.33796684,1.181568644,16383,2441.40625,14464
7.798872328,108135,128,-63945,-4.611817552,128,-30777,-2.219687369,1.154018182,16001,2460.9375,15104
7.811782099,108314,128,-63680,-4.59270532,128,100350,7.237405448,1.181208036,16378,2480.46875,15744
7.809762694,108286,128,-63944,-4.61174543,128,99900,7.204950715,1.145147222,15878,2500,16384
7.795194125,108084,128,-64183,-4.6289825,128,-32701,-2.358449383,1.154883642,16013,2519.53125,17024
7.810267545,108293,128,-63925,-4.610375119,128,-30961,-2.232957749,1.163249751,16129,2539.0625,17664
7.964102979,110426,128,-59072,-4.260368855,128,-28675,-2.068087705,0.221774008,3075,2558.59375,18304
8.001750469,110948,128,-55436,-3.998134613,128,122900,8.863748177,0.889980899,12340,2578.125,18944
7.793968057,108067,128,-67016,-4.833303074,128,-1,-7.21E-05,0.908660401,12599,2597.65625,19584
7.810123302,108291,128,-64905,-4.681054316,128,65039,4.690718614,1.174428603,16284,2617.1875,20224
7.844669562,108770,128,-63713,-4.595085334,128,98335,7.092080366,0.016155245,224,2636.71875,20864
7.872724876,109159,128,-63382,-4.571213075,128,-30721,-2.215648558,1.171760103,16247,2656.25,21504
7.835870723,108648,128,-63869,-4.606336308,128,100064,7.216778662,1.112115516,15420,2675.78125,22144
7.873157605,109165,128,-63522,-4.581310103,128,-16224,-1.170101305,5.05E-04,7,2695.3125,22784
7.859670861,108978,128,-63810,-4.602081132,128,-32705,-2.358737869,1.181568644,16383,2714.84375,23424
7.873229727,109166,128,-63309,-4.565948196,128,100255,7.230553893,1.179332874,16352,2734.375,24064
7.901501405,109558,128,-63095,-4.550514168,128,101376,7.311402239,1.179332874,16352,2753.90625,24704
7.920541515,109822,128,-62892,-4.535873477,128,102126,7.36549346,1.165485521,16160,2773.4375,25344
8.013650538,111113,128,-61622,-4.444279008,128,101903,7.349410337,0.009231568,128,2792.96875,25984
8.054255015,111676,128,-61361,-4.425455263,128,114767,8.27718297,0.002163649,30,2812.5,26624
8.134454266,112788,128,-60771,-4.382903502,128,115407,8.323340812,0.008366109,116,2832.03125,27264
8.140079753,112866,128,-60730,-4.379946516,128,-16377,-1.181135914,1.180703185,16371,2851.5625,27904
8.010765673,111073,128,-62316,-4.494331419,128,115263,8.312955298,1.107932461,15362,2871.09375,28544
7.9535011,110279,128,-63101,-4.550946897,128,-28799,-2.077030787,1.153873939,15999,2890.625,29184
7.917368164,109778,128,-63312,-4.566164561,128,100336,7.236395745,1.163177629,16128,2910.15625,29824
7.879360065,109251,128,-63604,-4.587224077,128,-30689,-2.213340666,1.149258155,15935,2929.6875,30464
7.852819306,108883,128,-64206,-4.630641297,128,-16077,-1.159499426,2.16E-04,3,2949.21875,31104
7.8764752,109211,128,-63853,-4.605182362,128,-31744,-2.289428984,1.179693482,16357,2968.75,31744
7.849645954,108839,128,-64534,-4.654297191,128,-32534,-2.346405071,1.16368248,16135,2988.28125,32384
7.895154702,109470,128,-63911,-4.609365417,128,-32656,-2.355203909,0.001947284,27,3007.8125,33024
7.850511414,108851,128,-64451,-4.648311096,128,-32705,-2.358737869,1.166855832,16179,3027.34375,33664
7.891260134,109416,128,-63787,-4.600422335,128,100351,7.237477569,1.179765604,16358,3046.875,34304
7.86493574,109051,128,-64358,-4.641603785,128,-16177,-1.166711589,2.16E-04,3,3066.40625,34944
7.862411483,109016,128,-64137,-4.625664905,128,100351,7.237477569,1.181063793,16376,3085.9375,35584
7.839116197,108693,128,-63861,-4.605759335,128,98431,7.099004042,1.176736495,16316,3105.46875,36224
7.836303453,108654,128,-64064,-4.620400026,128,100288,7.232933907,1.172264954,16254,3125,36864
7.850222927,108847,128,-63942,-4.611601187,128,100350,7.237405448,0,0,3144.53125,37504
7.852458698,108878,128,-63763,-4.598691416,128,100335,7.236323623,0.001009703,14,3164.0625,38144
7.851593238,108866,128,-63789,-4.600566578,128,-30815,-2.222427991,1.178106806,16335,3183.59375,38784
7.834572534,108630,128,-64141,-4.625953391,128,-15245,-1.099494231,0.00223577,31,3203.125,39424
7.90835296,109653,128,-64144,-4.626169756,128,116735,8.419118335,1.15394606,16000,3222.65625,40064
7.982421873,110680,128,-62847,-4.532628004,128,-16380,-1.181352279,0.00223577,31,3242.1875,40704
7.964607831,110433,128,-62559,-4.511856975,128,100848,7.273322019,1.179332874,16352,3261.71875,41344
7.831254939,108584,128,-63720,-4.595590186,128,-16157,-1.165269156,1.172914049,16263,3281.25,41984
7.782284353,107905,128,-63857,-4.605470849,128,98319,7.09092642,1.172409197,16256,3300.78125,42624
7.781635258,107896,128,-63663,-4.591479253,128,100127,7.221322324,1.181496523,16382,3320.3125,43264
7.781130407,107889,128,-63660,-4.591262888,128,-31756,-2.290294443,1.14464237,15871,3339.84375,43904
7.772331568,107767,128,-63762,-4.598619294,128,114691,8.271701726,1.144714492,15872,3359.375,44544
7.792381381,108045,128,-63666,-4.591695618,128,-32754,-2.362271829,1.145652073,15885,3378.90625,45184
7.872003659,109149,128,-62999,-4.543590491,128,-30215,-2.179155013,0.064548858,895,3398.4375,45824
8.045023447,111548,128,-54192,-3.908415307,128,126983,9.158220787,0.073275575,1016,3417.96875,46464
7.791227435,108029,128,-65161,-4.699517453,128,-32265,-2.327004352,0.738309114,10237,3437.5,47104
7.797862625,108121,128,-64914,-4.68170341,128,-127,-0.009159447,1.173491022,16271,3457.03125,47744
7.819931843,108427,128,-63744,-4.597321105,128,-32768,-2.363281532,0.014063718,195,3476.5625,48384
7.829235533,108556,128,-63683,-4.592921685,128,115184,8.307257689,1.177890441,16332,3496.09375,49024
7.858805401,108966,128,-63072,-4.54885537,128,115184,8.307257689,1.176880738,16318,3515.625,49664
7.857579333,108949,128,-63197,-4.557870574,128,101394,7.312700428,1.170245549,16226,3535.15625,50304
7.874816403,109188,128,-62695,-4.521665516,128,114717,8.273576888,1.172409197,16256,3554.6875,50944
7.865512713,109059,128,-62854,-4.533132855,128,-30082,-2.169562837,1.144930857,15875,3574.21875,51584
7.901212919,109554,128,-62097,-4.478536782,128,-29695,-2.141651766,0.019544961,271,3593.75,52224
7.903881419,109591,128,-62294,-4.492744743,128,114824,8.281293903,0,0,3613.28125,52864
7.984224914,110705,128,-61247,-4.417233398,128,114887,8.285837565,0,0,3632.8125,53504
8.082887302,112073,128,-60117,-4.335735957,128,116543,8.405270982,0,0,3652.34375,54144
8.145416754,112940,128,-59649,-4.301983035,128,-14680,-1.05874551,0.011467339,159,3671.875,54784
8.155369539,113078,128,-59591,-4.29779998,128,115704,8.344760936,0.003894568,54,3691.40625,55424
8.101134074,112326,128,-60335,-4.351458472,128,114800,8.279562983,1.177024982,16320,3710.9375,56064
7.9561696,110316,128,-61645,-4.445937806,128,114973,8.292040025,1.172409197,16256,3730.46875,56704
7.914266934,109735,128,-61997,-4.471324619,128,-14341,-1.034296278,1.156758804,16039,3750,57344
7.875321254,109195,128,-62216,-4.487119256,128,-16177,-1.166711589,1.181280158,16379,3769.53125,57984
7.880586133,109268,128,-62049,-4.475074944,128,100255,7.230553893,1.181352279,16380,3789.0625,58624
7.872652754,109158,128,-62156,-4.482791958,128,102384,7.384100841,0.017886164,248,3808.59375,59264
7.847626549,108811,128,-62555,-4.511568488,128,-14169,-1.021891358,1.179549239,16355,3828.125,59904
7.857939942,108954,128,-62191,-4.485316215,128,-28703,-2.070107111,0.004399419,61,3847.65625,60544
7.824042776,108484,128,-62684,-4.520872178,128,114688,8.271485361,0,0,3867.1875,61184
7.856930239,108940,128,-61958,-4.468511876,128,115966,8.363656803,1.181352279,16380,3886.71875,61824
7.86803697,109094,128,-61869,-4.462093051,128,102272,7.376023218,0,0,3906.25,62464
7.843731981,108757,128,-61943,-4.467430051,128,-14449,-1.042085414,0.016083123,223,3925.78125,63104
7.830822209,108578,128,-62034,-4.473993119,128,-12745,-0.919190159,1.172625562,16259,3945.3125,63744
7.85873328,108965,128,-61567,-4.440312319,128,-30847,-2.224735883,5.05E-04,7,3964.84375,64384
7.838322859,108682,128,-61908,-4.464905794,128,99854,7.20163312,0,0,3984.375,65024
7.830966452,108580,128,-62054,-4.475435552,128,118015,8.51143402,1.166927954,16180,4003.90625,128
7.850295049,108848,128,-61887,-4.46339124,128,118592,8.5530482,0.019617083,272,4023.4375,768
7.792525624,108047,128,-62709,-4.522675219,128,102334,7.380494759,1.157407899,16048,4042.96875,1408
7.829812506,108564,128,-62159,-4.483008323,128,102393,7.384749935,0,0,4062.5,2048
7.940158598,110094,128,-61378,-4.426681331,128,102303,7.378258989,0,0,4082.03125,2688
7.968863007,110492,128,-60994,-4.398986626,128,114750,8.275956902,0.014280082,198,4101.5625,3328
7.935037963,110023,128,-60697,-4.377566502,128,-16381,-1.181424401,7.21E-05,1,4121.09375,3968
7.821807006,108453,128,-61879,-4.462814267,128,116348,8.391207265,1.172409197,16256,4140.625,4608
7.801540828,108172,128,-61681,-4.448534185,128,115200,8.308411635,0.003461838,48,4160.15625,5248
7.761441202,107616,128,-62229,-4.488056837,128,115839,8.354497356,0.003461838,48,4179.6875,5888
7.7657685,107676,128,-62119,-4.480123458,128,102360,7.382369921,0.002019406,28,4199.21875,6528
7.795194125,108084,128,-61899,-4.4642567,128,115903,8.35911314,0.009087325,126,4218.75,7168
7.768220635,107710,128,-62387,-4.499452054,128,114703,8.272567185,1.176880738,16318,4238.28125,7808
7.946577423,110183,128,-59744,-4.30883459,128,-28733,-2.07227076,0.004255176,59,4257.8125,8448
8.091037046,112186,128,-52376,-3.777442429,128,127328,9.183102749,0.004183054,58,4277.34375,9088
7.709369386,106894,128,-64369,-4.642397123,128,-28657,-2.066789516,0.813459851,11279,4296.875,9728
7.791155313,108028,128,-63465,-4.57719917,128,-16381,-1.181424401,0.009159447,127,4316.40625,10368
7.780192826,107876,128,-62754,-4.525920692,128,114910,8.287496363,1.180775306,16372,4335.9375,11008
7.830533723,108574,128,-61942,-4.46735793,128,-30976,-2.234039573,5.05E-04,7,4355.46875,11648
7.854189617,108902,128,-61494,-4.43504744,128,-28678,-2.06830407,1.180991671,16375,4375,12288
7.845174413,108777,128,-61771,-4.455025131,128,-28674,-2.068015584,1.172481319,16257,4394.53125,12928
7.857362969,108946,128,-61554,-4.439374738,128,116718,8.417892267,0,0,4414.0625,13568
7.878133998,109234,128,-60999,-4.399347234,128,-26498,-1.911078919,1.179549239,16355,4433.59375,14208
7.868181213,109096,128,-60894,-4.391774463,128,114736,8.274947199,0.002307892,32,4453.125,14848
7.89904927,109524,128,-60463,-4.360690041,128,-15423,-1.112331881,0.014352204,199,4472.65625,15488
7.9791764,110635,128,-59442,-4.287053858,128,-24637,-1.776860568,0.004543663,63,4492.1875,16128
8.049711353,111613,128,-58712,-4.234405069,128,118504,8.546701496,0.01817465,252,4511.71875,16768
8.116640224,112541,128,-57831,-4.170865914,128,115726,8.346347612,0,0,4531.25,17408
8.159768958,113139,128,-57651,-4.157884021,128,-12339,-0.889908777,1.181568644,16383,4550.78125,18048
8.044518595,111541,128,-58780,-4.239309339,128,118336,8.534585063,1.179332874,16352,4570.3125,18688
7.993167996,110829,128,-58970,-4.253012449,128,-14333,-1.033719305,1.115216746,15463,4589.84375,19328
7.867748483,109090,128,-60332,-4.351242107,128,116732,8.41890197,1.11586584,15472,4609.375,19968
7.850727779,108854,128,-60317,-4.350160283,128,-25565,-1.84378944,1.167144318,16183,4628.90625,20608
7.853756887,108896,128,-60206,-4.342154782,128,105599,7.615971877,1.181063793,16376,4648.4375,21248
7.863421185,109030,128,-59764,-4.310277022,128,115212,8.309277095,1.181496523,16382,4667.96875,21888
7.837024669,108664,128,-60232,-4.344029944,128,114688,8.271485361,1.153369087,15992,4687.5,22528
7.844525319,108768,128,-59947,-4.32347528,128,116734,8.419046214,1.181496523,16382,4707.03125,23168
7.840702872,108715,128,-60086,-4.333500187,128,106472,7.678934059,1.179332874,16352,4726.5625,23808
7.840486507,108712,128,-59902,-4.320229807,128,106492,7.680376492,1.179044387,16348,4746.09375,24448
7.837601642,108672,128,-59593,-4.297944224,128,115703,8.344688814,1.177024982,16320,4765.625,25088
7.888086782,109372,128,-58849,-4.244285732,128,118273,8.5300414,0.004471541,62,4785.15625,25728
7.805363274,108225,128,-60052,-4.331048051,128,-16288,-1.17471709,1.162095804,16113,4804.6875,26368
7.83615921,108652,128,-59383,-4.282798682,128,116736,8.419190457,1.181496523,16382,4824.21875,27008
7.83796225,108677,128,-59371,-4.281933222,128,104464,7.534113828,2.88E-04,4,4843.75,27648
7.858805401,108966,128,-59166,-4.267148288,128,-14237,-1.026795629,0.017814042,247,4863.28125,28288
7.836952548,108663,128,-59458,-4.288207804,128,-16345,-1.178828022,0.002524257,35,4882.8125,28928
7.837890129,108676,128,-59390,-4.283303533,128,106368,7.67143341,1.15394606,16000,4902.34375,29568
7.911959042,109703,128,-59013,-4.256113679,128,114690,8.271629604,0.017886164,248,4921.875,30208
7.926167002,109900,128,-58994,-4.254743368,128,-14321,-1.032853846,5.05E-04,7,4941.40625,30848
7.984585522,110710,128,-58423,-4.213561918,128,118728,8.562856741,0,0,4960.9375,31488
7.927176705,109914,128,-58589,-4.225534108,128,116799,8.423734119,1.181496523,16382,4980.46875,32128
7.857579333,108949,128,-59487,-4.290299331,128,-14464,-1.043167239,1.172481319,16257,5000,32768
7.823826411,108481,128,-59444,-4.287198101,128,-14841,-1.070357093,1.164259453,16143,5019.53125,33408
7.7887753,107995,128,-60062,-4.331769268,128,-25101,-1.810325004,1.181568644,16383,5039.0625,34048
7.799305057,108141,128,-59955,-4.324052253,128,-16383,-1.181568644,1.172337076,16255,5058.59375,34688
7.807454801,108254,128,-60131,-4.33674566,128,106495,7.680592856,0.002163649,30,5078.125,35328
7.819643357,108423,128,-60497,-4.363142176,128,-16145,-1.164403697,1.172914049,16263,5097.65625,35968
7.9871819,110746,128,-54923,-3.961136217,128,126727,9.13975765,0.001730919,24,5117.1875,36608
7.999298334,110914,128,-52791,-3.807372905,128,126984,9.158292908,1.070284971,14840,5136.71875,37248
7.807959653,108261,128,-64166,-4.627756432,128,-14589,-1.052182442,1.180991671,16375,5156.25,37888
7.851448995,108864,128,-61324,-4.422786763,128,114719,8.273721132,0.025386813,352,5175.78125,38528
7.844092589,108762,128,-61249,-4.417377641,128,-16370,-1.180631063,0.006995798,97,5195.3125,39168
7.867459997,109086,128,-61045,-4.402664829,128,-24704,-1.781692717,0.00223577,31,5214.84375,39808
7.874095186,109178,128,-61054,-4.403313923,128,115200,8.308411635,1.176736495,16316,5234.375,40448
7.871210321,109138,128,-61019,-4.400789666,128,-15999,-1.153873939,0.001947284,27,5253.90625,41088
7.904819,109604,128,-60948,-4.395669031,128,-25376,-1.830158452,5.05E-04,7,5273.4375,41728
7.898111689,109511,128,-61002,-4.399563599,128,-15938,-1.149474519,0.014063718,195,5292.96875,42368
7.925517908,109891,128,-60562,-4.367830082,128,-26578,-1.91684865,0.018535259,257,5312.5,43008
7.970449683,110514,128,-60174,-4.33984689,128,-24608,-1.774769041,0.004543663,63,5332.03125,43648
8.037090068,111438,128,-59152,-4.266138585,128,114928,8.288794552,0.033320192,462,5351.5625,44288
8.136329429,112814,128,-58389,-4.211109783,128,-8256,-0.595436167,0.029930476,415,5371.09375,44928
8.178232095,113395,128,-58026,-4.184929631,128,-13040,-0.940466039,0.017525556,243,5390.625,45568
8.179169676,113408,128,-58017,-4.184280537,128,114783,8.278336916,0,0,5410.15625,46208
8.068823584,111878,128,-59485,-4.290155088,128,-14407,-1.039056306,1.135699288,15747,5429.6875,46848
8.005933524,111006,128,-59898,-4.31994132,128,-16378,-1.181208036,1.174644968,16287,5449.21875,47488
7.920541515,109822,128,-60771,-4.382903502,128,114847,8.2829527,1.126107112,15614,5468.75,48128
7.880730376,109270,128,-60877,-4.390548395,128,-25025,-1.80484376,1.163105507,16127,5488.28125,48768
7.889817702,109396,128,-60640,-4.373455569,128,-24832,-1.790924286,1.167721292,16191,5507.8125,49408
7.877124295,109220,128,-60753,-4.381605313,128,118799,8.567977377,1.17471709,16288,5527.34375,50048
7.873518213,109170,128,-60671,-4.375691339,128,-16253,-1.172192832,1.179549239,16355,5546.875,50688
7.883759485,109312,128,-60514,-4.364368244,128,115103,8.301415837,1.172409197,16256,5566.40625,51328
7.88311039,109303,128,-60136,-4.337106268,128,-16360,-1.179909847,0.018391015,255,5585.9375,51968
7.88664435,109352,128,-60154,-4.338404457,128,105472,7.60681243,0.004327298,60,5605.46875,52608
7.903232325,109582,128,-59810,-4.313594617,128,115215,8.309493459,4.33E-04,6,5625,53248
7.85830055,108959,128,-60254,-4.34561662,128,-16384,-1.181640766,1.173491022,16271,5644.53125,53888
7.864142402,109040,128,-60204,-4.342010539,128,105726,7.625131324,1.18048682,16368,5664.0625,54528
7.874527916,109184,128,-60003,-4.327514091,128,106495,7.680592856,0,0,5683.59375,55168
7.863493307,109031,128,-59947,-4.32347528,128,-15935,-1.149258155,0.002812744,39,5703.125,55808
7.870849713,109133,128,-59907,-4.320590415,128,115197,8.30819527,0,0,5722.65625,56448
7.881018863,109274,128,-59860,-4.317200699,128,116256,8.384572075,1.177024982,16320,5742.1875,57088
7.888663755,109380,128,-60040,-4.330182592,128,114944,8.289948498,1.179765604,16358,5761.71875,57728
7.956890816,110326,128,-59761,-4.310060657,128,-24833,-1.790996407,0.00223577,31,5781.25,58368
8.014083268,111119,128,-59150,-4.265994342,128,114739,8.275163564,0,0,5800.78125,59008
7.990355252,110790,128,-58598,-4.226183203,128,-9217,-0.664745052,0.04031599,559,5820.3125,59648
7.83882771,108689,128,-60020,-4.328740159,128,119264,8.601513934,1.145868438,15888,5839.84375,60288
7.824908236,108496,128,-59884,-4.318931618,128,115606,8.337693016,0.001153946,16,5859.375,60928
7.7941123,108069,128,-60289,-4.348140877,128,115839,8.354497356,1.14904179,15932,5878.90625,61568
7.800242639,108154,128,-60000,-4.327297727,128,-25472,-1.837082128,0.004543663,63,5898.4375,62208
7.818200924,108403,128,-60162,-4.33898143,128,-25345,-1.827922681,1.181135914,16377,5917.96875,62848
7.810411788,108295,128,-60324,-4.350665134,128,-14564,-1.050379401,1.163393994,16131,5937.5,63488
7.992951631,110826,128,-57306,-4.133002059,128,-8185,-0.590315532,0.009159447,127,5957.03125,64128
8.107769264,112418,128,-50768,-3.66147085,128,130544,9.415045907,0.066928872,928,5976.5625,64768
7.754589648,107521,128,-63211,-4.558880277,128,115220,8.309854068,0.856083734,11870,5996.09375,65408
7.789424394,108004,128,-62185,-4.484883485,128,101855,7.345948499,0.008077622,112,6015.625,512
7.847482305,108809,128,-60462,-4.360617919,128,-16289,-1.174789211,0.032382611,449,6035.15625,1152
7.882461295,109294,128,-59923,-4.321744361,128,116711,8.417387416,0.009087325,126,6054.6875,1792
7.875177011,109193,128,-60054,-4.331192295,128,114688,8.271485361,1.177601955,16328,6074.21875,2432
7.86363755,109033,128,-60412,-4.357011838,128,-16378,-1.181208036,1.181135914,16377,6093.75,3072
7.853829009,108897,128,-60368,-4.353838486,128,-25064,-1.807656504,1.181135914,16377,6113.28125,3712
7.87957643,109254,128,-59907,-4.320590415,128,-15345,-1.106706394,0.005120636,71,6132.8125,4352
7.899409878,109529,128,-59488,-4.290371453,128,-24608,-1.774769041,0.03454626,479,6152.34375,4992
7.902366865,109570,128,-59571,-4.296357548,128,-14353,-1.035161738,2.16E-04,3,6171.875,5632
8.016102674,111147,128,-58331,-4.206926728,128,105476,7.607100917,0,0,6191.40625,6272
8.026776675,111295,128,-58426,-4.213778283,128,-10234,-0.738092749,1.181568644,16383,6210.9375,6912
8.14346947,112913,128,-57220,-4.126799599,128,-8162,-0.588656734,0.020698907,287,6230.46875,7552
8.141450064,112885,128,-57130,-4.120308652,128,123006,8.871393069,0.01817465,252,6250,8192
8.024973634,111270,128,-58319,-4.206061269,128,-8400,-0.605821682,1.179837725,16359,6269.53125,8832
7.954005951,110286,128,-59101,-4.262460382,128,118707,8.561342187,1.150339979,15950,6289.0625,9472
7.866161807,109068,128,-59644,-4.301622427,128,-16129,-1.163249751,1.181568644,16383,6308.59375,10112
7.854550225,108907,128,-59571,-4.296357548,128,-14467,-1.043383603,0.00887096,123,6328.125,10752
7.813513018,108338,128,-59919,-4.321455875,128,-16359,-1.179837725,1.180703185,16371,6347.65625,11392
7.822023371,108456,128,-59815,-4.313955225,128,106249,7.662850936,0.027694705,384,6367.1875,12032
7.829451898,108559,128,-59616,-4.299603021,128,-15376,-1.108942164,0.001081824,15,6386.71875,12672
7.783798907,107926,128,-59951,-4.323763767,128,106480,7.679511032,1.173995873,16278,6406.25,13312
7.799377179,108142,128,-59524,-4.292967831,128,116732,8.41890197,0.002307892,32,6425.78125,13952
7.813873626,108343,128,-59084,-4.261234315,128,-25580,-1.844871264,0.00223577,31,6445.3125,14592
7.818128803,108402,128,-59168,-4.267292531,128,-25480,-1.837659101,1.181568644,16383,6464.84375,15232
7.804930544,108219,128,-59221,-4.271114978,128,-10231,-0.737876384,0.013342501,185,6484.375,15872
7.777524326,107839,128,-59482,-4.289938723,128,-14337,-1.034007792,1.17695286,16319,6503.90625,16512
7.787621354,107979,128,-59299,-4.276740465,128,-14305,-1.0316999,0.018391015,255,6523.4375,17152
7.773557636,107784,128,-59359,-4.281067763,128,105529,7.610923363,0,0,6542.96875,17792
7.78524134,107946,128,-59297,-4.276596222,128,106055,7.64885934,0.002452135,34,6562.5,18432
7.769374582,107726,128,-59347,-4.280202303,128,-25537,-1.841770034,1.179837725,16359,6582.03125,19072
7.770961257,107748,128,-59245,-4.272845897,128,-10221,-0.737155168,1.181568644,16383,6601.5625,19712
7.845102292,108776,128,-58950,-4.251570016,128,105534,7.611283971,0.007500649,104,6621.09375,20352
7.892991053,109440,128,-58307,-4.205195809,128,114703,8.272567185,0.03231049,448,6640.625,20992
7.933811895,110006,128,-57777,-4.166971346,128,-8689,-0.626664832,0.036277179,503,6660.15625,21632
7.848924738,108829,128,-58155,-4.194233321,128,-25072,-1.808233477,1.165413399,16159,6679.6875,22272
7.740021079,107319,128,-59346,-4.280130181,128,-10233,-0.738020627,1.174067995,16279,6699.21875,22912
7.717447009,107006,0,-59315,-4.277894411,128,-4194304,-302.5000361,0.588584612,8161,6718.75,23552
7.736703484,107273,128,-58671,-4.231448082,128,-24577,-1.77253327,0.004543663,63,6738.28125,24192
7.695449912,106701,128,-59302,-4.27695683,128,114959,8.291030322,1.178034684,16334,6757.8125,24832
7.726317969,107129,128,-59020,-4.25661853,128,-16157,-1.165269156,1.179260752,16351,6777.34375,25472
7.728193131,107155,128,-59211,-4.270393761,128,114744,8.275524172,1.181496523,16382,6796.875,26112
7.901934135,109564,128,-54699,-3.944980972,128,117831,8.49816364,0.073564061,1020,6816.40625,26752
7.959415073,110361,128,-50292,-3.627140954,128,-8,-5.77E-04,7.21E-05,1,6835.9375,27392
7.706773008,106858,128,-62171,-4.483873783,128,114879,8.285260592,0.904116738,12536,6855.46875,28032
7.735405294,107255,128,-60331,-4.351169986,128,-15625,-1.12690045,0.032815341,455,6875,28672
7.777307961,107836,128,-59308,-4.277389559,128,-14480,-1.044321185,0.004399419,61,6894.53125,29312
7.778966758,107859,128,-59043,-4.258277328,128,114815,8.280644808,0.003461838,48,6914.0625,29952
7.802766896,108189,128,-58849,-4.244285732,128,-16377,-1.181135914,1.163105507,16127,6933.59375,30592
7.798223233,108126,128,-58872,-4.245944529,128,114907,8.287279998,0.018318894,254,6953.125,31232
7.801035977,108165,128,-58906,-4.248396665,128,114947,8.290164863,0.008077622,112,6972.65625,31872
7.807599045,108256,128,-58689,-4.232746271,128,115143,8.304300702,0.002019406,28,6992.1875,32512
7.822023371,108456,128,-58392,-4.211326147,128,-16257,-1.172481319,7.21E-05,1,7011.71875,33152
7.916214218,109762,128,-57163,-4.122688666,128,116345,8.3909909,0.041253572,572,7031.25,33792
7.885129796,109331,128,-57921,-4.17735686,128,116224,8.382264183,1.172409197,16256,7050.78125,34432
8.041417365,111498,128,-55889,-4.030805711,128,-7682,-0.554038352,0.005120636,71,7070.3125,35072
8.066299327,111843,128,-55614,-4.010972263,128,124175,8.955703253,0.036349301,504,7089.84375,35712
8.073727855,111946,128,-55735,-4.01969898,128,127195,9.173510572,1.181496523,16382,7109.375,36352
7.969151493,110496,128,-57251,-4.129035369,128,123329,8.894688355,1.144137519,15864,7128.90625,36992
7.888735877,109381,128,-58241,-4.200435782,128,116448,8.398419428,1.139954464,15806,7148.4375,37632
7.825773695,108508,128,-58637,-4.228995947,128,-15368,-1.108365191,1.163393994,16131,7167.96875,38272
7.827432493,108531,128,-58966,-4.252723962,128,-15865,-1.144209641,1.144930857,15875,7187.5,38912
7.795266246,108085,128,-59123,-4.264047058,128,114942,8.289804255,1.177024982,16320,7207.03125,39552
7.814522721,108352,128,-58725,-4.23534265,128,114812,8.280428443,0.004471541,62,7226.5625,40192
7.795122003,108083,128,-59416,-4.285178695,128,-14353,-1.035161738,0.001370311,19,7246.09375,40832
7.820003965,108428,128,-59145,-4.265633734,128,-15881,-1.145363587,1.181568644,16383,7265.625,41472
7.821446397,108448,128,-59139,-4.265201004,128,115136,8.303795851,1.166639467,16176,7285.15625,42112
7.771321865,107753,128,-59729,-4.307752765,128,116640,8.41226678,1.16058125,16092,7304.6875,42752
7.830173115,108569,128,-58929,-4.250055462,128,115696,8.344183963,0.009231568,128,7324.21875,43392
7.805002666,108220,128,-59072,-4.260368855,128,114688,8.271485361,0.001009703,14,7343.75,44032
7.810700275,108299,128,-59102,-4.262532504,128,-15997,-1.153729696,1.181568644,16383,7363.28125,44672
7.77903888,107860,128,-59573,-4.296501791,128,116602,8.409526159,1.167793413,16192,7382.8125,45312
7.797502017,108116,128,-59685,-4.304579413,128,-16098,-1.16101398,1.172337076,16255,7402.34375,45952
7.782861326,107913,128,-59886,-4.319075861,128,116240,8.383418129,1.181063793,16376,7421.875,46592
7.810628153,108298,128,-59806,-4.313306131,128,114748,8.275812659,1.177457711,16326,7441.40625,47232
7.860464199,108989,128,-59851,-4.316551604,128,-16177,-1.166711589,1.167721292,16191,7460.9375,47872
7.938139193,110066,128,-59058,-4.259359152,128,116720,8.418036511,0.03231049,448,7480.46875,48512
7.90258323,109573,128,-59371,-4.281933222,128,-16369,-1.180558941,1.181424401,16381,7500,49152
7.801324463,108169,128,-60186,-4.340712349,128,116732,8.41890197,1.177024982,16320,7519.53125,49792
7.793751692,108064,128,-60091,-4.333860795,128,-16262,-1.172841927,1.167721292,16191,7539.0625,50432
7.752065391,107486,128,-60632,-4.372878596,128,114720,8.273793253,1.181496523,16382,7558.59375,51072
7.720908847,107054,128,-60899,-4.392135071,128,-24640,-1.777076933,1.172481319,16257,7578.125,51712
7.764903041,107664,128,-60600,-4.370570704,128,-16384,-1.181640766,1.172337076,16255,7597.65625,52352
7.749252647,107447,128,-61023,-4.401078153,128,114940,8.289660011,1.163177629,16128,7617.1875,52992
7.784664367,107938,128,-60848,-4.388456868,128,115296,8.315335311,1.172120711,16252,7636.71875,53632
7.939004652,110078,128,-51883,-3.741886466,128,129220,9.31955687,0.281274352,3900,7656.25,54272
7.844092589,108762,128,-61414,-4.42927771,128,122991,8.870311245,0.885076628,12272,7675.78125,54912
7.75026235,107461,128,-63094,-4.550442046,128,100252,7.230337528,1.144570249,15870,7695.3125,55552
7.80471418,108216,128,-60974,-4.397544193,128,102398,7.385110543,0.001153946,16,7714.84375,56192
7.820364573,108433,128,-60781,-4.383624719,128,105345,7.597652983,1.173563143,16272,7734.375,56832
7.785097097,107944,128,-60871,-4.390115665,128,-15906,-1.147166627,7.21E-05,1,7753.90625,57472
7.832408885,108600,128,-60300,-4.348934215,128,-24840,-1.791501259,5.05E-04,7,7773.4375,58112
7.815316059,108363,128,-60643,-4.373671934,128,-16382,-1.181496523,1.180414698,16367,7792.96875,58752
7.82865856,108548,128,-60228,-4.343741458,128,114943,8.289876376,0.017741921,246,7812.5,59392
7.839909534,108704,128,-59869,-4.317849793,128,-14847,-1.070789822,1.181568644,16383,7832.03125,60032
7.853107793,108887,128,-59857,-4.316984334,128,115591,8.336611192,1.177024982,16320,7851.5625,60672
7.862411483,109016,128,-59744,-4.30883459,128,116640,8.41226678,0.036782031,510,7871.09375,61312
8.013362052,111109,128,-58119,-4.191636943,128,-14314,-1.032348994,0.050989992,707,7890.625,61952
8.080363045,112038,128,-57682,-4.160119791,128,-12665,-0.913420428,0.00973642,135,7910.15625,62592
8.14433493,112925,128,-57140,-4.121029868,128,118556,8.550451821,0.018463137,256,7929.6875,63232
8.093994033,112227,128,-57717,-4.162644048,128,118532,8.548720902,1.177457711,16326,7949.21875,63872
7.933739773,110005,128,-59339,-4.27962533,128,-13296,-0.958929176,1.17695286,16319,7968.75,64512
7.892558323,109434,128,-59686,-4.304651535,128,-14592,-1.052398807,1.181568644,16383,7988.28125,65152
7.851016265,108858,128,-60285,-4.347852391,128,115134,8.303651607,1.146878141,15902,8007.8125,256
7.850583536,108852,128,-60257,-4.345832985,128,106399,7.67366918,1.146733898,15900,8027.34375,896
7.797862625,108121,128,-60749,-4.381316827,128,115443,8.325937191,1.165197035,16156,8046.875,1536
7.81755183,108394,128,-60237,-4.344390553,128,114701,8.272422942,1.177457711,16326,8066.40625,2176
7.838250737,108681,128,-59972,-4.325278321,128,-16323,-1.177241347,1.172337076,16255,8085.9375,2816
7.855343563,108918,128,-59636,-4.301045454,128,114712,8.27321628,0.012693407,176,8105.46875,3456
7.838539223,108685,128,-59916,-4.32123951,128,-14847,-1.070789822,1.177241347,16323,8125,4096
7.823610046,108478,128,-59758,-4.309844292,128,-15716,-1.133463518,1.181424401,16381,8144.53125,4736
7.853973252,108899,128,-59304,-4.277101073,128,-15362,-1.107932461,0.014063718,195,8164.0625,5376
7.776586744,107826,128,-60311,-4.349727553,128,114784,8.278409037,1.166639467,16176,8183.59375,6016
7.815099694,108360,128,-59598,-4.298304832,128,116217,8.381759331,0,0,8203.125,6656
7.814378478,108350,128,-59794,-4.312440671,128,116735,8.419118335,1.16764917,16190,8222.65625,7296
7.794472908,108074,128,-59749,-4.309195198,128,-14789,-1.066606768,1.181568644,16383,8242.1875,7936
7.794617152,108076,128,-59799,-4.312801279,128,115503,8.330264488,1.181496523,16382,8261.71875,8576
7.787621354,107979,128,-59802,-4.313017644,128,-16259,-1.172625562,1.153873939,15999,8281.25,9216
7.857579333,108949,128,-59503,-4.291453277,128,114749,8.27588478,1.172409197,16256,8300.78125,9856
7.898255932,109513,128,-59334,-4.279264722,128,114688,8.271485361,0.035195355,488,8320.3125,10496
7.928186408,109928,128,-58287,-4.203753376,128,-13243,-0.95510673,9.38E-04,13,8339.84375,11136
7.85166536,108867,128,-58951,-4.251642138,128,-14151,-1.020593169,1.114928259,15459,8359.375,11776
7.777884934,107844,128,-59260,-4.273927721,128,115199,8.308339513,1.172120711,16252,8378.90625,12416
7.742401092,107352,128,-59515,-4.292318737,128,115075,8.299396431,1.172409197,16256,8398.4375,13056
7.745574444,107396,128,-59422,-4.285611425,128,116734,8.419046214,1.16764917,16190,8417.96875,13696
7.743266552,107364,128,-59531,-4.293472683,128,115456,8.326874772,1.172409197,16256,8437.5,14336
7.75026235,107461,128,-59444,-4.287198101,128,-14400,-1.038551454,1.179260752,16351,8457.03125,14976
7.787549232,107978,128,-59624,-4.300179994,128,-16159,-1.165413399,1.173346779,16269,8476.5625,15616
7.954150194,110288,128,-53933,-3.889735805,128,130527,9.413819839,0.001153946,16,8496.09375,16256
7.832697372,108604,128,-59042,-4.258205206,128,-4240,-0.305795706,1.181135914,16377,8515.625,16896
7.707926954,106874,128,-62722,-4.5236128,128,-28674,-2.068015584,1.110023988,15391,8535.15625,17536
7.793391084,108059,128,-59793,-4.312368549,128,105529,7.610923363,0.006923676,96,8554.6875,18176
7.793174719,108056,128,-59771,-4.310781874,128,-16144,-1.164331575,1.172337076,16255,8574.21875,18816
7.804642058,108215,128,-59628,-4.300468481,128,-15364,-1.108076705,1.179549239,16355,8593.75,19456
7.811998464,108317,128,-59546,-4.294554507,128,116734,8.419046214,1.1734189,16270,8613.28125,20096
7.835582237,108644,128,-59101,-4.262460382,128,115123,8.30285827,1.17962136,16356,8632.8125,20736
7.817840316,108398,128,-59315,-4.277894411,128,-15409,-1.111322178,1.181568644,16383,8652.34375,21376
7.809690572,108285,128,-59271,-4.274721059,128,114812,8.280428443,1.181352279,16380,8671.875,22016
7.852314455,108876,128,-58829,-4.242843299,128,117744,8.491889059,1.181352279,16380,8691.40625,22656
7.915637245,109754,128,-58242,-4.200507903,128,-13249,-0.95553946,0.001081824,15,8710.9375,23296
8.003625632,110974,128,-57406,-4.140214222,128,-12290,-0.886374818,0.028488043,395,8730.46875,23936
8.063125976,111799,128,-56738,-4.092036973,128,-8191,-0.590748261,0.036854152,511,8750,24576
8.111952318,112476,128,-56519,-4.076242337,128,126976,9.157715935,1.181208036,16378,8769.53125,25216
8.088729154,112154,128,-56852,-4.100258839,128,123655,8.918200006,1.177601955,16328,8789.0625,25856
7.972613331,110544,128,-58104,-4.190555118,128,117774,8.494052707,1.178178928,16336,8808.59375,26496
7.877052173,109219,128,-58688,-4.23267415,128,115471,8.327956596,1.179332874,16352,8828.125,27136
7.839548926,108699,128,-59001,-4.255248219,128,-15935,-1.149258155,1.146950262,15903,8847.65625,27776
7.82865856,108548,128,-59196,-4.269311937,128,-16356,-1.17962136,1.181568644,16383,8867.1875,28416
7.815316059,108363,128,-59376,-4.28229383,128,117872,8.501120627,1.151638168,15968,8886.71875,29056
7.828730682,108549,128,-59227,-4.271547708,128,116743,8.419695308,1.18048682,16368,8906.25,29696
7.825413087,108503,128,-59196,-4.269311937,128,-14721,-1.061702497,1.180703185,16371,8925.78125,30336
7.841424089,108725,128,-58967,-4.252796084,128,114689,8.271557483,1.162312169,16116,8945.3125,30976
7.829163412,108555,128,-59444,-4.287198101,128,106383,7.672515234,1.17962136,16356,8964.84375,31616
7.803127504,108194,128,-59494,-4.290804182,128,-14433,-1.040931468,1.162240048,16115,8984.375,32256
7.822383979,108461,128,-59223,-4.271259221,128,-14719,-1.061558254,1.181135914,16377,9003.90625,32896
7.805219031,108223,128,-59399,-4.283952628,128,-15368,-1.108365191,0.001081824,15,9023.4375,33536
7.778245542,107849,128,-59499,-4.291164791,128,115085,8.300117648,1.150339979,15950,9042.96875,34176
7.808825112,108273,128,-59113,-4.263325842,128,-15841,-1.142478721,1.181568644,16383,9062.5,34816
7.776514623,107825,128,-59630,-4.300612724,128,114688,8.271485361,1.177024982,16320,9082.03125,35456
7.767571541,107701,128,-59523,-4.29289571,128,-14532,-1.048071509,1.180414698,16367,9101.5625,36096
7.79497776,108081,128,-59387,-4.283087168,128,114695,8.271990212,1.181063793,16376,9121.09375,36736
7.765912743,107678,128,-59499,-4.291164791,128,-14432,-1.040859346,1.163105507,16127,9140.625,37376
7.865152105,109054,128,-58867,-4.245583921,128,-16380,-1.181352279,1.181568644,16383,9160.15625,38016
7.88044189,109266,128,-58962,-4.252435476,128,114942,8.289804255,1.172409197,16256,9179.6875,38656
7.93359553,110003,128,-57965,-4.180530212,128,-14463,-1.043095117,0.003678203,51,9199.21875,39296
7.816397883,108378,128,-58627,-4.22827473,128,115103,8.301415837,1.145002978,15876,9218.75,39936
7.749541134,107451,128,-59412,-4.284890209,128,-14209,-1.024776223,1.110312475,15395,9238.28125,40576
7.714922752,106971,128,-59426,-4.285899912,128,-14369,-1.036315684,1.142334478,15839,9257.8125,41216
7.747088998,107417,128,-59126,-4.264263423,128,114815,8.280644808,1.177024982,16320,9277.34375,41856
7.718168225,107016,128,-59263,-4.274144086,128,114688,8.271485361,1.163754602,16136,9296.875,42496
7.731943456,107207,128,-59472,-4.289217507,128,-15377,-1.109014286,1.173491022,16271,9316.40625,43136
7.74449262,107381,128,-59724,-4.307392157,128,-15618,-1.126395598,0.021997097,305,9335.9375,43776
7.962876912,110409,128,-50336,-3.630314306,128,-6105,-0.440302544,0.279182825,3871,9355.46875,44416
7.849068981,108831,128,-56937,-4.106389178,128,130865,9.43819695,1.179332874,16352,9375,45056
7.756753296,107551,128,-61834,-4.459568794,128,-28673,-2.067943462,1.043095117,14463,9394.53125,45696
7.771393987,107754,128,-59980,-4.325855294,128,115192,8.307834662,0.022501948,312,9414.0625,46336
7.745862931,107400,128,-60002,-4.32744197,128,115102,8.301343715,1.172409197,16256,9433.59375,46976
7.811421491,108309,128,-59086,-4.261378558,128,-16355,-1.179549239,0.008005501,111,9453.125,47616
7.785457705,107949,128,-59516,-4.292390858,128,116704,8.416882565,1.179332874,16352,9472.65625,48256
7.805579639,108228,128,-59250,-4.273206505,128,-16384,-1.181640766,5.05E-04,7,9492.1875,48896
7.791371678,108031,128,-59312,-4.277678046,128,-16272,-1.173563143,1.181568644,16383,9511.71875,49536
7.812647559,108326,128,-58770,-4.238588123,128,-16381,-1.181424401,1.180558941,16369,9531.25,50176
7.822744587,108466,128,-58857,-4.244862705,128,114880,8.285332714,1.181063793,16376,9550.78125,50816
7.861185415,108999,128,-58287,-4.203753376,128,-15296,-1.103172434,0.014063718,195,9570.3125,51456
7.950976843,110244,128,-57289,-4.131775991,128,-12673,-0.913997401,0.00223577,31,9589.84375,52096
8.057067759,111715,128,-56244,-4.056408889,128,128000,9.231568483,0.006923676,96,9609.375,52736
8.086853991,112128,128,-56134,-4.04847551,128,123391,8.899159896,1.181352279,16380,9628.90625,53376
8.055697448,111696,128,-56432,-4.069967755,128,123776,8.926926723,1.109807624,15388,9648.4375,54016
7.936841004,110048,128,-57864,-4.173245927,128,123104,8.878460989,1.1167313,15484,9667.96875,54656
7.871787294,109146,128,-58386,-4.210893418,128,-15392,-1.11009611,1.181280158,16379,9687.5,55296
7.853324157,108890,128,-58695,-4.233179001,128,116985,8.437148742,1.169524332,16216,9707.03125,55936
7.815965154,108372,128,-58802,-4.240896015,128,115231,8.310647405,1.17471709,16288,9726.5625,56576
7.807454801,108254,128,-59120,-4.263830693,128,114972,8.291967904,1.163033386,16126,9746.09375,57216
7.814378478,108350,128,-59056,-4.259214909,128,-14308,-1.031916265,0.018391015,255,9765.625,57856
7.808897234,108274,128,-59197,-4.269384059,128,105539,7.611644579,0.018318894,254,9785.15625,58496
7.823465803,108476,128,-59147,-4.265777977,128,-25152,-1.814003207,0.018391015,255,9804.6875,59136
7.845102292,108776,128,-58752,-4.237289934,128,115648,8.340722125,1.179332874,16352,9824.21875,59776
7.785385583,107948,128,-59599,-4.298376953,128,114688,8.271485361,1.160869737,16096,9843.75,60416
7.818777897,108411,128,-59085,-4.261306436,128,115710,8.345193666,0.001730919,24,9863.28125,61056
7.830245236,108570,128,-58751,-4.237217812,128,114817,8.280789051,0.002163649,30,9882.8125,61696
7.810195423,108292,128,-59147,-4.265777977,128,114784,8.278409037,1.162023683,16112,9902.34375,62336
7.811926342,108316,128,-59232,-4.271908316,128,116736,8.419190457,1.164043088,16140,9921.875,62976
7.804858423,108218,128,-59474,-4.28936175,128,-16317,-1.176808617,1.144930857,15875,9941.40625,63616
7.824331263,108488,128,-59448,-4.287486587,128,115192,8.307834662,1.181496523,16382,9960.9375,64256
7.861690266,109006,128,-59081,-4.26101795,128,114799,8.279490862,1.181496523,16382,9980.46875,64896
7.8764752,109211,128,-59495,-4.290876304,128,-15911,-1.147527235,1.181280158,16379,10000,0
7.904386271,109598,128,-59514,-4.292246615,128,106375,7.671938261,0.002163649,30,10019.53125,640
7.948957437,110216,128,-58462,-4.216374661,128,118752,8.56458766,0.032743219,454,10039.0625,1280
7.900780189,109548,128,-59009,-4.255825192,128,114695,8.271990212,1.180342577,16366,10058.59375,1920
7.800386882,108156,128,-59657,-4.302560008,128,-15233,-1.098628771,1.149258155,15935,10078.125,2560
7.799160814,108139,128,-59912,-4.320951023,128,-24580,-1.772749635,1.144930857,15875,10097.65625,3200
7.773052785,107777,128,-59896,-4.319797077,128,-15297,-1.103244555,5.05E-04,7,10117.1875,3840
7.791515922,108033,128,-59957,-4.324196497,128,115939,8.361709519,0,0,10136.71875,4480
7.804137207,108208,128,-60057,-4.331408659,128,-16313,-1.17652013,1.178106806,16335,10156.25,5120
7.845102292,108776,128,-60001,-4.327369848,128,-16356,-1.17962136,1.153873939,15999,10175.78125,5760
8.034421567,111401,128,-53096,-3.829370001,128,-3880,-0.27983192,0.299521124,4153,10195.3125,6400
7.815099694,108360,128,-61614,-4.443702035,128,123879,8.934355251,0.886086331,12286,10214.84375,7040
7.808031775,108262,128,-62908,-4.537027423,128,102006,7.356838865,1.151638168,15968,10234.375,7680
7.870849713,109133,128,-60166,-4.339269917,128,106359,7.670784315,0.008077622,112,10253.90625,8320
7.843082886,108748,128,-60198,-4.341577809,128,-24609,-1.774841163,0.014929177,207,10273.4375,8960
7.860896928,108995,128,-59884,-4.318931618,128,116619,8.410752226,4.33E-04,6,10292.96875,9600
7.871210321,109138,128,-59899,-4.320013442,128,106432,7.676049194,1.178323171,16338,10312.5,10240
7.845607143,108783,128,-60241,-4.344679039,128,-16129,-1.163249751,1.163105507,16127,10332.03125,10880
7.868325456,109098,128,-59451,-4.287702952,128,-14725,-1.061990984,0.008149744,113,10351.5625,11520
7.858949644,108968,128,-59602,-4.298593318,128,114688,8.271485361,1.179332874,16352,10371.09375,12160
7.906910528,109633,128,-58724,-4.235270528,128,-16321,-1.177097103,0.00223577,31,10390.625,12800
7.944846504,110159,128,-58472,-4.217095878,128,-15488,-1.117019786,0.005697609,79,10410.15625,13440
8.039686446,111474,128,-57759,-4.165673156,128,-24608,-1.774769041,1.181568644,16383,10429.6875,14080
8.137916105,112836,128,-56747,-4.092686068,128,113660,8.197344327,0,0,10449.21875,14720
8.202681327,113734,128,-56352,-4.064198025,128,-19458,-1.403342653,0.004543663,63,10468.75,15360
8.11426021,112508,128,-57122,-4.119731679,128,106751,7.699055993,1.172120711,16252,10488.28125,16000
8.046826487,111573,128,-57822,-4.170216819,128,101888,7.348328513,1.181352279,16380,10507.8125,16640
7.933307044,109999,128,-59032,-4.25748399,128,-28685,-2.068808921,1.180991671,16375,10527.34375,17280
7.883615241,109310,128,-59091,-4.261739166,128,101775,7.340178769,1.181496523,16382,10546.875,17920
7.901645649,109560,128,-58851,-4.244429975,128,100616,7.256589801,1.174572846,16286,10566.40625,18560
7.878350363,109237,128,-59167,-4.26722041,128,104448,7.532959882,1.176736495,16316,10585.9375,19200
7.880297647,109264,128,-59161,-4.26678768,128,104560,7.541037505,1.174428603,16284,10605.46875,19840
7.884552823,109323,128,-59177,-4.267941626,128,-25529,-1.841193061,1.173491022,16271,10625,20480
7.910516609,109683,128,-58854,-4.24464634,128,-29153,-2.102561844,1.181568644,16383,10644.53125,21120
7.917584529,109781,128,-59361,-4.281212006,128,-32761,-2.36277668,1.153008479,15987,10664.0625,21760
7.938716166,110074,128,-59136,-4.264984639,128,71680,5.169678351,1.181063793,16376,10683.59375,22400
7.908280839,109652,128,-59142,-4.265417369,128,72897,5.257450373,1.167504927,16188,10703.125,23040
7.890755283,109409,128,-59056,-4.259214909,128,-29192,-2.105374587,1.166711589,16177,10722.65625,23680
7.862122996,109012,128,-58849,-4.244285732,128,102144,7.36679165,1.144714492,15872,10742.1875,24320
7.860752685,108993,128,-58522,-4.220701959,128,122854,8.860430582,1.179332874,16352,10761.71875,24960
7.870344862,109126,128,-58268,-4.202383066,128,-8218,-0.592695545,1.16368248,16135,10781.25,25600
7.840270143,108709,128,-58549,-4.222649243,128,130880,9.439278774,1.123943463,15584,10800.78125,26240
7.874383673,109182,128,-57934,-4.178294441,128,198648,14.32681731,1.181496523,16382,10820.3125,26880
7.872869119,109161,128,-58191,-4.1968297,128,-64512,-4.652710516,1.177529833,16327,10839.84375,27520
7.951770181,110255,128,-57922,-4.177428982,128,-514,-0.037070517,1.154450912,16007,10859.375,28160
8.023603323,111251,128,-57171,-4.123265639,128,122872,8.861728771,0.016155245,224,10878.90625,28800
7.987975238,110757,128,-56846,-4.099826109,128,-14,-0.001009703,1.180991671,16375,10898.4375,29440
7.870777592,109132,128,-58025,-4.18485751,128,-8201,-0.591469478,1.168009778,16195,10917.96875,30080
7.813657262,108340,128,-57879,-4.174327752,128,122879,8.862233622,1.166639467,16176,10937.5,30720
7.800026274,108151,128,-58157,-4.194377565,128,-13,-9.38E-04,0.003678203,51,10957.03125,31360
7.821374276,108447,128,-57922,-4.177428982,128,-9058,-0.653277713,0.02877653,399,10976.5625,32000
7.852314455,108876,128,-57636,-4.156802196,128,-12324,-0.888826953,0.009159447,127,10996.09375,32640
7.835005264,108636,128,-58212,-4.198344254,128,118528,8.548432416,1.181063793,16376,11015.625,33280
7.997134685,110884,128,-55751,-4.020852926,128,124477,8.977483985,0.003461838,48,11035.15625,33920
8.040551906,111486,128,-51757,-3.732799141,128,123456,8.903847802,0.151166934,2096,11054.6875,34560
7.750550836,107465,128,-60411,-4.356939716,128,126980,9.158004422,0.890846359,12352,11074.21875,35200
7.862267239,109014,128,-59089,-4.261594923,128,122791,8.855886919,0.014280082,198,11093.75,35840
7.892918932,109439,128,-57900,-4.175842306,128,-9216,-0.664672931,0.020698907,287,11113.28125,36480
7.888375269,109376,128,-57791,-4.167981049,128,118392,8.538623874,0.004615784,64,11132.8125,37120
7.919676056,109810,128,-57385,-4.138699667,128,-8576,-0.618515088,0.001081824,15,11152.34375,37760
7.925734273,109894,128,-57246,-4.128674761,128,122882,8.862449987,0,0,11171.875,38400
7.915565123,109753,128,-57167,-4.122977152,128,-14745,-1.063433416,0.014063718,195,11191.40625,39040
7.930205814,109956,128,-56926,-4.10559584,128,123066,8.875720367,0.027694705,384,11210.9375,39680
7.946577423,110183,128,-56607,-4.08258904,128,123391,8.899159896,0.035051112,486,11230.46875,40320
7.997495293,110889,128,-55969,-4.036575441,128,-2945,-0.212398197,0.019544961,271,11250,40960
8.027065161,111299,128,-55843,-4.027488116,128,123357,8.896707761,0.013847353,192,11269.53125,41600
8.141305821,112883,128,-54663,-3.942384594,128,129081,9.309531964,0.003461838,48,11289.0625,42240
8.234414844,114174,128,-53742,-3.875960574,128,126736,9.140406745,0.036782031,510,11308.59375,42880
8.230736641,114123,128,-53757,-3.877042398,128,130816,9.43466299,0.018463137,256,11328.125,43520
8.142027037,112893,128,-54610,-3.938562147,128,129934,9.371051713,1.153657574,15996,11347.65625,44160
8.014299633,111122,128,-55815,-4.02546871,128,122907,8.864253028,1.145724195,15886,11367.1875,44800
7.965329047,110443,128,-56486,-4.073862323,128,-3237,-0.233457712,1.181135914,16377,11386.71875,45440
7.930205814,109956,128,-56540,-4.077756891,128,123808,8.929234615,1.177313468,16324,11406.25,46080
7.913329353,109722,128,-56932,-4.106028569,128,127116,9.167812963,0.001730919,24,11425.78125,46720
7.943692558,110143,128,-56167,-4.050855523,128,-8192,-0.590820383,0.001081824,15,11445.3125,47360
7.934749476,110019,128,-56263,-4.0577792,128,-3080,-0.222134617,0.006851555,95,11464.84375,48000
7.914050569,109732,128,-56479,-4.073357472,128,123263,8.889928328,0.004327298,60,11484.375,48640
7.91765665,109782,128,-56372,-4.065640457,128,-8132,-0.586493085,1.181568644,16383,11503.90625,49280
7.907775987,109645,128,-56251,-4.05691374,128,127095,9.166298409,0,0,11523.4375,49920
7.921983948,109842,128,-55694,-4.016741993,128,124031,8.945317739,0.005048514,70,11542.96875,50560
7.919676056,109810,128,-55845,-4.027632359,128,123343,8.895698058,0.018030407,250,11562.5,51200
7.922633043,109851,128,-55924,-4.033329968,128,128399,9.260345013,0,0,11582.03125,51840
7.924580327,109878,128,-55916,-4.032752995,128,-7692,-0.554759569,0.001658797,23,11601.5625,52480
7.931071273,109968,128,-55729,-4.01926625,128,127087,9.165721436,0.029425625,408,11621.09375,53120
7.911742677,109700,128,-56162,-4.050494915,128,124479,8.977628228,1.175871036,16304,11640.625,53760
7.941528909,110113,128,-55675,-4.015371682,128,-6169,-0.444918328,0.004543663,63,11660.15625,54400
7.934749476,110019,128,-55769,-4.022151115,128,-2624,-0.189247154,0.009159447,127,11679.6875,55040
7.944990748,110161,128,-55857,-4.028497819,128,-6961,-0.502038658,0.008726717,121,11699.21875,55680
8.016607525,111154,128,-55457,-3.999649167,128,127263,9.178414843,0.004471541,62,11718.75,56320
8.058942921,111741,128,-54881,-3.958107109,128,-1661,-0.119794025,0.004399419,61,11738.28125,56960
8.042931919,111519,128,-54479,-3.929114214,128,-4328,-0.312142409,0.033392314,463,11757.8125,57600
7.915204515,109748,128,-55409,-3.996187329,128,122895,8.863387568,0,0,11777.34375,58240
7.843659859,108756,128,-56152,-4.049773699,128,123904,8.936158292,1.160725494,16094,11796.875,58880
7.877484903,109225,128,-55619,-4.011332871,128,123896,8.935581319,0,0,11816.40625,59520
7.837601642,108672,128,-56257,-4.05734647,128,127007,9.159951706,1.172409197,16256,11835.9375,60160
7.856858117,108939,128,-55891,-4.030949954,128,-6212,-0.448019558,0.001081824,15,11855.46875,60800
7.865440591,109058,128,-56068,-4.043715482,128,123132,8.880480394,1.144858735,15874,11875,61440
7.995475888,110861,128,-54394,-3.922983876,128,-1597,-0.115178241,5.05E-04,7,11894.53125,62080
8.067597516,111861,128,-47657,-3.437100463,128,116723,8.418252876,1.153657574,15996,11914.0625,62720
7.774423096,107796,128,-58249,-4.201012755,128,114737,8.275019321,0.886663304,12294,11933.59375,63360
7.833130101,108610,128,-57161,-4.122544422,128,-12804,-0.923445335,1.180558941,16369,11953.125,64000
7.886716472,109353,128,-55896,-4.031310562,128,-2052,-0.147993582,0.036709909,509,11972.65625,64640
7.884624944,109324,128,-55690,-4.016453507,128,-7696,-0.555048055,0.002524257,35,11992.1875,65280
7.911526312,109697,128,-55440,-3.998423099,128,-2052,-0.147993582,7.21E-05,1,12011.71875,384
7.910011758,109676,128,-55591,-4.009313465,128,122945,8.86699365,0.007933379,110,12031.25,1024
7.928547016,109933,128,-55269,-3.986090301,128,130563,9.416416218,8.65E-04,12,12050.78125,1664
7.94289922,110132,128,-55059,-3.970944759,128,129276,9.323595682,0,0,12070.3125,2304
7.932946436,109994,128,-55285,-3.987244247,128,124929,9.010082961,0.001009703,14,12089.84375,2944
7.958333249,110346,128,-54806,-3.952697987,128,125422,9.045638924,0.01947284,270,12109.375,3584
8.031969432,111367,128,-54079,-3.900265563,128,-5128,-0.369839712,0.004543663,63,12128.90625,4224
8.128900901,112711,128,-53112,-3.830523948,128,-832,-0.060005195,0.009159447,127,12148.4375,4864
8.20635953,113785,128,-52256,-3.768787833,128,-3616,-0.26079181,0.004110933,57,12167.96875,5504
8.195901894,113640,128,-52721,-3.802324391,128,126991,9.15879776,1.179909847,16360,12187.5,6144
8.139574902,112859,128,-53714,-3.873941168,128,126502,9.123530283,1.162600656,16120,12207.03125,6784
8.018554809,111181,128,-54852,-3.956015582,128,-4612,-0.332624952,1.178106806,16335,12226.5625,7424
7.966122385,110454,128,-55018,-3.967987772,128,124935,9.010515691,1.18091955,16374,12246.09375,8064
7.923282137,109860,128,-55196,-3.980825422,128,124928,9.01001084,0.003750325,52,12265.625,8704
7.930566422,109961,128,-55477,-4.0010916,128,-2293,-0.165374895,1.181568644,16383,12285.15625,9344
7.934677355,110018,128,-55200,-3.981113908,128,124416,8.973084566,1.181063793,16376,12304.6875,9984
7.935470693,110029,128,-55442,-3.998567343,128,-7169,-0.517039957,1.181424401,16381,12324.21875,10624
7.907992352,109648,128,-55833,-4.026766899,128,129008,9.304267085,1.163177629,16128,12343.75,11264
7.939653747,110087,128,-55621,-4.011477114,128,-6401,-0.461650546,1.163393994,16131,12363.28125,11904
7.919171204,109803,128,-55327,-3.990273355,128,-3104,-0.223865536,0.004543663,63,12382.8125,12544
7.914483299,109738,128,-55684,-4.016020777,128,123455,8.903775681,1.181208036,16378,12402.34375,13184
7.919243326,109804,128,-55367,-3.99315822,128,124920,9.009433867,0.017020704,236,12421.875,13824
7.920685759,109824,128,-55531,-4.004986168,128,-7144,-0.515236916,1.168586751,16203,12441.40625,14464
7.896092283,109483,128,-55999,-4.03873909,128,-4095,-0.29533807,0.004543663,63,12460.9375,15104
7.891692864,109422,128,-56171,-4.05114401,128,-7984,-0.575819084,1.172337076,16255,12480.46875,15744
7.919531813,109808,128,-55587,-4.009024979,128,129021,9.305204666,0,0,12500,16384
7.913978447,109731,128,-55801,-4.024459007,128,-7289,-0.525694552,0.009447933,131,12519.53125,17024
7.925373665,109889,128,-55847,-4.027776602,128,-2945,-0.212398197,0.004687906,65,12539.0625,17664
7.956890816,110326,128,-55926,-4.033474211,128,127119,9.168029328,1.181496523,16382,12558.59375,18304
8.037883405,111449,128,-55297,-3.988109706,128,124927,9.009938718,0.034041409,472,12578.125,18944
8.079786072,112030,128,-54620,-3.939283364,128,130692,9.425719908,0.029858354,414,12597.65625,19584
7.907631744,109643,128,-56087,-4.045085793,128,-6537,-0.471459087,1.119255557,15519,12617.1875,20224
7.893784391,109451,128,-56192,-4.052658564,128,114656,8.269177469,1.172409197,16256,12636.71875,20864
7.866594537,109074,128,-56441,-4.07061685,128,-7193,-0.518770876,1.144930857,15875,12656.25,21504
7.850295049,108848,128,-56867,-4.101340664,128,123388,8.898943531,1.163177629,16128,12675.78125,22144
7.859310253,108973,128,-56556,-4.078910837,128,122887,8.862810595,1.180198333,16364,12695.3125,22784
7.897174108,109498,128,-56242,-4.056264646,128,124870,9.005827785,0.010962488,152,12714.84375,23424
7.917800894,109784,128,-56746,-4.092613947,128,113267,8.169000527,1.177890441,16332,12734.375,24064
8.086493383,112123,128,-47596,-3.432701043,128,130253,9.394058513,0.145397204,2016,12753.90625,24704
7.931864611,109979,128,-57551,-4.150671858,128,-8448,-0.60928352,0.877792344,12171,12773.4375,25344
7.885923134,109342,128,-59939,-4.322898307,128,116732,8.41890197,1.063794024,14750,12792.96875,25984
7.89371227,109450,128,-57101,-4.118217125,128,123007,8.871465191,0.035628085,494,12812.5,26624
7.930566422,109961,128,-56661,-4.086483608,128,-16767,-1.20926335,0.013919474,193,12832.03125,27264
7.913978447,109731,128,-56477,-4.073213228,128,-4095,-0.29533807,1.179404995,16353,12851.5625,27904
7.937850706,110062,128,-56357,-4.064558633,128,123128,8.880191908,1.179332874,16352,12871.09375,28544
7.963165398,110413,128,-56224,-4.054966456,128,-6624,-0.477733669,1.164259453,16143,12890.625,29184
7.93359553,110003,128,-56521,-4.07638658,128,-8189,-0.590604018,1.144353884,15867,12910.15625,29824
7.984152792,110704,128,-55813,-4.025324467,128,-8192,-0.590820383,0.007428528,103,12929.6875,30464
7.993744969,110837,128,-55576,-4.008231641,128,-6560,-0.473117885,0.009159447,127,12949.21875,31104
8.003697753,110975,128,-55529,-4.004841924,128,-7393,-0.533195202,1.181568644,16383,12968.75,31744
8.12529482,112661,128,-54227,-3.910939564,128,126881,9.150864381,0.002019406,28,12988.28125,32384
8.169433256,113273,128,-53845,-3.883389101,128,-4097,-0.295482313,0.009159447,127,13007.8125,33024
8.24263671,114288,128,-53631,-3.867955073,128,126975,9.157643814,0.003461838,48,13027.34375,33664
8.164024134,113198,128,-54251,-3.912670483,128,-233,-0.01680434,1.16368248,16135,13046.875,34304
8.056130178,111702,128,-55132,-3.976209638,128,124932,9.010299326,1.164475818,16146,13066.40625,34944
7.996629834,110877,128,-55824,-4.026117805,128,-3856,-0.278101001,1.164259453,16143,13085.9375,35584
7.955087776,110301,128,-56198,-4.053091294,128,-8192,-0.590820383,1.179260752,16351,13105.46875,36224
7.955015654,110300,128,-55989,-4.038017874,128,131065,9.452621275,0.015866758,220,13125,36864
7.929412476,109945,128,-56359,-4.064702876,128,-7684,-0.554182596,0.004543663,63,13144.53125,37504
7.899265635,109527,128,-56573,-4.080136905,128,-7421,-0.535214607,1.181568644,16383,13164.0625,38144
7.915997853,109759,128,-56363,-4.064991363,128,-7689,-0.554543204,1.181568644,16383,13183.59375,38784
7.928619138,109934,128,-56232,-4.055543429,128,-2472,-0.178284666,1.181568644,16383,13203.125,39424
7.941889518,110118,128,-55849,-4.027920845,128,-2057,-0.14835419,0.002812744,39,13222.65625,40064
7.939076774,110079,128,-55854,-4.028281454,128,-3589,-0.258844526,0.018391015,255,13242.1875,40704
7.90258323,109573,128,-56069,-4.043787604,128,114681,8.27098051,1.172409197,16256,13261.71875,41344
7.892486202,109433,128,-56045,-4.042056685,128,123136,8.880768881,1.181352279,16380,13281.25,41984
7.897462594,109502,128,-55820,-4.025829318,128,-6666,-0.480762777,0.004543663,63,13300.78125,42624
7.891115891,109414,128,-55866,-4.029146913,128,123362,8.897068369,1.171255251,16240,13320.3125,43264
7.908713568,109658,128,-55459,-3.99979341,128,-7299,-0.526415768,0.004832149,67,13339.84375,43904
7.878999457,109246,128,-55769,-4.022151115,128,123015,8.872042164,1.172409197,16256,13378.90625,45184
7.925662151,109893,128,-55709,-4.017823817,128,-7741,-0.558293528,1.180414698,16367,13398.4375,45824
7.980907319,110659,128,-55351,-3.992004274,128,-8164,-0.588800977,0.009159447,127,13417.96875,46464
8.031392459,111359,128,-54518,-3.931926958,128,126959,9.156489868,0.022501948,312,13437.5,47104
7.967636939,110475,128,-54663,-3.942384594,128,-2047,-0.147632974,1.173346779,16269,13457.03125,47744
7.885995255,109343,128,-55417,-3.996764302,128,-6145,-0.443187409,1.179837725,16359,13476.5625,48384
7.831471304,108587,128,-55621,-4.011477114,128,-7583,-0.546898311,1.172625562,16259,13496.09375,49024
7.820580938,108436,128,-55419,-3.996908545,128,122880,8.862305744,0.025386813,352,13515.625,49664
7.811060883,108304,128,-55744,-4.020348074,128,122940,8.866633042,1.179044387,16348,13535.15625,50304
7.817407586,108392,128,-55717,-4.018400791,128,127001,9.159518976,0.027117732,376,13554.6875,50944
7.859166009,108971,128,-55493,-4.002245546,128,125980,9.085882793,1.165052791,16154,13574.21875,51584
8.021439674,111221,128,-51983,-3.749098629,128,127487,9.194570088,0.166168233,2304,13593.75,52224
7.950760478,110241,128,-51564,-3.718879666,128,-15936,-1.149330276,1.016698601,14097,13613.28125,52864
7.785962556,107956,128,-58086,-4.189256929,128,-6300,-0.454366261,0.960011001,13311,13632.8125,53504
7.869767889,109118,128,-55784,-4.02323294,128,-4081,-0.294328367,0.001947284,27,13652.34375,54144
7.875970349,109204,128,-55515,-4.003832221,128,124988,9.014338137,1.179332874,16352,13671.875,54784
7.903737176,109589,128,-54862,-3.956736798,128,-7559,-0.545167392,0.033392314,463,13691.40625,55424
7.92119061,109831,128,-54780,-3.950822824,128,-2033,-0.146623271,1.176808617,16317,13710.9375,56064
7.879720674,109256,128,-55307,-3.988830923,128,124868,9.005683542,1.181496523,16382,13730.46875,56704
7.922777286,109853,128,-54544,-3.93380212,128,-4468,-0.322239437,0.00930369,129,13750,57344
7.892125594,109428,128,-55089,-3.973108408,128,-4548,-0.328009168,1.153008479,15987,13769.53125,57984
7.94289922,110132,128,-53903,-3.887572156,128,-4352,-0.313873328,0.001081824,15,13789.0625,58624
7.968935128,110493,128,-53593,-3.865214451,128,126526,9.125261202,0.006923676,96,13808.59375,59264
8.060962327,111769,128,-52712,-3.801675296,128,-4096,-0.295410191,0.001081824,15,13828.125,59904
8.148590106,112984,128,-51831,-3.738136141,128,130055,9.37977843,0.004038811,56,13847.65625,60544
8.209749247,113832,128,-51378,-3.705465043,128,131055,9.451900059,0.009231568,128,13867.1875,61184
8.18068423,113429,128,-51889,-3.742319196,128,-2077,-0.149796623,1.135555045,15745,13886.71875,61824
8.121832981,112613,128,-52365,-3.776649091,128,-2929,-0.211244251,1.181568644,16383,13906.25,62464
7.986316441,110734,128,-54032,-3.896875846,128,-154,-0.011106731,1.163105507,16127,13925.78125,63104
7.954582924,110294,128,-54267,-3.913824429,128,130049,9.379345701,1.146733898,15900,13945.3125,63744
7.923137894,109858,128,-54700,-3.945053094,128,126847,9.148412245,1.162600656,16120,13964.84375,64384
7.934388868,110014,128,-54232,-3.911300172,128,126526,9.125261202,0,0,13984.375,65024
7.879287944,109250,128,-54949,-3.96301138,128,126735,9.140334623,1.126107112,15614,14003.90625,128
7.897174108,109498,128,-54457,-3.927527538,128,129663,9.351506752,0.017309191,240,14023.4375,768
7.938139193,110066,128,-53894,-3.886923061,128,126970,9.157283206,0.015866758,220,14042.96875,1408
7.909867514,109674,128,-54267,-3.913824429,128,-4121,-0.297213232,0.009159447,127,14062.5,2048
7.92472457,109880,128,-54175,-3.907189239,128,-4128,-0.297718084,0.001081824,15,14082.03125,2688
7.912536015,109711,128,-53930,-3.88951944,128,126879,9.150720137,1.172409197,16256,14101.5625,3328
7.904819,109604,128,-54112,-3.902645576,128,129278,9.323739925,1.179044387,16348,14121.09375,3968
7.935614936,110031,128,-53596,-3.865430816,128,-4149,-0.299232638,5.05E-04,7,14140.625,4608
7.870633348,109130,128,-54433,-3.925796619,128,126077,9.092878591,1.173274657,16268,14160.15625,5248
7.929773084,109950,128,-53564,-3.863122924,128,-4544,-0.327720681,1.172337076,16255,14179.6875,5888
7.898905027,109522,128,-53766,-3.877691493,128,125959,9.084368239,0.001730919,24,14199.21875,6528
7.891043769,109413,128,-53708,-3.873508438,128,-128,-0.009231568,1.177529833,16327,14218.75,7168
7.887654053,109366,128,-54186,-3.907982577,128,126720,9.139252798,1.153369087,15992,14238.28125,7808
7.957107181,110329,128,-53475,-3.856704099,128,126471,9.121294513,0.017309191,240,14257.8125,8448
7.989850401,110783,128,-53881,-3.88598548,128,-4221,-0.304425395,1.153873939,15999,14277.34375,9088
8.06377507,111808,128,-53963,-3.891899454,128,-781,-0.056326992,1.17695286,16319,14296.875,9728
7.966843601,110464,128,-55884,-4.030445103,128,124351,8.96839666,1.172409197,16256,14316.40625,10368
7.834644656,108631,128,-57964,-4.18045809,128,122944,8.866921528,1.106634272,15344,14335.9375,11008
7.840198021,108708,128,-57486,-4.145983952,128,118546,8.549730605,4.33E-04,6,14355.46875,11648
7.825196722,108500,128,-58012,-4.183919929,128,-14529,-1.047855144,1.173491022,16271,14375,12288
7.804065085,108207,128,-58790,-4.240030556,128,-15460,-1.115000381,1.159787912,16081,14394.53125,12928
7.821446397,108448,128,-59041,-4.258133085,128,115229,8.310503162,1.176448009,16312,14414.0625,13568
7.836808304,108661,128,-59218,-4.270898613,128,114751,8.276029024,1.18048682,16368,14433.59375,14208
8.110654129,112458,128,-51730,-3.730851857,128,-3589,-0.258844526,7.21E-05,1,14453.125,14848
7.968358155,110485,128,-55039,-3.969502326,128,-1537,-0.110850943,1.180703185,16371,14472.65625,15488
7.725740996,107121,128,-62510,-4.508323015,128,115198,8.308267392,1.07201589,14864,14492.1875,16128
7.837024669,108664,128,-59937,-4.322754064,128,114808,8.280139956,0.013991596,194,14511.71875,16768
7.874383673,109182,128,-59318,-4.278110776,128,-16264,-1.17298617,7.21E-05,1,14531.25,17408
7.872436389,109155,128,-59140,-4.265273126,128,-16136,-1.163754602,9.38E-04,13,14550.78125,18048
7.879937038,109259,128,-59040,-4.258060963,128,114885,8.285693322,1.177601955,16328,14570.3125,18688
7.879504309,109253,128,-58414,-4.212912823,128,115263,8.312955298,0.002163649,30,14589.84375,19328
7.864358767,109043,128,-58550,-4.222721365,128,-15601,-1.125169531,1.165413399,16159,14609.375,19968
7.894577729,109462,128,-58099,-4.19019451,128,-14975,-1.080021391,0.014352204,199,14628.90625,20608
7.880802498,109271,128,-58316,-4.205844904,128,114943,8.289876376,1.163177629,16128,14648.4375,21248
7.940302842,110096,128,-57472,-4.144974249,128,118720,8.562279768,0.001153946,16,14667.96875,21888
8.007952929,111034,128,-56784,-4.095354568,128,-12304,-0.88738452,0.029786233,413,14687.5,22528
8.105461372,112386,128,-55788,-4.023521426,128,-6528,-0.470809993,0.004687906,65,14707.03125,23168
8.170515081,113288,128,-55276,-3.986595152,128,-4154,-0.299593246,0.00930369,129,14726.5625,23808
8.122049346,112616,128,-55677,-4.015515925,128,-6397,-0.461362059,1.179260752,16351,14746.09375,24448
8.018338444,111178,128,-56611,-4.082877527,128,-7137,-0.514732065,1.16368248,16135,14765.625,25088
7.914916028,109744,128,-57714,-4.162427683,128,123148,8.88163434,1.179044387,16348,14785.15625,25728
7.891260134,109416,128,-57461,-4.144180911,128,116609,8.41003101,1.171832224,16248,14804.6875,26368
7.839909534,108704,128,-58028,-4.185073875,128,-15298,-1.103316677,1.173491022,16271,14824.21875,27008
7.840414386,108711,128,-58096,-4.189978145,128,-13312,-0.960083122,0.016227366,225,14843.75,27648
7.833779196,108619,128,-58152,-4.194016957,128,-8189,-0.590604018,1.178106806,16335,14863.28125,28288
7.82555733,108505,128,-57948,-4.179304144,128,116707,8.41709893,1.165485521,16160,14882.8125,28928
7.844020467,108761,128,-57787,-4.167692562,128,-12305,-0.887456642,1.179260752,16351,14902.34375,29568
7.82288883,108468,128,-58091,-4.189617537,128,-16383,-1.181568644,1.180414698,16367,14921.875,30208
7.837385277,108669,128,-57752,-4.165168305,128,-14721,-1.061702497,1.153873939,15999,14941.40625,30848
7.806733585,108244,128,-57993,-4.182549618,128,-12736,-0.918541064,1.180991671,16375,14960.9375,31488
7.832481007,108601,128,-57767,-4.166250129,128,-14399,-1.038479333,1.163249751,16129,14980.46875,32128
7.80738268,108253,128,-58022,-4.184641145,128,-16384,-1.181640766,1.180991671,16375,15000,32768
7.797718382,108119,128,-58114,-4.191276335,128,-15876,-1.145002978,1.165413399,16159,15019.53125,33408
7.809834815,108287,128,-57973,-4.181107185,128,115974,8.364233776,0,0,15039.0625,34048
7.812359072,108322,128,-58221,-4.198993349,128,-15279,-1.101946366,1.174644968,16287,15058.59375,34688
7.815532424,108366,128,-58330,-4.206854606,128,116734,8.419046214,1.179044387,16348,15078.125,35328
7.822816708,108467,128,-58198,-4.197334551,128,116704,8.416882565,1.172409197,16256,15097.65625,35968
7.854838712,108911,128,-58426,-4.213778283,128,-13344,-0.962391014,1.172337076,16255,15117.1875,36608
7.929845206,109951,128,-57646,-4.157523412,128,-12360,-0.891423332,0.014063718,195,15136.71875,37248
7.964607831,110433,128,-57012,-4.1117983,128,122988,8.87009488,1.179332874,16352,15156.25,37888
7.837024669,108664,128,-58082,-4.188968443,128,-14479,-1.044249063,1.181568644,16383,15175.78125,38528
7.790289854,108016,128,-58500,-4.219115283,128,114713,8.273288402,1.14817633,15920,15195.3125,39168
7.747449606,107422,128,-59034,-4.257628233,128,-15370,-1.108509434,1.181280158,16379,15214.84375,39808
7.767643662,107702,128,-58993,-4.254671246,128,115071,8.299107945,1.179332874,16352,15234.375,40448
7.785385583,107948,128,-58807,-4.241256623,128,114812,8.280428443,1.1734189,16270,15253.90625,41088
7.802766896,108189,128,-58830,-4.242915421,128,116795,8.423445633,0.004327298,60,15273.4375,41728
7.819499114,108421,128,-58955,-4.251930624,128,-16193,-1.167865535,0.027766827,385,15292.96875,42368
8.004851699,110991,128,-49917,-3.600095344,128,129987,9.37487416,0.004327298,60,15312.5,43008
7.84503017,108775,128,-58729,-4.235631136,128,-255,-0.018391015,1.149258155,15935,15332.03125,43648
7.81005118,108290,128,-61666,-4.44745236,128,115662,8.341731827,1.126107112,15614,15351.5625,44288
7.823610046,108478,128,-60032,-4.329605619,128,-16357,-1.179693482,0.040460234,561,15371.09375,44928
7.827288249,108529,128,-59764,-4.310277022,128,-14337,-1.034007792,0.005120636,71,15390.625,45568
7.843082886,108748,128,-59617,-4.299675143,128,114783,8.278336916,4.33E-04,6,15410.15625,46208
7.822960952,108469,128,-60086,-4.333500187,128,-24608,-1.774769041,0.010890366,151,15429.6875,46848
7.854478103,108906,128,-59641,-4.301406062,128,-16085,-1.160076399,1.179404995,16353,15449.21875,47488
7.86673878,109076,128,-59682,-4.304363049,128,114690,8.271629604,0.002019406,28,15468.75,48128
7.872724876,109159,128,-59313,-4.277750168,128,115559,8.3343033,0.018318894,254,15488.28125,48768
7.909867514,109674,128,-58866,-4.2455118,128,115584,8.33610634,0.030146841,418,15507.8125,49408
7.932225219,109984,128,-58627,-4.22827473,128,114713,8.273288402,1.181063793,16376,15527.34375,50048
8.064352043,111816,128,-57212,-4.126222626,128,116239,8.383346007,0,0,15546.875,50688
8.08238245,112066,128,-57322,-4.134156005,128,-8185,-0.590315532,0.036565666,507,15566.40625,51328
8.151691336,113027,128,-56619,-4.0834545,128,-8188,-0.590531896,1.17781832,16331,15585.9375,51968
8.125511184,112664,128,-56842,-4.099537623,128,-8065,-0.581660936,1.146950262,15903,15605.46875,52608
7.991509198,110806,128,-58193,-4.196973943,128,117767,8.493547856,1.178755901,16344,15625,53248
7.921406975,109834,128,-58951,-4.251642138,128,117121,8.446957284,1.163321872,16130,15644.53125,53888
7.888952242,109384,128,-59034,-4.257628233,128,115464,8.327451745,1.15394606,16000,15664.0625,54528
7.845318657,108779,128,-59338,-4.279553208,128,-14209,-1.024776223,1.180126212,16363,15683.59375,55168
7.859526617,108976,128,-59322,-4.278399262,128,114694,8.271918091,1.181063793,16376,15703.125,55808
7.83262525,108603,128,-59646,-4.30176667,128,114720,8.273793253,1.158417601,16062,15722.65625,56448
7.868181213,109096,128,-59154,-4.266282829,128,114726,8.274225983,0.004327298,60,15742.1875,57088
7.848492008,108823,128,-59722,-4.307247914,128,-16058,-1.158129115,1.144930857,15875,15761.71875,57728
7.87337397,109168,128,-59043,-4.258277328,128,115197,8.30819527,1.18048682,16368,15781.25,58368
7.847554427,108810,128,-59361,-4.281212006,128,-16072,-1.159138818,1.172625562,16259,15800.78125,59008
7.876980052,109218,128,-59051,-4.258854301,128,114854,8.283457551,1.174572846,16286,15820.3125,59648
7.850222927,108847,128,-59156,-4.266427072,128,114688,8.271485361,1.167072197,16182,15839.84375,60288
7.860680564,108992,128,-59471,-4.289145385,128,-14399,-1.038479333,1.177097103,16321,15859.375,60928
7.838034372,108678,128,-59462,-4.28849629,128,116728,8.418613484,1.179477117,16354,15878.90625,61568
7.826567033,108519,128,-59752,-4.309411563,128,-16353,-1.179404995,1.163826724,16137,15898.4375,62208
7.841279845,108723,128,-59600,-4.298449075,128,-14536,-1.048359996,1.156181831,16031,15917.96875,62848
7.84459744,108769,128,-59486,-4.290227209,128,-16241,-1.171327373,0.004543663,63,15937.5,63488
7.868181213,109096,128,-59502,-4.291381155,128,115099,8.30112735,5.77E-04,8,15957.03125,64128
7.9331628,109997,128,-58993,-4.254671246,128,-14084,-1.01576102,2.16E-04,3,15976.5625,64768
7.971747872,110532,128,-58738,-4.236280231,128,-15810,-1.140242951,2.16E-04,3,15996.09375,65408
7.953789586,110283,128,-58632,-4.228635338,128,115224,8.310142554,1.149330276,15936,16015.625,512
7.825340965,108502,128,-59519,-4.292607223,128,-24689,-1.780610893,1.16368248,16135,16035.15625,1152
7.795843219,108093,128,-59764,-4.310277022,128,-14841,-1.070357093,1.145796316,15887,16054.6875,1792
7.759854527,107594,128,-60285,-4.347852391,128,114880,8.285332714,1.159571547,16078,16074.21875,2432
7.782933448,107914,128,-60033,-4.32967774,128,-16321,-1.177097103,1.172625562,16259,16093.75,3072
7.803055382,108193,128,-59684,-4.304507292,128,116727,8.418541362,0.013847353,192,16113.28125,3712
7.819066384,108415,128,-59744,-4.30883459,128,-25056,-1.807079531,0.009159447,127,16132.8125,4352
8.02345908,111249,128,-52701,-3.800881958,128,-7304,-0.526776377,0.009159447,127,16152.34375,4992
7.910516609,109683,128,-56251,-4.05691374,128,-1991,-0.143594163,1.172914049,16263,16171.875,5632
7.798439598,108129,128,-62727,-4.523973408,128,114937,8.289443647,1.179332874,16352,16191.40625,6272
7.838611345,108686,128,-60258,-4.345905107,128,-24961,-1.800227976,0.003678203,51,16210.9375,6912
7.847987157,108816,128,-59745,-4.308906711,128,114719,8.273721132,0.019617083,272,16230.46875,7552
7.871643051,109144,128,-59461,-4.288424169,128,116704,8.416882565,0,0,16250,8192
7.853324157,108890,128,-59436,-4.286621128,128,114815,8.280644808,0.001730919,24,16269.53125,8832
7.907126892,109636,128,-58754,-4.237434177,128,116991,8.437581472,0.023367408,324,16289.0625,9472
7.890466796,109405,128,-58906,-4.248396665,128,-13825,-0.997081518,1.180558941,16369,16308.59375,10112
7.851737482,108868,128,-59328,-4.278831992,128,116856,8.427845052,0,0,16328.125,10752
7.897751081,109506,128,-58470,-4.216951635,128,-14273,-1.029392008,0.032526855,451,16347.65625,11392
7.936841004,110048,128,-57817,-4.169856211,128,114737,8.275019321,0.035772328,496,16367.1875,12032
8.029805783,111337,128,-56874,-4.101845515,128,-8192,-0.590820383,0.03454626,479,16386.71875,12672
8.095364344,112246,128,-56154,-4.049917942,128,-4033,-0.290866529,0.008293987,115,16406.25,13312
8.156451363,113093,128,-56046,-4.042128806,128,124897,9.007775069,0,0,16425.78125,13952
8.139358537,112856,128,-55975,-4.037008171,128,-8191,-0.590748261,1.181568644,16383,16445.3125,14592
7.971819993,110533,128,-57549,-4.150527614,128,-8129,-0.58627672,1.116947665,15487,16464.84375,15232
7.920397272,109820,128,-58136,-4.192863011,128,-9188,-0.662653525,1.14464237,15871,16484.375,15872
7.889673458,109394,128,-58222,-4.199065471,128,117976,8.508621276,0.009087325,126,16503.90625,16512
7.839116197,108693,128,-58591,-4.225678352,128,-14799,-1.067327984,1.181568644,16383,16523.4375,17152
7.855776293,108924,128,-58477,-4.217456486,128,117151,8.449120933,1.181496523,16382,16542.96875,17792
7.818633654,108409,128,-58767,-4.238371758,128,-14120,-1.018357398,1.172625562,16259,16562.5,18432
7.831182817,108583,128,-58467,-4.21673527,128,-16164,-1.165774008,0.002812744,39,16582.03125,19072
7.838467102,108684,128,-58242,-4.200507903,128,116859,8.428061417,0.004038811,56,16601.5625,19712
7.871282443,109139,128,-57695,-4.161057372,128,-15876,-1.145002978,0.011467339,159,16621.09375,20352
7.816181519,108375,128,-58547,-4.222505,128,-13364,-0.963833447,1.163249751,16129,16640.625,20992
7.822672465,108465,128,-58185,-4.19639697,128,-14818,-1.068698295,1.172337076,16255,16660.15625,21632
7.803920842,108205,128,-58291,-4.204041863,128,-15359,-1.107716096,1.181568644,16383,16679.6875,22272
7.820941546,108441,128,-57952,-4.179592631,128,116720,8.418036511,1.17298617,16264,16699.21875,22912
7.83175979,108591,128,-57610,-4.154927034,128,-12301,-0.887168156,0.003389717,47,16718.75,23552
7.83262525,108603,128,-57652,-4.157956142,128,116733,8.418974092,1.163177629,16128,16738.28125,24192
7.786323164,107961,128,-58343,-4.207792188,128,-16375,-1.180991671,1.17695286,16319,16757.8125,24832
7.817335465,108391,128,-57965,-4.180530212,128,-15999,-1.153873939,1.179549239,16355,16777.34375,25472
7.828370074,108544,128,-57560,-4.151320952,128,-14461,-1.042950874,1.180414698,16367,16796.875,26112
7.88311039,109303,128,-57441,-4.142738479,128,122823,8.858194811,0.008077622,112,16816.40625,26752
7.949895018,110229,128,-56992,-4.110355867,128,122911,8.864541514,0.002019406,28,16835.9375,27392
7.962444182,110403,128,-56240,-4.056120402,128,122880,8.862305744,0.026540759,368,16855.46875,28032
7.850727779,108854,128,-57070,-4.115981354,128,123680,8.920003047,1.149763006,15942,16875,28672
7.780192826,107876,128,-57520,-4.148436087,128,118559,8.550668186,1.172120711,16252,16894.53125,29312
7.7967808,108106,128,-57195,-4.124996558,128,118757,8.564948269,1.180775306,16372,16914.0625,29952
7.764903041,107664,128,-57574,-4.152330655,128,118552,8.550163335,1.173563143,16272,16933.59375,30592
7.750045985,107458,128,-57839,-4.171442887,128,-16384,-1.181640766,1.177241347,16323,16953.125,31232
7.761080594,107611,128,-57966,-4.180602334,128,-12776,-0.921425929,1.17695286,16319,16972.65625,31872
7.852891428,108884,128,-57099,-4.118072881,128,123007,8.871465191,0.001442433,20,16992.1875,32512
8.070482382,111901,128,-48288,-3.48260921,128,128639,9.277654204,0.022501948,312,17011.71875,33152
7.836087088,108651,128,-56086,-4.045013672,128,-7968,-0.574665138,0.819373825,11361,17031.25,33792
7.783654664,107924,128,-59230,-4.271764072,128,115713,8.345410031,1.106490029,15342,17050.78125,34432
7.815532424,108366,128,-57880,-4.174399874,128,114732,8.274658713,0.018895867,262,17070.3125,35072
7.847626549,108811,128,-57436,-4.14237787,128,-14340,-1.034224157,7.93E-04,11,17089.84375,35712
7.874960646,109190,128,-57005,-4.111293448,128,-8068,-0.581877301,7.21E-05,1,17109.375,36352
7.893351661,109445,128,-56742,-4.09232546,128,123658,8.918416371,1.172697684,16260,17128.90625,36992
7.839765291,108702,128,-57572,-4.152186412,128,-8077,-0.582526396,1.179837725,16359,17148.4375,37632
7.865584834,109060,128,-57143,-4.121246233,128,123080,8.87673007,2.88E-04,4,17167.96875,38272
7.896020162,109482,128,-56481,-4.073501715,128,-7618,-0.549422568,0.034690503,481,17187.5,38912
7.923210016,109859,128,-56195,-4.052874929,128,-8067,-0.581805179,0.02214134,307,17207.03125,39552
7.98408067,110703,128,-55594,-4.00952983,128,-7665,-0.552812285,0.036854152,511,17226.5625,40192
8.051658637,111640,128,-54901,-3.959549541,128,-17,-0.001226068,0.001081824,15,17246.09375,40832
8.146065849,112949,128,-54143,-3.904881347,128,-128,-0.009231568,5.05E-04,7,17265.625,41472
8.189771556,113555,128,-53582,-3.864421113,128,-7,-5.05E-04,0.009159447,127,17285.15625,42112
8.121832981,112613,128,-54416,-3.924570551,128,-4226,-0.304786003,1.179837725,16359,17304.6875,42752
8.024901512,111269,128,-55156,-3.977940557,128,-4209,-0.303559936,1.181280158,16379,17324.21875,43392
7.948741072,110213,128,-55811,-4.025180224,128,123389,8.899015653,1.162889142,16124,17343.75,44032
7.904602635,109601,128,-56069,-4.043787604,128,-8161,-0.588584612,1.180991671,16375,17363.28125,44672
7.879360065,109251,128,-56234,-4.055687673,128,-8170,-0.589233707,1.15877821,16067,17382.8125,45312
7.909579028,109670,128,-55724,-4.018905642,128,-6208,-0.447731071,1.181568644,16383,17402.34375,45952
7.875970349,109204,128,-56231,-4.055471308,128,124445,8.975176093,1.181496523,16382,17421.875,46592
7.907992352,109648,128,-55591,-4.009313465,128,124920,9.009433867,1.164331575,16144,17441.40625,47232
7.860031469,108983,128,-56367,-4.065279849,128,126976,9.157715935,1.179909847,16360,17460.9375,47872
7.891548621,109420,128,-55835,-4.026911143,128,124897,9.007775069,0.021780732,302,17480.46875,48512
7.88044189,109266,128,-55928,-4.033618454,128,-7153,-0.515886011,1.180991671,16375,17500,49152
7.889529215,109392,128,-55612,-4.010828019,128,124924,9.009722353,1.18048682,16368,17519.53125,49792
7.885634647,109338,128,-55453,-3.999360681,128,-6156,-0.443980747,9.38E-04,13,17539.0625,50432
7.854550225,108907,128,-55999,-4.03873909,128,-3776,-0.27233127,1.181568644,16383,17558.59375,51072
7.871282443,109139,128,-55754,-4.021069291,128,-6608,-0.476579723,0.008293987,115,17578.125,51712
7.886427985,109349,128,-55493,-4.002245546,128,123900,8.935869805,0.006923676,96,17597.65625,52352
7.870200619,109124,128,-55852,-4.02813721,128,127440,9.191180371,0,0,17617.1875,52992
7.893928634,109453,128,-55326,-3.990201234,128,-6241,-0.450111085,0.019544961,271,17636.71875,53632
7.889673458,109394,128,-55281,-3.98695576,128,-4337,-0.312791504,0.069453129,963,17656.25,54272
7.923137894,109858,128,-55487,-4.001812816,128,127024,9.161177774,0.001153946,16,17675.78125,54912
7.973118183,110551,128,-54965,-3.964165326,128,-6071,-0.437850408,0.036854152,511,17695.3125,55552
8.005212308,110996,128,-54281,-3.914834132,128,126967,9.157066841,0.036060814,500,17714.84375,56192
7.878566727,109240,128,-55032,-3.968997475,128,129038,9.306430734,1.181352279,16380,17734.375,56832
7.832336763,108599,128,-55456,-3.999577045,128,-6288,-0.453500802,1.180991671,16375,17753.90625,57472
7.831254939,108584,128,-55253,-3.984936355,128,-6145,-0.443187409,1.181280158,16379,17773.4375,58112
7.800459004,108157,128,-55499,-4.002678275,128,126996,9.159158368,1.165197035,16156,17792.96875,58752
7.821085789,108443,128,-55302,-3.988470315,128,-6163,-0.444485598,0.016660096,231,17812.5,59392
7.809329964,108280,128,-55494,-4.002317667,128,127483,9.194281601,0.004038811,56,17832.03125,60032
7.913978447,109731,128,-54057,-3.898678887,128,-6176,-0.445423179,0.009159447,127,17851.5625,60672
8.071924814,111921,128,-45999,-3.317522802,128,-13287,-0.958280082,0.147488731,2045,17871.09375,61312
7.863060577,109025,128,-53474,-3.856631977,128,126751,9.141488569,0.846996408,11744,17890.625,61952
7.854838712,108911,128,-56836,-4.099104893,128,-12337,-0.889764534,1.153873939,15999,17910.15625,62592
7.815388181,108364,128,-55937,-4.034267549,128,124175,8.955703253,0.023367408,324,17929.6875,63232
7.871931538,109148,128,-54746,-3.948370689,128,123291,8.891947733,0.028992895,402,17949.21875,63872
7.876691565,109214,128,-54522,-3.932215444,128,129024,9.305421031,0.009231568,128,17968.75,64512
7.850439292,108850,128,-55016,-3.967843529,128,-5121,-0.369334861,1.148969668,15931,17988.28125,65152
7.879864917,109258,128,-54744,-3.948226446,128,126472,9.121366635,0.001009703,14,18007.8125,256
7.867964848,109093,128,-54804,-3.952553743,128,-1820,-0.131261364,1.179837725,16359,18027.34375,896
7.926167002,109900,128,-53904,-3.887644278,128,131064,9.452549154,0.006923676,96,18046.875,1536
7.892341959,109431,128,-54071,-3.89968859,128,-6584,-0.474848804,0.004543663,63,18066.40625,2176
7.981556413,110668,128,-53152,-3.833408813,128,-9,-6.49E-04,0.001947284,27,18085.9375,2816
8.041922217,111505,128,-52659,-3.79785285,128,129039,9.306502856,0.013847353,192,18105.46875,3456
8.183929704,113474,128,-51131,-3.687651001,128,-3121,-0.225091603,0.002091527,29,18125,4096
8.147075551,112963,128,-51686,-3.727678505,128,-104,-0.007500649,1.131083504,15683,18144.53125,4736
8.123708144,112639,128,-51906,-3.743545263,128,-3810,-0.274783406,1.181568644,16383,18164.0625,5376
8.002038956,110952,128,-53309,-3.844731908,128,126913,9.153172273,1.170101305,16224,18183.59375,6016
7.935470693,110029,128,-53842,-3.883172737,128,-4224,-0.30464176,1.177962563,16333,18203.125,6656
7.907126892,109636,128,-54102,-3.90192436,128,126952,9.155985016,2.88E-04,4,18222.65625,7296
7.88044189,109266,128,-54462,-3.927888146,128,-7744,-0.558509893,1.180703185,16371,18242.1875,7936
7.860752685,108993,128,-54752,-3.948803419,128,129472,9.337731521,1.178178928,16336,18261.71875,8576
7.884192215,109318,128,-54349,-3.919738402,128,123827,8.930604926,0.018895867,262,18281.25,9216
7.894938337,109467,128,-54094,-3.901347387,128,126592,9.13002123,0.025531057,354,18300.78125,9856
7.859310253,108973,128,-54427,-3.925363889,128,-31,-0.00223577,7.21E-05,1,18320.3125,10496
7.860464199,108989,128,-54483,-3.929402701,128,-7419,-0.535070364,1.181568644,16383,18339.84375,11136
7.883687363,109311,128,-54407,-3.923921457,128,-4099,-0.295626556,1.181568644,16383,18359.375,11776
7.88087462,109272,128,-54128,-3.903799522,128,125982,9.086027036,1.181063793,16376,18378.90625,12416
7.867676362,109089,128,-54308,-3.916781416,128,125896,9.079824576,0,0,18398.4375,13056
7.863493307,109031,128,-54408,-3.923993578,128,-4232,-0.305218733,1.181568644,16383,18417.96875,13696
7.855271441,108917,128,-54637,-3.940509431,128,-960,-0.069236764,1.181568644,16383,18437.5,14336
7.882894025,109300,128,-54258,-3.913175334,128,130819,9.434879355,1.18048682,16368,18457.03125,14976
7.846039873,108789,128,-54647,-3.941230648,128,129665,9.351650995,0.008943082,124,18476.5625,15616
7.884264336,109319,128,-54328,-3.918223848,128,-7729,-0.557428069,5.05E-04,7,18496.09375,16256
7.918594231,109795,128,-54452,-3.92716693,128,-160,-0.011539461,0.018102529,251,18515.625,16896
7.989345549,110776,128,-53491,-3.857858045,128,126975,9.157643814,0.01817465,252,18535.15625,17536
7.958044762,110342,128,-53365,-3.84877072,128,126857,9.149133462,0.032454733,450,18554.6875,18176
7.835942845,108649,128,-54301,-3.916276564,128,126270,9.106798066,1.164908548,16152,18574.21875,18816
7.808897234,108274,128,-54366,-3.92096447,128,130978,9.446346694,0.009087325,126,18593.75,19456
7.805796004,108231,128,-54204,-3.909280766,128,-5000,-0.360608144,7.21E-05,1,18613.28125,20096
7.758916945,107581,128,-54762,-3.949524635,128,122880,8.862305744,1.172409197,16256,18632.8125,20736
7.782500718,107908,128,-54556,-3.934667579,128,131068,9.45283764,0.009520055,132,18652.34375,21376
7.79101107,108026,128,-54577,-3.936182134,128,123491,8.906372059,0.018318894,254,18671.875,22016
7.880081282,109261,128,-53889,-3.886562453,128,-4225,-0.304713882,0.069741615,967,18691.40625,22656
8.049278623,111607,128,-44922,-3.239847808,128,-12288,-0.886230574,0.073203453,1015,18710.9375,23296
7.764975162,107665,128,-56328,-4.062467106,128,-8168,-0.589089464,0.701671326,9729,18730.46875,23936
7.783221934,107918,128,-55826,-4.026262048,128,-8127,-0.586132477,1.153296966,15991,18750,24576
7.813368775,108336,128,-54937,-3.96214592,128,123175,8.883581624,0.058851249,816,18769.53125,25216
7.823970654,108483,128,-54549,-3.934162728,128,-1937,-0.139699595,0.071761021,995,18789.0625,25856
7.855776293,108924,128,-54185,-3.907910455,128,130687,9.4253593,0.036782031,510,18808.59375,26496
7.819715478,108424,128,-54554,-3.934523336,128,129075,9.309099234,1.177024982,16320,18828.125,27136
7.871931538,109148,128,-53881,-3.88598548,128,-25,-0.001803041,0.001081824,15,18847.65625,27776
7.858589036,108963,128,-54054,-3.898462522,128,-6920,-0.499081671,0.004255176,59,18867.1875,28416
7.88621162,109346,128,-53464,-3.855910761,128,-6682,-0.481916723,0.019689205,273,18886.71875,29056
7.89508258,109469,128,-53230,-3.8390343,128,-2030,-0.146406906,0.018246772,253,18906.25,29696
7.946288937,110179,128,-52767,-3.805641986,128,129150,9.314508356,0.009231568,128,18925.78125,30336
8.026704553,111294,128,-51975,-3.748521656,128,128249,9.249526769,0.013703109,190,18945.3125,30976
8.115342035,112523,128,-51080,-3.683972798,128,-4,-2.88E-04,0.064693101,897,18964.84375,31616
8.140656726,112874,128,-50952,-3.674741229,128,-2024,-0.145974177,1.181568644,16383,18984.375,32256
8.073583612,111944,128,-51771,-3.733808843,128,126981,9.158076544,1.177024982,16320,19003.90625,32896
7.930710665,109963,128,-53409,-3.851944071,128,131023,9.449592167,1.140098708,15808,19023.4375,33536
7.877124295,109220,128,-53717,-3.874157533,128,130601,9.41915684,1.147022384,15904,19042.96875,34176
7.868397578,109099,128,-53827,-3.882090912,128,124153,8.954116577,1.177601955,16328,19062.5,34816
7.853179914,108888,128,-53746,-3.87624906,128,130830,9.435672693,0.002019406,28,19082.03125,35456
7.806012369,108234,128,-54588,-3.936975472,128,123872,8.9338504,1.177024982,16320,19101.5625,36096
7.802189923,108181,128,-54401,-3.923488727,128,-5249,-0.378566429,0.001226068,17,19121.09375,36736
7.798006868,108123,128,-54356,-3.920243254,128,-2,-1.44E-04,0.001081824,15,19140.625,37376
7.811926342,108316,128,-54202,-3.909136523,128,130118,9.384322093,0.028704408,398,19160.15625,38016
7.82065306,108437,128,-54000,-3.894567954,128,-7744,-0.558509893,0.001658797,23,19179.6875,38656
7.828514317,108546,128,-53757,-3.877042398,128,123151,8.881850705,0.036782031,510,19199.21875,39296
7.779976461,107873,128,-54257,-3.913103212,128,125967,9.084945212,0.008654595,120,19218.75,39936
7.783582542,107923,128,-54202,-3.909136523,128,-1024,-0.073852548,0.02791107,387,19238.28125,40576
7.781491015,107894,128,-54266,-3.913752307,128,124800,9.000779271,0.001586676,22,19257.8125,41216
7.785097097,107944,128,-54114,-3.90278982,128,130591,9.418435623,0.018318894,254,19277.34375,41856
7.762378784,107629,128,-54405,-3.923777214,128,-1032,-0.074429521,1.179837725,16359,19296.875,42496
7.780409191,107879,128,-54066,-3.899327981,128,-946,-0.068227061,0.025458935,353,19316.40625,43136
7.762018175,107624,128,-54076,-3.900049198,128,126560,9.127713338,0.008654595,120,19335.9375,43776
7.752281755,107489,128,-54281,-3.914834132,128,-7945,-0.573006341,1.179404995,16353,19355.46875,44416
7.783294056,107919,128,-54348,-3.919666281,128,-7744,-0.558509893,0.018391015,255,19375,45056
7.856858117,108939,128,-53706,-3.873364195,128,-122,-0.008798839,0.032382611,449,19394.53125,45696
7.892486202,109433,128,-53319,-3.845453125,128,126848,9.148484367,0.036349301,504,19414.0625,46336
7.839116197,108693,128,-53139,-3.832471232,128,-4036,-0.291082894,7.21E-05,1,19433.59375,46976
7.752137512,107487,128,-53919,-3.888726102,128,-543,-0.039162044,1.179260752,16351,19453.125,47616
7.719682779,107037,128,-53979,-3.8930534,128,123140,8.881057367,0.002019406,28,19472.65625,48256
7.672587356,106384,128,-54731,-3.947288865,128,129077,9.309243477,0.587935518,8152,19492.1875,48896
7.690617763,106634,128,-54395,-3.923055997,128,114656,8.269177469,0.018318894,254,19511.71875,49536
7.701003277,106778,128,-54468,-3.928320876,128,-228,-0.016443731,0.00223577,31,19531.25,50176
7.694512331,106688,128,-54569,-3.935605161,128,114631,8.267374428,0.013847353,192,19550.78125,50816
7.869623645,109116,128,-51461,-3.711451138,128,-263,-0.018967988,0.152248758,2111,19570.3125,51456
7.957251424,110331,128,-45271,-3.265018256,128,-12483,-0.900294292,0.26302758,3647,19589.84375,52096
7.623039797,105697,128,-57649,-4.157739777,128,106439,7.676554045,0.53312308,7392,19609.375,52736
7.669053396,106335,128,-56252,-4.056985862,128,-7098,-0.511919321,0.018967988,263,19628.90625,53376
7.736775605,107274,128,-54506,-3.931061498,128,123648,8.917695155,0.055533654,770,19648.4375,54016
7.771898839,107761,128,-54222,-3.910578955,128,-993,-0.071616777,0.008149744,113,19667.96875,54656
7.759638162,107591,128,-54642,-3.94087004,128,-4097,-0.295482313,0.016227366,225,19687.5,55296
7.762595148,107632,128,-54362,-3.920675984,128,123839,8.931470386,0.004038811,56,19707.03125,55936
7.782933448,107914,128,-53912,-3.888221251,128,130144,9.386197255,0.035628085,494,19726.5625,56576
7.784736488,107939,128,-53714,-3.873941168,128,-4305,-0.310483612,0.034834747,483,19746.09375,57216
7.792525624,108047,128,-53514,-3.859516842,128,130815,9.434590868,0,0,19765.625,57856
7.851953846,108871,128,-53019,-3.823816636,128,-3871,-0.279182825,0.004832149,67,19785.15625,58496
7.878494606,109239,128,-52552,-3.790135835,128,-16385,-1.181712887,0.050124532,695,19804.6875,59136
8.007375956,111026,128,-51284,-3.69868561,128,130958,9.444904261,0.004183054,58,19824.21875,59776
8.075530896,111971,128,-50541,-3.64509924,128,131039,9.450746113,0,0,19843.75,60416
8.056995637,111714,128,-50877,-3.669332107,128,129091,9.31025318,0,0,19863.28125,61056
7.975065467,110578,128,-51946,-3.746430128,128,126982,9.158148665,1.18048682,16368,19882.8125,61696
7.855704171,108923,128,-52974,-3.820571163,128,-750,-0.054091222,1.163970967,16139,19902.34375,62336
7.813513018,108338,128,-53101,-3.82973061,128,129024,9.305421031,1.175871036,16304,19921.875,62976
7.807094193,108249,128,-52976,-3.820715406,128,129432,9.334846656,1.181063793,16376,19941.40625,63616
7.810123302,108291,128,-53556,-3.862545951,128,130048,9.379273579,1.114711894,15456,19960.9375,64256
7.764686676,107661,128,-54134,-3.904232252,128,-8056,-0.581011841,1.163105507,16127,19980.46875,64896
7.778534028,107853,128,-54082,-3.900481927,128,130055,9.37977843,0.001153946,16,20039.0625,1280
7.790145611,108014,128,-53949,-3.890889751,128,-6157,-0.444052868,1.178106806,16335,20058.59375,1920
7.779183123,107862,128,-53857,-3.884254561,128,-6524,-0.470521506,0.008293987,115,20078.125,2560
7.76886973,107719,128,-53821,-3.881658182,128,126846,9.148340124,0,0,20097.65625,3200
7.776154015,107820,128,-53906,-3.887788521,128,-4226,-0.304786003,0.009159447,127,20117.1875,3840
7.768292757,107711,128,-53798,-3.879999385,128,126456,9.120212688,0.014135839,196,20136.71875,4480
7.735477416,107256,128,-54174,-3.907117117,128,-5098,-0.367676063,1.181135914,16377,20156.25,5120
7.777596447,107840,128,-53844,-3.88331698,128,-4352,-0.313873328,1.181568644,16383,20175.78125,5760
7.760287256,107600,128,-53942,-3.890384899,128,-4221,-0.304425395,1.173346779,16269,20195.3125,6400
7.778534028,107853,128,-53565,-3.863195045,128,-4128,-0.297718084,0.002091527,29,20214.84375,7040
7.740309565,107323,128,-54301,-3.916276564,128,-4160,-0.300025976,1.147094506,15905,20234.375,7680
7.800531125,108158,128,-53874,-3.885480629,128,-4928,-0.355415387,0.002812744,39,20253.90625,8320
7.864358767,109043,128,-53352,-3.847833138,128,-4225,-0.304713882,0.009159447,127,20273.4375,8960
7.904674757,109602,128,-52464,-3.783789132,128,-3327,-0.239948659,5.05E-04,7,20292.96875,9600
7.846184116,108791,128,-52597,-3.793381309,128,-53,-0.003822446,1.116947665,15487,20312.5,10240
7.725164023,107113,128,-54007,-3.895072805,128,125959,9.084368239,1.145579951,15884,20332.03125,10880
7.7144179,106964,128,-53952,-3.891106116,128,125952,9.083863388,1.177169225,16322,20351.5625,11520
7.699200237,106753,128,-54206,-3.909425009,128,-4845,-0.349429291,1.16368248,16135,20371.09375,12160
7.709729995,106899,128,-54054,-3.898462522,128,-4128,-0.297718084,0.001947284,27,20390.625,12800
7.719971266,107041,128,-53939,-3.890168535,128,126465,9.120861783,0.002307892,32,20410.15625,13440
7.748964161,107443,128,-54067,-3.899400103,128,-4104,-0.295987164,1.181568644,16383,20429.6875,14080
7.93402826,110009,128,-44993,-3.244968444,128,-449,-0.032382611,0.02877653,399,20449.21875,14720
7.802694774,108188,128,-52802,-3.808166243,128,-15936,-1.149330276,1.111899151,15417,20468.75,15360
7.745358079,107393,128,-57315,-4.133651153,128,-8080,-0.582742761,0.931162349,12911,20488.28125,16000
7.731005875,107194,128,-54968,-3.964381691,128,124935,9.010515691,0.05755306,798,20507.8125,16640
7.781995867,107901,128,-53940,-3.890240656,128,-4577,-0.330100695,0.070318588,975,20527.34375,17280
7.779111001,107861,128,-54189,-3.908198942,128,-4336,-0.312719382,1.181568644,16383,20546.875,17920
7.811709978,108313,128,-53909,-3.888004886,128,126081,9.093167078,0.013847353,192,20566.40625,18560
7.78214011,107903,128,-54246,-3.912309875,128,-4097,-0.295482313,1.181568644,16383,20585.9375,19200
7.829379777,108558,128,-53136,-3.832254867,128,-4099,-0.295626556,0.036998396,513,20605.46875,19840
7.782789204,107912,128,-53876,-3.885624872,128,-4116,-0.296852624,1.180414698,16367,20625,20480
7.873950943,109176,128,-52532,-3.788693403,128,-4112,-0.296564138,0.00223577,31,20644.53125,21120
7.887654053,109366,128,-52237,-3.767417522,128,127037,9.162115355,0.017309191,240,20664.0625,21760
7.954871411,110298,128,-51491,-3.713614787,128,-2930,-0.211316372,0.009159447,127,20683.59375,22400
8.009395362,111054,128,-51053,-3.682025514,128,-2497,-0.180087707,2.16E-04,3,20703.125,23040
8.073367247,111941,128,-50692,-3.655989606,128,-2044,-0.147416609,0.004543663,63,20722.65625,23680
8.051298028,111635,128,-50820,-3.665221174,128,-125,-0.009015204,1.181568644,16383,20742.1875,24320
7.945062869,110162,128,-51952,-3.746862858,128,127979,9.230053929,1.164043088,16140,20761.71875,24960
7.844381075,108766,128,-53051,-3.826124528,128,-3599,-0.259565742,1.12603499,15613,20781.25,25600
7.814162113,108347,128,-53609,-3.866368397,128,126851,9.148700732,1.163754602,16136,20800.78125,26240
7.805435396,108226,128,-53607,-3.866224154,128,-4608,-0.332336465,1.175943157,16305,20820.3125,26880
7.80341599,108198,128,-53408,-3.85187195,128,126972,9.157427449,0.013991596,194,20839.84375,27520
7.73345801,107228,128,-54467,-3.928248755,128,-6129,-0.442033463,1.162095804,16113,20859.375,28160
7.766561838,107687,128,-53657,-3.869830235,128,126927,9.154181976,0.034618382,480,20878.90625,28800
7.781779502,107898,128,-53589,-3.864925964,128,-4223,-0.304569638,6.49E-04,9,20898.4375,29440
7.770817014,107746,128,-53649,-3.869253262,128,126974,9.157571692,2.88E-04,4,20917.96875,30080
7.753724188,107509,128,-53557,-3.862618072,128,-4593,-0.331254641,0.018246772,253,20937.5,30720
7.778245542,107849,128,-53362,-3.848554355,128,-4103,-0.295915043,0.007428528,103,20957.03125,31360
7.727183429,107141,128,-53870,-3.885192142,128,126589,9.129804865,1.176448009,16312,20976.5625,32000
7.73345801,107228,128,-53759,-3.877186641,128,126087,9.093599807,0.034329895,476,20996.09375,32640
7.742978065,107360,128,-53594,-3.865286573,128,-4601,-0.331831614,0.0230068,319,21015.625,33280
7.729707686,107176,128,-53804,-3.880432115,128,-4621,-0.333274047,0.004543663,63,21035.15625,33920
7.716942157,106999,128,-53844,-3.88331698,128,126912,9.153100151,0,0,21054.6875,34560
7.721197333,107058,128,-53946,-3.890673386,128,-4127,-0.297645962,2.16E-04,3,21074.21875,35200
7.743915647,107373,128,-53564,-3.863122924,128,126475,9.121582999,0.003461838,48,21093.75,35840
7.727616158,107147,128,-54019,-3.895938265,128,126207,9.102254403,0.036926274,512,21113.28125,36480
7.792958354,108053,128,-53598,-3.865575059,128,126720,9.139252798,0.002163649,30,21132.8125,37120
7.859382374,108974,128,-52941,-3.818191149,128,126975,9.157643814,0.036637787,508,21152.34375,37760
7.790289854,108016,128,-53069,-3.827422718,128,-1272,-0.091738712,1.181568644,16383,21171.875,38400
7.68297287,106528,128,-54172,-3.906972874,128,126720,9.139252798,1.18048682,16368,21191.40625,39040
7.652032691,106099,128,-53875,-3.88555275,128,-5105,-0.368180915,0.008005501,111,21210.9375,39680
7.644387799,105993,128,-54006,-3.895000684,128,-4249,-0.306444801,0.017237069,239,21230.46875,40320
7.658884246,106194,128,-53836,-3.882740007,128,-4224,-0.30464176,0.014063718,195,21250,40960
7.640565353,105940,128,-53952,-3.891106116,128,-4721,-0.340486209,0.590748261,8191,21269.53125,41600
7.649941164,106070,128,-53975,-3.892764913,128,-5063,-0.365151806,0.00223577,31,21289.0625,42240
7.81315241,108333,128,-51136,-3.688011609,128,-4221,-0.304425395,0.006851555,95,21308.59375,42880
7.963742371,110421,128,-43761,-3.156114597,128,-12292,-0.886519061,0.004543663,63,21328.125,43520
7.56209702,104852,128,-56656,-4.086123,128,124479,8.977628228,0.554903812,7694,21347.65625,44160
7.614385201,105577,128,-55347,-3.991715788,128,124891,9.007342339,0.59067614,8190,21367.1875,44800
7.687228046,106587,128,-53749,-3.876465425,128,-4605,-0.332120101,0.001947284,27,21386.71875,45440
7.682684384,106524,128,-53610,-3.866440519,128,126959,9.156489868,0,0,21406.25,46080
7.732015578,107208,128,-52891,-3.814585068,128,129287,9.32438902,0.017886164,248,21425.78125,46720
7.670495828,106355,128,-53571,-3.863627775,128,127552,9.199257994,1.181352279,16380,21445.3125,47360
7.697974169,106736,128,-53006,-3.822879055,128,-481,-0.034690503,0.008005501,111,21464.84375,48000
7.713552441,106952,128,-52549,-3.789919471,128,-498,-0.035916571,7.21E-05,1,21484.375,48640
7.689680182,106621,128,-52605,-3.793958282,128,129992,9.375234768,0,0,21503.90625,49280
7.768797608,107718,128,-51531,-3.716499652,128,-253,-0.018246772,0.004399419,61,21523.4375,49920
7.805291153,108224,128,-51087,-3.684477649,128,-3648,-0.263099702,0.005120636,71,21542.96875,50560
7.895587432,109476,128,-50146,-3.616611197,128,131038,9.450673992,0.071977386,998,21562.5,51200
7.980402467,110652,128,-49312,-3.556461758,128,130945,9.44396668,0.064620979,896,21582.03125,51840
7.985162495,110718,128,-49164,-3.545787757,128,131056,9.451972181,0.001009703,14,21601.5625,52480
7.88397585,109315,128,-50239,-3.623318508,128,130944,9.443894558,1.176736495,16316,21621.09375,53120
7.788270448,107988,128,-51081,-3.684044919,128,-1541,-0.11113943,1.163249751,16129,21640.625,53760
7.730573145,107188,128,-51468,-3.71195599,128,-30,-0.002163649,0.009159447,127,21660.15625,54400
7.674174032,106406,128,-52127,-3.759484143,128,131063,9.452477032,1.181208036,16378,21679.6875,55040
7.676121315,106433,128,-51929,-3.745204061,128,-3673,-0.264902742,0.032382611,449,21699.21875,55680
7.672443112,106382,128,-51982,-3.749026507,128,126976,9.157715935,0.017886164,248,21718.75,56320
7.66393276,106264,128,-52200,-3.764749022,128,130975,9.446130329,0.001730919,24,21738.28125,56960
7.654917557,106139,128,-52172,-3.762729616,128,-638,-0.046013599,0.009159447,127,21757.8125,57600
7.658307273,106186,128,-52091,-3.756887765,128,-3200,-0.230789212,7.21E-05,1,21777.34375,58240
7.648138124,106045,128,-52106,-3.757969589,128,127024,9.161177774,0.013847353,192,21796.875,58880
7.649075705,106058,128,-52081,-3.756166548,128,131040,9.450818235,0.017309191,240,21816.40625,59520
7.629602865,105788,128,-52097,-3.757320494,128,-194,-0.013991596,0.007861258,109,21835.9375,60160
7.628881649,105778,128,-52344,-3.775134537,128,127904,9.224644807,0,0,21855.46875,60800
7.641719299,105956,128,-51874,-3.741237371,128,130895,9.440360599,0.589954923,8180,21875,61440
7.624987081,105724,128,-52269,-3.769725414,128,130878,9.439134531,0.588512491,8160,21894.53125,62080
7.669125518,106336,128,-51532,-3.716571774,128,130566,9.416632583,0.589666437,8176,21914.0625,62720
7.596931767,105335,128,-52659,-3.79785285,128,-1793,-0.12931408,0.582670639,8079,21933.59375,63360
7.616332485,105604,128,-52294,-3.771528455,128,130814,9.434518747,8.65E-04,12,21953.125,64000
7.607317282,105479,128,-52531,-3.788621281,128,129664,9.351578874,0,0,21972.65625,64640
7.687877141,106596,128,-52059,-3.754579872,128,130816,9.43466299,0.008221866,114,21992.1875,65280
7.699560845,106758,128,-52015,-3.751406521,128,130048,9.379273579,0.027838949,386,22011.71875,384
7.705619062,106842,128,-51387,-3.706114138,128,-256,-0.018463137,0.013630988,189,22031.25,1024
7.639483528,105925,128,-51864,-3.740516155,128,-3972,-0.286467109,0.005120636,71,22050.78125,1664
7.532959882,104448,128,-52688,-3.799944377,128,-4067,-0.293318664,0.586565207,8133,22070.3125,2304
7.533536855,104456,128,-52565,-3.791073417,128,-1880,-0.135588662,0.001081824,15,22089.84375,2944
7.534402315,104468,128,-52574,-3.791722511,128,126991,9.15879776,0.002452135,34,22109.375,3584
7.529498044,104400,128,-52741,-3.803766823,128,130575,9.417281677,0.586060355,8126,22128.90625,4224
7.533392612,104454,128,-53089,-3.82886515,128,126732,9.140118258,0.009087325,126,22148.4375,4864
7.581930468,105127,128,-53065,-3.827134231,128,123783,8.927431575,0.001009703,14,22167.96875,5504
7.710306968,106907,128,-47123,-3.398587513,128,-7967,-0.574593016,0.001081824,15,22187.5,6144
7.563106723,104866,128,-52667,-3.798429823,128,-13280,-0.95777523,0.887312399,12303,22207.03125,6784
7.515722813,104209,128,-55355,-3.992292761,128,123365,8.897284734,0.573511192,7952,22226.5625,7424
7.555533952,104761,128,-53026,-3.824321487,128,126470,9.121222391,0.053370005,740,22246.09375,8064
7.522285881,104300,128,-53081,-3.828288177,128,129148,9.314364113,0.006923676,96,22265.625,8704
7.56252975,104858,128,-52577,-3.791938876,128,-353,-0.025458935,0.001081824,15,22285.15625,9344
7.576665589,105054,128,-52416,-3.780327294,128,-1252,-0.090296279,0.009159447,127,22304.6875,9984
7.551711506,104708,128,-52253,-3.768571468,128,127968,9.229260591,2.88E-04,4,22324.21875,10624
7.55409152,104741,128,-52566,-3.791145538,128,131047,9.451323086,0.556202001,7712,22343.75,11264
7.562241264,104854,128,-51716,-3.729842154,128,130174,9.388360904,0.010818244,150,22363.28125,11904
7.616909458,105612,128,-51125,-3.687218271,128,-2064,-0.148859042,7.93E-04,11,22382.8125,12544
7.618712499,105637,128,-51092,-3.684838257,128,130172,9.388216661,2.88E-04,4,22402.34375,13184
7.711605157,106925,128,-50024,-3.607812358,128,130175,9.388433026,0.008943082,124,22421.875,13824
7.808680869,108271,128,-48844,-3.522708836,128,-29,-0.002091527,0.001081824,15,22441.40625,14464
7.830173115,108569,128,-48546,-3.501216591,128,-16384,-1.181640766,0.004110933,57,22460.9375,15104
7.784520124,107936,128,-49561,-3.574420044,128,114911,8.287568484,1.18048682,16368,22480.46875,15744
7.703743899,106816,128,-50345,-3.630963401,128,129347,9.328716317,1.163177629,16128,22500,16384
7.617702796,105623,128,-51142,-3.688444339,128,-1969,-0.142007487,0.590748261,8191,22519.53125,17024
7.571112224,104977,128,-51651,-3.725154248,128,-99,-0.007140041,0.553966231,7681,22539.0625,17664
7.540965383,104559,128,-51767,-3.733520357,128,130655,9.423051408,0.580434868,8048,22558.59375,18304
7.522502246,104303,128,-51924,-3.744843453,128,-28,-0.002019406,0.57343907,7951,22578.125,18944
7.560798831,104834,128,-51706,-3.729120937,128,-289,-0.020843151,0.582670639,8079,22597.65625,19584
7.518030705,104241,128,-51840,-3.738785236,128,130936,9.443317585,0.577550003,8008,22617.1875,20224
7.532527153,104442,128,-51838,-3.738640992,128,130432,9.406968284,0.59024341,8184,22636.71875,20864
7.54392237,104600,128,-51482,-3.712965693,128,-2107,-0.151960272,0.014352204,199,22656.25,21504
7.533104126,104450,128,-51551,-3.717942085,128,-95,-0.006851555,0.586420964,8131,22675.78125,22144
7.531589571,104429,128,-51444,-3.710225071,128,130687,9.4253593,0.589522194,8174,22695.3125,22784
7.511756124,104154,128,-51780,-3.734457938,128,-68,-0.004904271,0.554687447,7691,22714.84375,23424
7.509953083,104129,128,-51953,-3.74693498,128,131054,9.451827938,0.572357246,7936,22734.375,24064
7.48680204,103808,128,-52195,-3.764388414,128,128513,9.268566879,0.553894109,7680,22753.90625,24704
7.533104126,104450,128,-51642,-3.724505153,128,127490,9.194786453,0.553894109,7680,22773.4375,25344
7.506851853,104086,128,-52026,-3.752199859,128,-2842,-0.204969669,0.582093666,8071,22792.96875,25984
7.534979288,104476,128,-51743,-3.731789438,128,131056,9.451972181,0.553894109,7680,22812.5,26624
7.541181748,104562,128,-51702,-3.728832451,128,-388,-0.027983192,0.011467339,159,22832.03125,27264
7.592243861,105270,128,-51613,-3.722413626,128,130672,9.424277475,0.576828787,7998,22851.5625,27904
7.64532538,106006,128,-51049,-3.681737027,128,-64,-0.004615784,0.023583773,327,22871.09375,28544
7.649364191,106062,128,-50671,-3.654475052,128,131065,9.452621275,0.001009703,14,22890.625,29184
7.52221376,104299,128,-51895,-3.742751925,128,-252,-0.01817465,0.576900909,7999,22910.15625,29824
7.484277783,103773,128,-52212,-3.765614482,128,-794,-0.057264573,0.572285124,7935,22929.6875,30464
7.481392918,103733,128,-52078,-3.755950183,128,-48,-0.003461838,0.576179692,7989,22949.21875,31104
7.456727321,103391,128,-52344,-3.775134537,128,129276,9.323595682,5.77E-04,8,22968.75,31744
7.471872863,103601,128,-52344,-3.775134537,128,129422,9.334125439,0.012693407,176,22988.28125,32384
7.461415227,103456,128,-52470,-3.784221862,128,-4084,-0.294544732,0.567813583,7873,23007.8125,33024
7.553947276,104739,128,-51731,-3.730923978,128,-19,-0.001370311,2.16E-04,3,23027.34375,33664
7.699632966,106759,128,-43188,-3.114788904,128,-9375,-0.67614027,0.02791107,387,23046.875,34304
7.461198862,103453,128,-54142,-3.904809225,128,114944,8.289948498,0.293102299,4064,23066.40625,34944
7.440355711,103164,128,-55385,-3.99445641,128,-7937,-0.572429368,0.590748261,8191,23085.9375,35584
7.484854756,103781,128,-52644,-3.796771025,128,-3709,-0.267499121,5.05E-04,7,23105.46875,36224
7.511972488,104157,128,-52376,-3.777442429,128,131040,9.450818235,0.002019406,28,23125,36864
7.50937611,104121,128,-52337,-3.774629685,128,-4034,-0.29093865,0.001370311,19,23144.53125,37504
7.528344098,104384,128,-51884,-3.741958587,128,128112,9.239646106,0.004615784,64,23164.0625,38144
7.54348964,104594,128,-51644,-3.724649396,128,-993,-0.071616777,0.587286423,8143,23183.59375,38784
7.544282978,104605,128,-51247,-3.69601711,128,-64,-0.004615784,7.21E-05,1,23203.125,39424
7.523511949,104317,128,-51614,-3.722485748,128,126976,9.157715935,0.554182596,7684,23222.65625,40064
7.556976385,104781,128,-50918,-3.672289094,128,131071,9.453054005,0.008654595,120,23242.1875,40704
7.58467109,105165,128,-50682,-3.65526839,128,-2048,-0.147705096,0.005697609,79,23261.71875,41344
7.710883941,106915,128,-49290,-3.554875082,128,-17,-0.001226068,0.019544961,271,23281.25,41984
7.759205432,107585,128,-49023,-3.535618607,128,-16192,-1.167793413,0.004687906,65,23300.78125,42624
7.780120704,107875,128,-49102,-3.541316216,128,-16384,-1.181640766,1.17695286,16319,23320.3125,43264
7.740165322,107321,128,-49595,-3.576872179,128,-159,-0.011467339,1.167288562,16185,23339.84375,43904
7.603062106,105420,128,-51154,-3.689309798,128,-544,-0.039234166,0.546321338,7575,23359.375,44544
7.544715708,104611,128,-51620,-3.722918477,128,-4068,-0.293390786,0.581660936,8065,23378.90625,45184
7.494807541,103919,128,-52128,-3.759556265,128,-976,-0.07039071,0.589594315,8175,23398.4375,45824
7.491562067,103874,128,-52134,-3.759988995,128,130560,9.416199853,0.590099167,8182,23417.96875,46464
7.500937879,104004,128,-52004,-3.750613183,128,130112,9.383889363,0.57697303,8000,23437.5,47104
7.446774536,103253,128,-52787,-3.807084418,128,-4029,-0.290578042,0.563053556,7807,23457.03125,47744
7.467978295,103547,128,-52359,-3.776216361,128,-1,-7.21E-05,0.009159447,127,23476.5625,48384
7.462064321,103465,128,-52346,-3.77527878,128,-1,-7.21E-05,0.589594315,8175,23496.09375,49024
7.465886768,103518,128,-52178,-3.763162346,128,-256,-0.018463137,0.009159447,127,23515.625,49664
7.455068523,103368,128,-52287,-3.771023604,128,130108,9.383600877,0.574520895,7966,23535.15625,50304
7.426436237,102971,128,-52670,-3.798646188,128,131058,9.452116424,0.583031247,8084,23554.6875,50944
7.435595684,103098,128,-52462,-3.783644889,128,-4066,-0.293246543,0.581805179,8067,23574.21875,51584
7.43235021,103053,128,-52746,-3.804127431,128,-4084,-0.294544732,0.571852395,7929,23593.75,52224
7.439273887,103149,128,-52439,-3.781986091,128,-4095,-0.29533807,0.590604018,8189,23613.28125,52864
7.442735725,103197,128,-52591,-3.792948579,128,-4065,-0.293174421,0.583824585,8095,23632.8125,53504
