Device,Device,Device,Device,Device,Device,Device,Device,Device,Device,Device,Device
ECG LL-RA,ECG LL-RA,EXG2 Status,ECG LA-RA,ECG LA-RA,EXG1 Status,ECG Vx-RL,ECG Vx-RL,ExG2 CH1,ExG2 CH1,Timestamp,Timestamp
CAL,RAW,RAW,CAL,RAW,RAW,RAW,CAL,CAL,RAW,RAW,CAL
mV,No Units,No Units,mV,No Units,No Units,No Units,mV,mV,No Units,No Units,mSecs
-23.54208631,-326422,0,-7.114510192,-98646,0,-98626,-7.11306776,7.21E-04,10,640,19.53125
-34.08302296,-472577,128,-23.2859824,-322871,128,-265090,-19.11872257,0.046085721,639,1920,58.59375
-34.34843056,-476257,128,-23.12118448,-320586,128,-65049,-4.69143983,0.073780426,1023,2560,78.125
-34.25207606,-474921,128,-22.99093282,-318780,128,-50689,-3.655773241,1.171327373,16241,3200,97.65625
-34.18795993,-474032,128,-22.92140757,-317816,128,-65409,-4.717403617,0.032598976,452,3840,117.1875
-34.09037937,-472679,128,-22.85577689,-316906,128,-61825,-4.458919699,0.143161433,1985,4480,136.71875
-34.05251551,-472154,128,-22.8174803,-316375,128,-57283,-4.131343261,0.016083123,223,5120,156.25
-34.02633536,-471791,128,-22.79505048,-316064,128,-53952,-3.891106116,0.092243563,1279,5760,175.78125
-33.99892914,-471411,128,-22.75704238,-315537,128,-53473,-3.856559856,0.147416609,2044,6400,195.3125
-33.95983922,-470869,128,-22.71845731,-315002,128,-49153,-3.544994419,0.146623271,2033,7040,214.84375
-33.92089354,-470329,128,-22.6650873,-314262,128,-52225,-3.766552063,0.297501719,4125,7680,234.375
-33.86665808,-469577,128,-22.57991166,-313081,128,-52319,-3.773331496,0.434100084,6019,8320,253.90625
-33.80261407,-468689,128,-22.50937671,-312103,128,-49604,-3.577521274,0.572357246,7936,8960,273.4375
-33.55905933,-465312,128,-22.47374862,-311609,128,-49401,-3.562880583,0.516967835,7168,9600,292.96875
-33.03884602,-458099,128,-22.49819785,-311948,128,-49804,-3.5919456,0.010097028,140,10240,312.5
-32.32426492,-448191,128,-22.64597507,-313997,128,-50057,-3.610192372,0.535070364,7419,10880,332.03125
-31.84162698,-441499,128,-22.70720633,-314846,128,-53248,-3.840332489,0.918541064,12736,11520,351.5625
-31.16094305,-432061,128,-22.75415751,-315497,128,-61436,-4.430864385,0.581588814,8064,12160,371.09375
-30.69510945,-425602,128,-22.74413261,-315358,128,-63517,-4.580949495,0.960083122,13312,12800,390.625
-30.02683044,-416336,128,-22.75213811,-315469,128,-61374,-4.426392844,0.508241118,7047,13440,410.15625
-29.60686619,-410513,128,-22.74002167,-315301,128,-65025,-4.689708911,0.920848956,12768,14080,429.6875
-28.98777413,-401929,128,-22.74781081,-315409,128,-61284,-4.419901898,0.313873328,4352,14720,449.21875
-28.64303275,-397149,128,-22.74081501,-315312,128,-65533,-4.726346699,0.949913973,13171,15360,468.75
-28.26388934,-391892,128,-22.72804948,-315135,128,-65529,-4.726058212,1.107499731,15356,16000,488.28125
-27.76798102,-385016,128,-22.74946961,-315432,128,-65536,-4.726563063,0.368613645,5111,16640,507.8125
-27.4401161,-380470,128,-22.74600777,-315384,128,-61517,-4.436706237,1.035161738,14353,17280,527.34375
-26.98308134,-374133,128,-22.75624904,-315526,128,-63520,-4.58116586,0.035772328,496,17920,546.875
-26.66242858,-369687,128,-22.75242659,-315473,128,-61693,-4.449399644,0.366882726,5087,18560,566.40625
-26.25306621,-364011,128,-22.76836547,-315694,128,-63567,-4.584555576,1.098628771,15233,19200,585.9375
-25.97056579,-360094,128,-22.76007149,-315579,128,-63551,-4.58340163,1.108725799,15373,19840,605.46875
-25.75261423,-357072,128,-22.77182731,-315742,128,-63518,-4.581021617,0.073852548,1024,20480,625
-25.37714903,-351866,128,-22.73280951,-315201,128,-65506,-4.724399415,0.55439896,7687,21120,644.53125
-25.19244554,-349305,128,-22.68203589,-314497,128,-65073,-4.693170749,1.02463198,14207,21760,664.0625
-24.87215339,-344864,128,-22.72516462,-315095,128,-64639,-4.661869962,1.034152035,14339,22400,683.59375
-24.68283411,-342239,128,-22.76966366,-315712,128,-63717,-4.595373821,0.032526855,451,23040,703.125
-24.39795368,-338289,128,-22.76814911,-315691,128,-63503,-4.579939792,0.347049278,4812,23680,722.65625
-24.23935822,-336090,128,-22.78791044,-315965,128,-63494,-4.579290697,0.445134693,6172,24320,742.1875
-23.92901885,-331787,128,-22.41835921,-310841,128,-65410,-4.717475738,1.163610359,16134,24960,761.71875
-23.72361645,-328939,128,-22.1682414,-307373,128,-33760,-2.434826187,1.181568644,16383,25600,781.25
-23.70984122,-328748,128,-22.77081761,-315728,128,-61928,-4.466348227,1.179044387,16348,26240,800.78125
-23.49261087,-325736,128,-22.72307309,-315066,128,-65028,-4.689925276,0.004615784,64,26880,820.3125
-23.35586826,-323840,128,-22.74853203,-315419,128,-65409,-4.717403617,0.016227366,225,27520,839.84375
-23.16900112,-321249,128,-22.73648771,-315252,128,-65529,-4.726058212,0.334067384,4632,28160,859.375
-23.08469094,-320080,128,-22.7367762,-315256,128,-65272,-4.707522953,0.516895713,7167,28800,878.90625
-22.94592892,-318156,128,-22.7164379,-314974,128,-65039,-4.690718614,0.942124837,13063,29440,898.4375
-22.83911679,-316675,128,-22.70879301,-314868,128,-65415,-4.717836346,1.035955076,14364,30080,917.96875
-22.74131986,-315319,128,-22.69170018,-314631,128,-64897,-4.680477343,0.886879669,12297,30720,937.5
-22.60796697,-313470,128,-22.64013322,-313916,128,-61016,-4.400573301,0.892577278,12376,31360,957.03125
-22.51543492,-312187,128,-22.59455235,-313284,128,-60544,-4.366531893,1.105768812,15332,32000,976.5625
-22.40393488,-310641,128,-22.49826997,-311949,128,-57848,-4.172091981,0.002307892,32,32640,996.09375
-22.34991578,-309892,128,-22.45398729,-311335,128,-57406,-4.140214222,0.01817465,252,33280,1015.625
-22.27584687,-308865,128,-22.49596208,-311917,128,-57345,-4.135814802,0.034690503,481,33920,1035.15625
-22.2532728,-308552,128,-22.59361477,-313271,128,-57405,-4.1401421,0.29533807,4095,34560,1054.6875
-22.1895894,-307669,128,-22.7191064,-315011,128,-60513,-4.364296122,0.291010772,4035,35200,1074.21875
-22.13636364,-306931,128,-22.76389393,-315632,128,-61372,-4.426248601,0.293030178,4063,35840,1093.75
-22.09128762,-306306,128,-22.76641819,-315667,128,-61444,-4.431441358,0.304497517,4222,36480,1113.28125
-22.01577628,-305259,128,-22.77218792,-315747,128,-64765,-4.670957288,0.332264344,4607,37120,1132.8125
-22.00820351,-305154,128,-22.76713941,-315677,128,-65378,-4.715167846,0.331398884,4595,37760,1152.34375
-21.89807378,-303627,128,-22.77723644,-315817,128,-63552,-4.583473752,0.479897318,6654,38400,1171.875
-21.9068005,-303748,128,-22.76382181,-315631,128,-65441,-4.719711509,0.564207502,7823,39040,1191.40625
-21.83193825,-302710,128,-22.77413521,-315774,128,-64528,-4.653864462,0.921930781,12783,39680,1210.9375
-21.80157504,-302289,128,-22.77247641,-315751,128,-64865,-4.678169451,0.923733821,12808,40320,1230.46875
-21.77618823,-301937,128,-22.77608249,-315801,128,-64985,-4.686824046,0.886735426,12295,40960,1250
-21.75238809,-301607,128,-22.78654013,-315946,128,-65293,-4.709037508,0.908732523,12600,41600,1269.53125
-21.700749,-300891,128,-22.7967814,-316088,128,-65056,-4.691944682,1.03393567,14336,42240,1289.0625
-21.62646373,-299861,128,-22.80139718,-316152,128,-64497,-4.651628691,1.103100312,15295,42880,1308.59375
-21.61405881,-299689,128,-22.80024323,-316136,128,-65533,-4.726346699,1.165341278,16158,43520,1328.125
-21.56898279,-299064,128,-22.7977911,-316102,128,-64381,-4.643262582,1.172914049,16263,44160,1347.65625
-21.56177063,-298964,128,-22.77665946,-315809,128,-64128,-4.62501581,1.165413399,16159,44800,1367.1875
-21.55326027,-298846,128,-22.73930046,-315291,128,-59355,-4.280779276,0.886374818,12290,45440,1386.71875
-21.52109403,-298400,128,-22.74442109,-315362,128,-59151,-4.266066464,0.887312399,12303,46080,1406.25
-21.51647824,-298336,128,-22.81207118,-316300,128,-64388,-4.643767434,0.895462143,12416,46720,1425.78125
-21.51496369,-298315,128,-22.82663975,-316502,128,-64640,-4.661942084,0.95777523,13280,47360,1445.3125
-21.49375993,-298021,128,-22.83226524,-316580,128,-64628,-4.661076625,0.950779432,13183,48000,1464.84375
-21.45373243,-297466,128,-22.65636059,-314141,128,-65040,-4.690790736,1.116875543,15486,48640,1484.375
-21.3242741,-295671,128,-22.08313788,-306193,128,-34673,-2.500673235,2.328591028,32287,49280,1503.90625
-21.39567451,-296661,128,-22.80529175,-316206,128,-55309,-3.988975166,1.034152035,14339,49920,1523.4375
-21.39026539,-296586,128,-22.79057894,-316002,128,-62432,-4.502697528,1.069058903,14823,50560,1542.96875
-21.4286341,-297118,128,-22.83356343,-316598,128,-63480,-4.578280995,0.959073419,13298,51200,1562.5
-21.43469232,-297202,128,-22.81329725,-316317,128,-64575,-4.657254178,0.950851554,13184,51840,1582.03125
-21.40108364,-296736,128,-22.8174803,-316375,128,-62407,-4.500894487,1.050090915,14560,52480,1601.5625
-21.40541093,-296796,128,-22.79901717,-316119,128,-64259,-4.634463744,1.039561157,14414,53120,1621.09375
-21.38507263,-296514,128,-22.78271768,-315893,128,-63501,-4.579795549,1.034007792,14337,53760,1640.625
-21.33004383,-295751,128,-22.74759445,-315406,128,-61448,-4.431729845,1.105480326,15328,54400,1660.15625
-21.33639054,-295839,128,-22.72725615,-315124,128,-59163,-4.266931923,1.180991671,16375,55040,1679.6875
-21.35319487,-296072,128,-22.67821344,-314444,128,-58448,-4.215364959,1.107716096,15359,55680,1699.21875
-21.33451537,-295813,128,-22.586042,-313166,128,-57461,-4.144180911,1.181568644,16383,56320,1718.75
-21.27782777,-295027,128,-22.5543806,-312727,128,-51168,-3.690319501,1.178106806,16335,56960,1738.28125
-21.26787499,-294889,128,-22.55791456,-312776,128,-50179,-3.61899121,0.001081824,15,57600,1757.8125
-21.29470423,-295261,128,-22.63890715,-313899,128,-51196,-3.692338907,1.163826724,16137,58240,1777.34375
-21.28554479,-295134,128,-22.77348611,-315765,128,-58368,-4.209595228,1.181208036,16378,58880,1796.875
-21.35644035,-296117,128,-22.83017371,-316551,128,-64265,-4.634896473,1.179332874,16352,59520,1816.40625
-21.30912856,-295461,128,-22.84265075,-316724,128,-64751,-4.669947585,1.180991671,16375,60160,1835.9375
-21.32081226,-295623,128,-22.8404871,-316694,128,-64738,-4.669010004,1.1167313,15484,60800,1855.46875
-21.30732552,-295436,128,-22.8458241,-316768,128,-63360,-4.569626399,1.143560546,15856,61440,1875
-21.27386108,-294972,128,-22.84661744,-316779,128,-64513,-4.652782637,0.004543663,63,62080,1894.53125
-21.26131192,-294798,128,-22.84524713,-316760,128,-62496,-4.507313312,0.004471541,62,62720,1914.0625
-21.2889345,-295181,128,-22.8508005,-316837,128,-65477,-4.722307887,0.018679502,259,63360,1933.59375
-21.2622495,-294811,128,-22.84755502,-316792,128,-63229,-4.560178466,0.00930369,129,64000,1953.125
-21.23830512,-294479,128,-22.86356602,-317014,128,-63464,-4.577127049,7.21E-05,1,64640,1972.65625
-21.24854639,-294621,128,-22.87510549,-317174,128,-65409,-4.717403617,0.018679502,259,65280,1992.1875
-21.26030222,-294784,128,-22.87907217,-317229,128,-65509,-4.724615779,0,0,384,2011.71875
-21.24450758,-294565,128,-22.8865007,-317332,128,-65534,-4.72641882,0.00223577,31,1024,2031.25
-21.21392801,-294141,128,-22.88080309,-317253,128,-63461,-4.576910684,0.018679502,259,1664,2050.78125
-21.17930963,-293661,128,-22.87799035,-317214,128,-63296,-4.565010615,2.16E-04,3,2304,2070.3125
-21.19834974,-293925,128,-22.85693083,-316922,128,-63488,-4.578857968,0.073780426,1023,2944,2089.84375
-21.21746197,-294190,128,-22.82707248,-316508,128,-62392,-4.499812663,0.015289785,212,3584,2109.375
-21.17231383,-293564,128,-22.88700555,-317339,128,-61949,-4.467862781,0.071472534,991,4224,2128.90625
-21.21609166,-294171,128,-22.92227303,-317828,128,-63673,-4.592200469,0.001009703,14,4864,2148.4375
-21.20152309,-293969,128,-22.92797064,-317907,128,-63988,-4.614918782,0.033392314,463,5504,2167.96875
-21.17570355,-293611,128,-22.94787621,-318183,128,-65255,-4.706296886,0.002019406,28,6144,2187.5
-21.16784229,-293502,128,-22.49588996,-311916,128,-63376,-4.570780345,0.027045611,375,6784,2207.03125
-21.09334065,-292469,128,-22.48507172,-311766,128,-49266,-3.553144163,0.028488043,395,7424,2226.5625
-21.20181158,-293973,128,-22.88989042,-317379,128,-63519,-4.581093738,0.036782031,510,8064,2246.09375
-21.22633293,-294313,128,-22.91498875,-317727,128,-63568,-4.584627698,0.060077317,833,8704,2265.625
-21.21169224,-294110,128,-22.9191718,-317785,128,-64025,-4.617587282,0.013775231,191,9344,2285.15625
-21.19560912,-293887,128,-22.91527723,-317731,128,-63996,-4.615495755,0.018391015,255,9984,2304.6875
-21.18731513,-293772,128,-22.91477238,-317724,128,-65312,-4.710407819,0.003461838,48,10624,2324.21875
-21.17844417,-293649,128,-22.89154922,-317402,128,-63744,-4.597321105,4.33E-04,6,11264,2343.75
-21.17274656,-293570,128,-22.88253401,-317277,128,-65349,-4.713076319,0.036782031,510,11904,2363.28125
-21.17180898,-293557,128,-22.83832345,-316664,128,-65306,-4.709975089,2.16E-04,3,12544,2382.8125
-21.14685489,-293211,128,-22.80420992,-316191,128,-62239,-4.488778053,0.069164642,959,13184,2402.34375
-21.12348749,-292887,128,-22.7144185,-314946,128,-61441,-4.431224994,0.044859653,622,13824,2421.875
-21.12702145,-292936,128,-22.67316492,-314374,128,-57601,-4.154277939,0.073780426,1023,14464,2441.40625
-21.12298264,-292880,128,-22.63263257,-313812,128,-53186,-3.835860948,0.036854152,511,15104,2460.9375
-21.14231123,-293148,128,-22.68751713,-314573,128,-57371,-4.137689964,0.138545649,1921,15744,2480.46875
-21.22186139,-294251,128,-22.80543599,-316208,128,-61456,-4.432306818,0.036998396,513,16384,2500
-21.19697943,-293906,128,-22.89840077,-317497,128,-63074,-4.548999613,0.036782031,510,17024,2519.53125
-21.24313727,-294546,128,-22.93604826,-318019,128,-65121,-4.696632588,0.003317595,46,17664,2539.0625
-21.23174205,-294388,128,-22.92681669,-317891,128,-64452,-4.648383218,0.003461838,48,18304,2558.59375
-21.19661882,-293901,128,-22.93698584,-318032,128,-65504,-4.724255171,0.006851555,95,18944,2578.125
-21.15377857,-293307,128,-22.9288361,-317919,128,-64036,-4.61838062,0.004543663,63,19584,2597.65625
-21.14635004,-293204,128,-22.93366825,-317986,128,-64000,-4.615784242,0.01817465,252,20224,2617.1875
-21.22712627,-294324,128,-22.91744088,-317761,128,-65529,-4.726058212,0.001009703,14,20864,2636.71875
-21.16914048,-293520,128,-22.90287231,-317559,128,-63592,-4.586358617,0.019112232,265,21504,2656.25
-21.08396483,-292339,128,-22.90590142,-317601,128,-65153,-4.69894048,3.61E-04,5,22144,2675.78125
-21.10531284,-292635,128,-22.91203176,-317686,128,-63489,-4.578930089,0.004543663,63,22784,2695.3125
-21.16993382,-293531,128,-22.9278264,-317905,128,-64961,-4.685093127,0.008149744,113,23424,2714.84375
-21.18962302,-293804,128,-22.92811488,-317909,128,-63489,-4.578930089,0.003894568,54,24064,2734.375
-21.13495483,-293046,128,-22.93143248,-317955,128,-64537,-4.654513556,0.003245473,45,24704,2753.90625
-21.13444997,-293039,128,-22.91837846,-317774,128,-63997,-4.615567877,0.027478341,381,25344,2773.4375
-21.12406446,-292895,128,-22.9048196,-317586,128,-64543,-4.654946286,0.039089923,542,25984,2792.96875
-21.18003084,-293671,128,-22.88311099,-317285,128,-63336,-4.56789548,0.01817465,252,26624,2812.5
-21.09961523,-292556,128,-22.85007928,-316827,128,-56324,-4.062178619,0.03808022,528,27264,2832.03125
-21.21061041,-294095,128,-22.91145479,-317678,128,-63592,-4.586358617,0.073275575,1016,27904,2851.5625
-21.1505331,-293262,128,-22.95097744,-318226,128,-65026,-4.689781033,2.88E-04,4,28544,2871.09375
-21.19344547,-293857,128,-22.94758772,-318179,128,-63585,-4.585853766,0,0,29184,2890.625
-21.16481318,-293460,128,-22.94888591,-318197,128,-65409,-4.717403617,0.035700206,495,29824,2910.15625
-20.99936616,-291166,128,-22.36736922,-310134,128,-55489,-4.001957059,0.00223577,31,30464,2929.6875
-21.04660583,-291821,128,-22.64849933,-314032,128,-49192,-3.547807163,2.16E-04,3,31104,2949.21875
-21.08670546,-292377,128,-22.89075588,-317391,128,-55807,-4.024891737,0.276370081,3832,31744,2968.75
-21.12435295,-292899,128,-22.91318571,-317702,128,-64514,-4.652854759,0.018391015,255,32384,2988.28125
-21.15298523,-293296,128,-22.92357122,-317846,128,-63540,-4.582608292,0.029281381,406,33024,3007.8125
-21.15031673,-293259,128,-22.91275298,-317696,128,-63552,-4.583473752,0.001226068,17,33664,3027.34375
-21.11043347,-292706,128,-22.90719961,-317619,128,-64518,-4.653143245,0.035988693,499,34304,3046.875
-21.17267444,-293569,128,-22.89666985,-317473,128,-63520,-4.58116586,5.05E-04,7,34944,3066.40625
-21.07242537,-292179,128,-22.87597094,-317186,128,-63425,-4.574314305,0.018391015,255,35584,3085.9375
-21.09456671,-292486,128,-22.84077559,-316698,128,-63008,-4.544239586,0.018318894,254,36224,3105.46875
-21.08959032,-292417,128,-22.79274259,-316032,128,-61504,-4.435768656,0.010313393,143,36864,3125
-21.03607607,-291675,128,-22.7004269,-314752,128,-56833,-4.098888528,0.071544656,992,37504,3144.53125
-21.11050559,-292707,128,-22.64900418,-314039,128,-57400,-4.139781492,0.018246772,253,38144,3164.0625
-21.1221893,-292869,128,-22.62224705,-313668,128,-52273,-3.770013901,0.029930476,415,38784,3183.59375
-21.12990631,-292976,128,-22.68398317,-314524,128,-51148,-3.688877069,0.144243258,2000,39424,3203.125
-21.15637495,-293343,128,-22.82764945,-316516,128,-61568,-4.44038444,0.262955459,3646,40064,3222.65625
-21.14216699,-293146,128,-22.88880859,-317364,128,-61456,-4.432306818,0.119649782,1659,40704,3242.1875
-21.160558,-293401,128,-22.91967665,-317792,128,-63968,-4.61347635,0.016660096,231,41344,3261.71875
-21.17837205,-293648,128,-22.92104696,-317811,128,-65505,-4.724327293,0.009087325,126,41984,3281.25
-21.19943156,-293940,128,-22.9308555,-317947,128,-63497,-4.579507062,0.035628085,494,42624,3300.78125
-21.15861072,-293374,128,-22.91780149,-317766,128,-64497,-4.651628691,0.004543663,63,43264,3320.3125
-21.16401984,-293449,128,-22.94297194,-318115,128,-65524,-4.725697604,0.027694705,384,43904,3339.84375
-21.14411427,-293173,128,-22.92364334,-317847,128,-63507,-4.580228279,0.019833448,275,44544,3359.375
-21.19106545,-293824,128,-22.92753791,-317901,128,-64973,-4.685958586,0,0,45184,3378.90625
-21.14692702,-293212,128,-22.93222582,-317966,128,-57104,-4.11843349,2.88E-04,4,45824,3398.4375
-21.14281608,-293155,128,-22.94088041,-318086,128,-63513,-4.580661008,5.05E-04,7,46464,3417.96875
-21.10271646,-292599,128,-22.95011198,-318214,128,-64392,-4.64405592,0.001081824,15,47104,3437.5
-21.10812558,-292674,128,-22.94636165,-318162,128,-65344,-4.712715711,2.88E-04,4,47744,3457.03125
-21.15298523,-293296,128,-22.96605086,-318435,128,-63737,-4.596816253,0.00576973,80,48384,3476.5625
-21.10444738,-292623,128,-22.95249199,-318247,128,-65476,-4.722235766,0.009159447,127,49024,3496.09375
-21.20051339,-293955,128,-22.94304406,-318116,128,-65081,-4.693747722,0.036854152,511,49664,3515.625
-21.024176,-291510,128,-22.92364334,-317847,128,-63968,-4.61347635,0.018463137,256,50304,3535.15625
-21.10610617,-292646,128,-22.87640367,-317192,128,-61952,-4.468079146,0.03584445,497,50944,3554.6875
-21.11122681,-292717,128,-22.86609028,-317049,128,-63001,-4.543734735,0.001153946,16,51584,3574.21875
-21.13257481,-293013,128,-22.97117149,-318506,128,-65024,-4.68963679,0.292958056,4062,52224,3593.75
-21.13964273,-293111,128,-22.96093022,-318364,128,-64512,-4.652710516,5.77E-04,8,52864,3613.28125
-21.06687201,-292102,128,-22.96114659,-318367,128,-64324,-4.639151649,0.016227366,225,53504,3632.8125
-21.16063013,-293402,128,-22.95076107,-318223,128,-65536,-4.726563063,0.090007793,1248,54144,3652.34375
-20.99222612,-291067,128,-22.25933102,-308636,128,-35103,-2.531685535,0.017525556,243,54784,3671.875
-21.16416409,-293451,128,-22.96792602,-318461,128,-57343,-4.135670559,0.142007487,1969,55424,3691.40625
-21.1238481,-292892,128,-22.90921902,-317647,128,-63688,-4.593282293,0.016443731,228,56064,3710.9375
-21.12146808,-292859,128,-22.94427013,-318133,128,-57282,-4.13127114,0.017886164,248,56704,3730.46875
-21.10134615,-292580,128,-22.93071126,-317945,128,-63997,-4.615567877,0.018463137,256,57344,3750
-21.09528793,-292496,128,-22.928187,-317910,128,-65505,-4.724327293,0.032598976,452,57984,3769.53125
-21.10848619,-292679,128,-22.91426753,-317717,128,-63505,-4.580084035,0.018391015,255,58624,3789.0625
-21.04220641,-291760,128,-22.90626203,-317606,128,-63725,-4.595950794,2.16E-04,3,59264,3808.59375
-21.04213429,-291759,128,-22.86450361,-317027,128,-63236,-4.560683317,0.002019406,28,59904,3828.125
-21.0895182,-292416,128,-22.84661744,-316779,128,-61547,-4.438869886,0.03231049,448,60544,3847.65625
-21.08504666,-292354,128,-22.79793534,-316104,128,-61444,-4.431441358,0.041397815,574,61184,3867.1875
-21.15442767,-293316,128,-22.74521443,-315373,128,-58337,-4.207359458,0.041253572,572,61824,3886.71875
-21.14101304,-293130,128,-22.67424675,-314389,128,-52705,-3.801170445,0.054379708,754,62464,3906.25
-21.09636975,-292511,128,-22.68657955,-314560,128,-52288,-3.771095725,0.008149744,113,63104,3925.78125
-21.16603925,-293477,128,-22.81510029,-316342,128,-61697,-4.449688131,0.26079181,3616,63744,3945.3125
-21.06903566,-292132,128,-22.90864204,-317639,128,-63556,-4.583762238,0.292958056,4062,64384,3964.84375
-21.09312428,-292466,128,-22.99814498,-318880,128,-65409,-4.717403617,0.294256245,4080,65024,3984.375
-21.12529053,-292912,128,-22.99951529,-318899,128,-64753,-4.670091828,0.017309191,240,128,4003.90625
-21.08194543,-292311,128,-23.00362623,-318956,128,-65508,-4.724543658,8.65E-04,12,768,4023.4375
-21.16445257,-293455,128,-23.00874686,-319027,128,-65052,-4.691656195,3.61E-04,5,1408,4042.96875
-21.17375626,-293584,128,-23.00377047,-318958,128,-64993,-4.687401019,0.004038811,56,2048,4062.5
-21.06434775,-292067,128,-22.98711037,-318727,128,-65473,-4.722019401,0,0,2688,4082.03125
-21.16127922,-293411,128,-23.00889111,-319029,128,-65073,-4.693170749,0.00663519,92,3328,4101.5625
-21.15298523,-293296,128,-23.01992572,-319182,128,-65060,-4.692233168,0.14655115,2032,3968,4121.09375
-21.1542113,-293313,128,-23.0415622,-319482,128,-65536,-4.726563063,0.147632974,2047,4608,4140.625
-21.07588721,-292227,128,-23.01970935,-319179,128,-65476,-4.722235766,0.002019406,28,5248,4160.15625
-21.06506897,-292077,128,-23.01379538,-319097,128,-65088,-4.694252574,0.00223577,31,5888,4179.6875
-21.08216179,-292314,128,-23.02302695,-319225,128,-65273,-4.707595075,0,0,6528,4199.21875
-21.149884,-293253,128,-23.08007515,-320016,128,-65508,-4.724543658,0.294256245,4080,7168,4218.75
-21.14865794,-293236,128,-23.08671034,-320108,128,-61444,-4.431441358,0.001081824,15,7808,4238.28125
-21.11692442,-292796,128,-23.03499914,-319391,128,-57856,-4.172668954,5.05E-04,7,8448,4257.8125
-21.06968475,-292141,128,-22.99792862,-318877,128,-65536,-4.726563063,0.004832149,67,9088,4277.34375
-21.0761757,-292231,128,-23.03947068,-319453,128,-65345,-4.712787832,0.267715486,3712,9728,4296.875
-21.17974236,-293667,128,-23.1342385,-320767,128,-63232,-4.560394831,0.143954771,1996,10368,4316.40625
-21.12593962,-292921,128,-23.08800853,-320126,128,-57470,-4.144830006,0.143089311,1984,11008,4335.9375
-21.20217218,-293978,128,-23.16294291,-321165,128,-63105,-4.551235384,0.073708305,1022,11648,4355.46875
-21.11908807,-292826,128,-23.02930153,-319312,128,-65476,-4.722235766,0.147849339,2050,12288,4375
-21.04588461,-291811,128,-22.83132766,-316567,128,-36608,-2.640228586,0.471314844,6535,12928,4394.53125
-21.07199264,-292173,128,-23.05504895,-319669,128,-57480,-4.145551222,0.188742303,2617,13568,4414.0625
-21.069829,-292143,128,-23.05223621,-319630,128,-65528,-4.72598609,0.28603438,3966,14208,4433.59375
-21.07437266,-292206,128,-23.05706835,-319697,128,-61457,-4.43237894,0.286178623,3968,14848,4453.125
-21.12226142,-292870,128,-23.08678247,-320109,128,-61453,-4.432090453,0.147560852,2046,15488,4472.65625
-21.20116248,-293964,128,-23.17022719,-321266,128,-61694,-4.449471766,0.068082818,944,16128,4492.1875
-21.15262463,-293291,128,-23.12580027,-320650,128,-61634,-4.445144468,0.143161433,1985,16768,4511.71875
-21.11641957,-292789,128,-23.07827211,-319991,128,-62401,-4.500461757,0.017525556,243,17408,4531.25
-21.06348229,-292055,128,-23.03918219,-319449,128,-65529,-4.726058212,9.38E-04,13,18048,4550.78125
-21.10740436,-292664,128,-23.048558,-319579,128,-62461,-4.504789055,0.01817465,252,18688,4570.3125
-21.13372876,-293029,128,-23.04048038,-319467,128,-65531,-4.726202455,0.020410421,283,19328,4589.84375
-21.07603146,-292229,128,-22.96215629,-318381,128,-65040,-4.690790736,0.004543663,63,19968,4609.375
-21.08115209,-292300,128,-22.93410098,-317992,128,-64434,-4.647085029,5.05E-04,7,20608,4628.90625
-21.11238076,-292733,128,-22.95068895,-318222,128,-65288,-4.7086769,0.276586446,3835,21248,4648.4375
-21.19431093,-293869,128,-23.10005285,-320293,128,-58241,-4.200435782,0.073852548,1024,21888,4667.96875
-21.0745169,-292208,128,-23.05086589,-319611,128,-57403,-4.139997857,0.286178623,3968,22528,4687.5
-21.19510426,-293880,128,-23.17419388,-321321,128,-63439,-4.575324008,0.066351898,920,23168,4707.03125
-21.10805346,-292673,128,-23.08880187,-320137,128,-57473,-4.145046371,0.29533807,4095,23808,4726.5625
-21.11259712,-292736,128,-23.09796132,-320264,128,-65022,-4.689492546,0.00223577,31,24448,4746.09375
-21.11858322,-292819,128,-23.10099043,-320306,128,-62449,-4.503923595,0.004543663,63,25088,4765.625
-21.11937655,-292830,128,-23.10430802,-320352,128,-62336,-4.495773851,0.293246543,4066,25728,4785.15625
-21.15868284,-293375,128,-23.14029671,-320851,128,-63427,-4.574458548,0.129241959,1792,26368,4804.6875
-21.14274396,-293154,128,-23.126233,-320656,128,-63432,-4.574819157,0.147632974,2047,27008,4824.21875
-21.11649169,-292790,128,-23.08981157,-320151,128,-65009,-4.688554965,0.143089311,1984,27648,4843.75
-21.08295513,-292325,128,-23.06651629,-319828,128,-61506,-4.435912899,0.29533807,4095,28288,4863.28125
-21.12312688,-292882,128,-23.10120679,-320309,128,-65040,-4.690790736,0.13328077,1848,28928,4882.8125
-21.1745496,-293595,128,-23.15652408,-321076,128,-65074,-4.693242871,0,0,29568,4902.34375
-21.20462432,-294012,128,-23.18407454,-321458,128,-63409,-4.573160359,0.072698602,1008,30208,4921.875
-21.17548718,-293608,128,-23.15847136,-321103,128,-65104,-4.69540652,0.002019406,28,30848,4941.40625
-21.08136846,-292303,128,-23.06529022,-319811,128,-61697,-4.449688131,0.004543663,63,31488,4960.9375
-21.15442767,-293316,128,-23.12630512,-320657,128,-64513,-4.652782637,0.004327298,60,32128,4980.46875
-21.11079408,-292711,128,-23.08353699,-320064,128,-57408,-4.140358465,7.21E-05,1,32768,5000
-21.08201755,-292312,128,-23.06752599,-319842,128,-61646,-4.446009928,0.267715486,3712,33408,5019.53125
-21.12045838,-292845,128,-23.10344256,-320340,128,-61442,-4.431297115,0.277163419,3843,34048,5039.0625
-21.20981708,-294084,128,-23.19251277,-321575,128,-65536,-4.726563063,0.064837344,899,34688,5058.59375
-21.17527082,-293605,128,-23.15948107,-321117,128,-65025,-4.689708911,0.020266178,281,35328,5078.125
-21.08288301,-292324,128,-22.85440658,-316887,128,-65012,-4.68877133,0.00223577,31,35968,5097.65625
-21.14966764,-293250,128,-23.13221909,-320739,128,-59108,-4.262965234,0.004471541,62,36608,5117.1875
-21.08576788,-292364,128,-23.06867994,-319858,128,-57466,-4.144541519,0.294256245,4080,37248,5136.71875
-21.2119086,-294113,128,-23.19085398,-321552,128,-64513,-4.652782637,0.133785621,1855,37888,5156.25
-21.1398591,-293114,128,-23.12176146,-320594,128,-64514,-4.652854759,1.44E-04,2,38528,5175.78125
-21.11908807,-292826,128,-23.10214437,-320322,128,-65315,-4.710624183,0.008149744,113,39168,5195.3125
-21.2108989,-294099,128,-23.19099822,-321554,128,-64538,-4.654585678,0.003389717,47,39808,5214.84375
-21.18428602,-293730,128,-23.16647687,-321214,128,-63485,-4.578641603,0.001009703,14,40448,5234.375
-21.14021971,-293119,128,-23.11786689,-320540,128,-65417,-4.71798059,7.21E-05,1,41088,5253.90625
-21.03290272,-291631,128,-23.01631963,-319132,128,-65276,-4.70781144,0.015001299,208,41728,5273.4375
-21.04119671,-291746,128,-23.02093542,-319196,128,-65474,-4.722091522,0.00223577,31,42368,5292.96875
-21.12723781,-292939,128,-23.07134844,-319895,128,-61891,-4.463679727,0.036854152,511,43008,5312.5
-21.08007027,-292285,128,-23.02093542,-319196,128,-61666,-4.44745236,0.025314692,351,43648,5332.03125
-21.16308226,-293436,128,-23.05216408,-319629,128,-57549,-4.150527614,0.143089311,1984,44288,5351.5625
-21.1948879,-293877,128,-23.15320649,-321030,128,-62397,-4.500173271,0.145397204,2016,44928,5371.09375
-21.17930963,-293661,128,-23.16323139,-321169,128,-65529,-4.726058212,0.082146535,1139,45568,5390.625
-21.11764564,-292806,128,-23.10120679,-320309,128,-58241,-4.200435782,0.226029185,3134,46208,5410.15625
-21.19185879,-293835,128,-23.1779442,-321373,128,-58141,-4.193223619,0.112437619,1559,46848,5429.6875
-21.13726272,-293078,128,-23.12226631,-320601,128,-61465,-4.432955913,1.44E-04,2,47488,5449.21875
-21.09572066,-292502,128,-23.08079637,-320026,128,-65050,-4.691511952,0.003389717,47,48128,5468.75
-21.22186139,-294251,128,-23.20643225,-321768,128,-64744,-4.669442733,0.00223577,31,48768,5488.28125
-21.09427823,-292482,128,-23.07848848,-319994,128,-61826,-4.458991821,0.032382611,449,49408,5507.8125
-21.2318863,-294390,128,-23.21667352,-321910,128,-65024,-4.68963679,0.001081824,15,50048,5527.34375
-21.09240307,-292456,128,-23.07798363,-319987,128,-63729,-4.59623928,0.034474139,478,50688,5546.875
-21.21976986,-294222,128,-23.20520618,-321751,128,-63729,-4.59623928,0,0,51328,5566.40625
-21.19863822,-293929,128,-23.18284848,-321441,128,-65441,-4.719711509,0.008077622,112,51968,5585.9375
-21.18190601,-293697,128,-23.16741445,-321227,128,-57412,-4.140646951,0.013775231,191,52608,5605.46875
-21.09168185,-292446,128,-23.07791151,-319986,128,-63986,-4.614774539,0.027694705,384,53248,5625
-21.13509907,-293048,128,-23.11801113,-320542,128,-57408,-4.140358465,0.010241271,142,53888,5644.53125
-21.2082304,-294062,128,-23.19409945,-321597,128,-57373,-4.137834208,0.006779433,94,54528,5664.0625
-21.15175917,-293279,128,-23.13762821,-320814,128,-63362,-4.569770642,0.008077622,112,55168,5683.59375
-21.15767314,-293361,128,-23.1432537,-320892,128,-65340,-4.712427224,0.001081824,15,55808,5703.125
-21.2372233,-294464,128,-23.22143355,-321976,128,-65536,-4.726563063,0.013847353,192,56448,5722.65625
-21.12543477,-292914,128,-23.10986139,-320429,128,-61885,-4.463246997,0.070246466,974,57088,5742.1875
-21.09867765,-292543,128,-23.0838976,-320069,128,-65281,-4.708172048,0.293102299,4064,57728,5761.71875
-21.28020779,-295060,128,-23.26578835,-322591,128,-58911,-4.248757273,1.166495224,16174,58368,5781.25
-21.28814117,-295170,128,-23.27451507,-322712,128,-57352,-4.136319654,1.163033386,16126,59008,5800.78125
-21.15356221,-293304,128,-23.14072944,-320857,128,-57601,-4.154277939,0,0,59648,5820.3125
-21.04285551,-291769,128,-23.01343477,-319092,128,-65140,-4.698002898,0.226389793,3139,60288,5839.84375
-20.97152722,-290780,128,-22.87777399,-317211,128,-61455,-4.432234696,0.295410191,4096,60928,5859.375
-21.25763372,-294747,128,-23.24263731,-322270,128,-65152,-4.698868358,0.00353396,49,61568,5878.90625
-21.09896613,-292547,128,-23.08461882,-320079,128,-63504,-4.580011914,0.29533807,4095,62208,5898.4375
-21.23058811,-294372,128,-23.21725049,-321918,128,-59901,-4.320157685,0.073780426,1023,62848,5917.96875
-21.16401984,-293449,128,-23.14866282,-320967,128,-64961,-4.685093127,0.146623271,2033,63488,5937.5
-21.19575336,-293889,128,-23.18017998,-321404,128,-64768,-4.671173653,0.14301719,1983,64128,5957.03125
-21.20310977,-293991,128,-23.18753638,-321506,128,-59361,-4.281212006,0.065702804,911,64768,5976.5625
-21.1098565,-292698,128,-23.0945716,-320217,128,-57465,-4.144469398,0.013703109,190,65408,5996.09375
-21.10444738,-292623,128,-23.08909036,-320141,128,-57351,-4.136247532,0.017309191,240,512,6015.625
-21.26340345,-294827,128,-23.24602702,-322317,128,-57607,-4.154710669,0.006274582,87,1152,6035.15625
-21.13798393,-293088,128,-23.12233843,-320602,128,-64522,-4.653431732,0.057697303,800,1792,6054.6875
-21.23239115,-294397,128,-23.21631291,-321905,128,-57465,-4.144469398,0,0,2432,6074.21875
-21.23707905,-294462,128,-23.22078445,-321967,128,-63983,-4.614558174,0.017886164,248,3072,6093.75
-21.24421909,-294561,128,-23.22590509,-322038,128,-64000,-4.615784242,0.00223577,31,3712,6113.28125
-21.21832743,-294202,128,-23.20376375,-321731,128,-63937,-4.611240579,0.281418595,3902,4352,6132.8125
-21.13264693,-293014,128,-23.11765052,-320537,128,-65295,-4.709181751,0.131766216,1827,4992,6152.34375
-21.23051598,-294371,128,-23.21602442,-321901,128,-60687,-4.376845286,0.039017801,541,5632,6171.875
-21.19935944,-293939,128,-23.18465152,-321466,128,-59390,-4.283303533,0.069308885,961,6272,6191.40625
-21.30285398,-295374,128,-23.28879515,-322910,128,-60544,-4.366531893,1.17695286,16319,6912,6210.9375
-21.10826982,-292676,128,-23.09486009,-320221,128,-57952,-4.179592631,0.295265948,4094,7552,6230.46875
-21.14836945,-293232,128,-23.13207485,-320737,128,-57569,-4.151970047,0.147632974,2047,8192,6250
-21.27580837,-294999,128,-23.26146105,-322531,128,-61440,-4.431152872,1.17298617,16264,8832,6269.53125
-21.16351499,-293442,128,-23.14815797,-320960,128,-57352,-4.136319654,0.00223577,31,9472,6289.0625
-21.128536,-292957,128,-23.11469354,-320496,128,-58340,-4.207575823,0.147632974,2047,10112,6308.59375
-21.28951148,-295189,128,-23.27480355,-322716,128,-60428,-4.358165784,1.181063793,16376,10752,6328.125
-21.14512398,-293187,128,-23.13077666,-320719,128,-59087,-4.261450679,0.140492933,1948,11392,6347.65625
-21.20145097,-293968,128,-23.18609395,-321486,128,-59344,-4.279985938,0.069164642,959,12032,6367.1875
-21.32110075,-295627,128,-23.3079795,-323176,128,-61426,-4.430143169,1.167577048,16189,12672,6386.71875
-21.19568124,-293888,128,-23.18162241,-321424,128,-58305,-4.205051566,0.129241959,1792,13312,6406.25
-21.20000854,-293948,128,-23.18602183,-321485,128,-57541,-4.149950641,0.069236764,960,13952,6425.78125
-21.3029261,-295375,128,-23.28857878,-322907,128,-65536,-4.726563063,1.181568644,16383,14592,6445.3125
-21.29686788,-295291,128,-23.28179935,-322813,128,-64767,-4.671101531,1.172914049,16263,15232,6464.84375
-21.31352798,-295522,128,-23.29910854,-323053,128,-60513,-4.364296122,1.179260752,16351,15872,6484.375
-21.17375626,-293584,128,-23.15998592,-321124,128,-59378,-4.282438073,0.004327298,60,16512,6503.90625
-21.27645746,-295008,128,-23.26247075,-322545,128,-65529,-4.726058212,1.181063793,16376,17152,6523.4375
-21.11699654,-292797,128,-23.10120679,-320309,128,-58365,-4.209378863,2.16E-04,3,17792,6542.96875
-21.28136173,-295076,128,-23.26809624,-322623,128,-64543,-4.654946286,1.172264954,16254,18432,6562.5
-21.19084909,-293821,128,-23.17570843,-321342,128,-58366,-4.209450985,0.110995187,1539,19072,6582.03125
-21.30408005,-295391,128,-23.28937212,-322918,128,-64610,-4.659778435,1.165485521,16160,19712,6601.5625
-21.30343095,-295382,128,-23.28872303,-322909,128,-60767,-4.382615016,1.145796316,15887,20352,6621.09375
-21.17361202,-293582,128,-23.16049077,-321131,128,-57860,-4.172957441,0.027694705,384,20992,6640.625
-21.00535226,-291249,128,-22.98992312,-318766,128,-65533,-4.726346699,0.038008098,527,21632,6660.15625
-21.11324622,-292745,128,-23.09803344,-320265,128,-63489,-4.578930089,0.009159447,127,22272,6679.6875
-21.27018288,-294921,128,-23.25511435,-322443,128,-61328,-4.42307525,1.180991671,16375,22912,6699.21875
-21.17216959,-293562,128,-23.15666832,-321078,128,-58360,-4.209018255,0.147632974,2047,23552,6718.75
-21.17216959,-293562,128,-23.15666832,-321078,128,16376,1.181063793,0,0,24192,6738.28125
-21.31987468,-295610,0,-23.30574373,-323145,128,-118816,-8.569203445,1.111899151,15417,24832,6757.8125
-21.36055128,-296174,128,-23.34620396,-323706,128,-65088,-4.694252574,1.034224157,14340,25472,6777.34375
-21.33119778,-295767,128,-23.31706683,-323302,128,-60936,-4.394803571,1.1167313,15484,26112,6796.875
-21.30256549,-295370,128,-23.28785757,-322897,128,-61321,-4.422570398,1.116947665,15487,26752,6816.40625
-21.30696491,-295431,128,-23.29175213,-322951,128,-60996,-4.399130869,1.154523033,16008,27392,6835.9375
-21.28316477,-295101,128,-23.26932231,-322640,128,-60447,-4.359536095,1.180414698,16367,28032,6855.46875
-21.25251308,-294676,128,-23.23766091,-322201,128,-57600,-4.154205817,1.177529833,16327,28672,6875
-21.23794451,-294474,128,-23.22251537,-321991,128,-58272,-4.202671552,0.008149744,113,29312,6894.53125
-21.2478973,-294612,128,-23.23333362,-322141,128,-57733,-4.163797994,0.00396669,55,29952,6914.0625
-21.25741735,-294744,128,-23.24242094,-322267,128,-58304,-4.204979444,0.004615784,64,30592,6933.59375
-21.2575616,-294746,128,-23.24386337,-322287,128,-58305,-4.205051566,0.008798839,122,31232,6953.125
-21.27148107,-294939,128,-23.25720587,-322472,128,-60260,-4.34604935,0.004543663,63,31872,6972.65625
-21.29189149,-295222,128,-23.2779769,-322760,128,-60994,-4.398986626,1.164259453,16143,32512,6992.1875
-21.27335623,-294965,128,-23.25951377,-322504,128,-61328,-4.42307525,0.004038811,56,33152,7011.71875
-21.27515927,-294990,128,-23.26110044,-322526,128,-61412,-4.429133466,1.18048682,16368,33792,7031.25
-21.27674595,-295012,128,-23.26218227,-322541,128,-61191,-4.413194586,0.004543663,63,34432,7050.78125
-21.26801923,-294891,128,-23.25338343,-322419,128,-61425,-4.430071048,0.001442433,20,35072,7070.3125
-21.25626341,-294728,128,-23.24169972,-322257,128,-61439,-4.43108075,7.21E-05,1,35712,7089.84375
-21.25640765,-294730,128,-23.24220458,-322264,128,-61181,-4.41247337,0,0,36352,7109.375
-21.24472395,-294568,128,-23.2316027,-322117,128,-61317,-4.422281912,0.017309191,240,36992,7128.90625
-21.25503734,-294711,128,-23.24112275,-322249,128,-61024,-4.401150274,0.017886164,248,37632,7148.4375
-21.23664632,-294456,128,-23.22446266,-322018,128,-61437,-4.430936507,2.16E-04,3,38272,7167.96875
-21.22330382,-294271,128,-23.21025469,-321821,128,-60825,-4.38679807,0.001370311,19,38912,7187.5
-21.23794451,-294474,128,-23.22547236,-322032,128,-60984,-4.398265409,0.035700206,495,39552,7207.03125
-21.23606935,-294448,128,-23.22201052,-321984,128,-61344,-4.424229196,0.018391015,255,40192,7226.5625
-21.25063792,-294650,128,-23.23679545,-322189,128,-61437,-4.430936507,0.00930369,129,40832,7246.09375
-21.22748688,-294329,128,-23.21400502,-321873,128,-60536,-4.36595492,0.009231568,128,41472,7265.625
-21.26318708,-294824,128,-23.24833491,-322349,128,-61313,-4.421993425,0.001009703,14,42112,7285.15625
-21.24234393,-294535,128,-23.22907844,-322082,128,-60959,-4.396462369,0.016155245,224,42752,7304.6875
-21.25208035,-294670,128,-23.23809364,-322207,128,-61377,-4.426609209,0.009015204,125,43392,7324.21875
-21.23318448,-294408,128,-23.21934202,-321947,128,-60407,-4.356651229,8.65E-04,12,44032,7343.75
-21.24010816,-294504,128,-23.22713116,-322055,128,-60384,-4.354992432,0.027694705,384,44672,7363.28125
-21.2372233,-294464,128,-23.22215476,-321986,128,-59842,-4.315902509,0.03231049,448,45312,7382.8125
-21.21775046,-294194,128,-23.20455709,-321742,128,-59408,-4.284601722,0.045580869,632,45952,7402.34375
-21.22914567,-294352,128,-23.21602442,-321901,128,-59394,-4.28359202,0.065774925,912,46592,7421.875
-21.25063792,-294650,128,-23.23686758,-322190,128,-61040,-4.40230422,0.004615784,64,47232,7441.40625
-21.22820809,-294339,128,-23.21544745,-321893,128,-60872,-4.390187787,0.017309191,240,47872,7460.9375
-21.24948397,-294634,128,-23.23405483,-322151,128,-61439,-4.43108075,1.18048682,16368,48512,7480.46875
-21.22647717,-294315,128,-23.21169713,-321841,128,-63495,-4.579362819,0.029641989,411,49152,7500
-21.11245288,-292734,128,-23.08671034,-320108,128,-65517,-4.725192753,0.291876232,4047,49792,7519.53125
-21.20960071,-294081,128,-23.19568613,-321619,128,-65472,-4.721947279,0.001081824,15,50432,7539.0625
-21.23304024,-294406,128,-23.21934202,-321947,128,-61439,-4.43108075,0.036782031,510,51072,7558.59375
-21.25741735,-294744,128,-23.24465671,-322298,128,-63681,-4.592777442,0.020194056,280,51712,7578.125
-21.22784748,-294334,128,-23.21566382,-321896,128,-61377,-4.426609209,0.06952525,964,52352,7597.65625
-21.26051858,-294787,128,-23.24710885,-322332,128,-64063,-4.620327904,0.009159447,127,52992,7617.1875
-21.25301793,-294683,128,-23.23823789,-322209,128,-63522,-4.581310103,0.027983192,388,53632,7636.71875
-21.24313727,-294546,128,-23.23116997,-322111,128,-63492,-4.579146454,0.001081824,15,54272,7656.25
-21.2665768,-294871,128,-23.25338343,-322419,128,-64260,-4.634535865,0.00396669,55,54912,7675.78125
-21.25099853,-294655,128,-23.23766091,-322201,128,-63741,-4.59710474,0.018535259,257,55552,7695.3125
-21.21183648,-294112,128,-23.19943645,-321671,128,-60545,-4.366604014,0.001730919,24,56192,7714.84375
-21.23073235,-294374,128,-23.21566382,-321896,128,-60448,-4.359608216,0.071977386,998,56832,7734.375
-21.20801404,-294059,128,-23.19280126,-321579,128,-58244,-4.200652146,0.036782031,510,57472,7753.90625
-21.1878921,-293780,128,-23.17383327,-321316,128,-59381,-4.282654438,0.017309191,240,58112,7773.4375
-21.25107065,-294656,128,-23.23766091,-322201,128,-60423,-4.357805176,0.03231049,448,58752,7792.96875
-21.27588049,-295000,128,-23.26283136,-322550,128,-63501,-4.579795549,0.001081824,15,59392,7812.5
-21.25208035,-294670,128,-23.23931971,-322224,128,-65216,-4.703484142,0.008293987,115,60032,7832.03125
-21.28071264,-295067,128,-23.26766351,-322617,128,-65433,-4.719134536,1.181424401,16381,60672,7851.5625
-21.2392427,-294492,128,-23.22482326,-322023,128,-64993,-4.687401019,0.036782031,510,61312,7871.09375
-21.30090669,-295347,128,-23.28583816,-322869,128,-63585,-4.585853766,1.172914049,16263,61952,7890.625
-21.26001373,-294780,128,-23.24703672,-322331,128,-65505,-4.724327293,1.149258155,15935,62592,7910.15625
-21.26333133,-294826,128,-23.2492725,-322362,128,-65490,-4.723245469,8.65E-04,12,63232,7929.6875
-21.27451018,-294981,128,-23.26052347,-322518,128,-64761,-4.670668801,1.163105507,16127,63872,7949.21875
-21.23159781,-294386,128,-23.21746686,-321921,128,-65017,-4.689131938,0,0,64512,7968.75
-21.25489309,-294709,128,-23.24040154,-322239,128,-65521,-4.725481239,0.036421423,505,65152,7988.28125
-21.27306775,-294961,128,-23.25915316,-322499,128,-63744,-4.597321105,1.177529833,16327,256,8007.8125
-21.26679316,-294874,128,-23.25158039,-322394,128,-65039,-4.690718614,1.181568644,16383,896,8027.34375
-21.29153088,-295217,128,-23.27566901,-322728,128,-64541,-4.654802043,1.163249751,16129,1536,8046.875
-21.30739764,-295437,128,-23.29218486,-322957,128,-65051,-4.691584073,1.167288562,16185,2176,8066.40625
-21.31554738,-295550,128,-23.30026249,-323069,128,-65521,-4.725481239,1.181352279,16380,2816,8085.9375
-21.26174465,-294804,128,-23.24819067,-322347,128,-63873,-4.606624795,1.181568644,16383,3456,8105.46875
-21.30263761,-295371,128,-23.28908363,-322914,128,-65440,-4.719639387,1.18091955,16374,4096,8125
-21.26282647,-294819,128,-23.24992159,-322371,128,-64449,-4.648166853,0.005120636,71,4736,8144.53125
-21.30977765,-295470,128,-23.29644004,-323016,128,-64641,-4.662014206,1.177241347,16323,5376,8164.0625
-21.31872074,-295594,128,-23.30422918,-323124,128,-65073,-4.693170749,1.108293069,15367,6016,8183.59375
-21.29383877,-295249,128,-23.28086177,-322800,128,-65536,-4.726563063,1.17695286,16319,6656,8203.125
-21.28027991,-295061,128,-23.26549986,-322587,128,-65521,-4.725481239,1.181496523,16382,7296,8222.65625
-21.29419938,-295254,128,-23.28086177,-322800,128,-65345,-4.712787832,1.145796316,15887,7936,8242.1875
-21.29996911,-295334,128,-23.28554967,-322865,128,-65026,-4.689781033,1.178106806,16335,8576,8261.71875
-21.32066802,-295621,128,-23.30783526,-323174,128,-65473,-4.722019401,1.177601955,16328,9216,8281.25
-21.34554998,-295966,128,-23.33242873,-323515,128,-57569,-4.151970047,1.18048682,16368,9856,8300.78125
-21.36401312,-296222,128,-23.35053126,-323766,128,-61696,-4.449616009,1.18048682,16368,10496,8320.3125
-21.35896461,-296152,128,-23.34670882,-323713,128,-58241,-4.200435782,1.173491022,16271,11136,8339.84375
-21.23484328,-294431,128,-23.22020748,-321959,128,-59447,-4.287414466,0.03584445,497,11776,8359.375
-21.32124499,-295629,128,-23.30776314,-323173,128,-57599,-4.154133696,0.001081824,15,12416,8378.90625
-21.33206324,-295779,128,-23.31908623,-323330,128,-65079,-4.693603479,1.159427304,16076,13056,8398.4375
-21.3099219,-295472,128,-23.29809884,-323039,128,-65480,-4.722524252,1.181352279,16380,13696,8417.96875
-21.28302053,-295099,128,-23.27025989,-322653,128,-65282,-4.70824417,1.177097103,16321,14336,8437.5
-21.30804674,-295446,128,-23.29535822,-323001,128,-57408,-4.140358465,1.125818625,15610,14976,8457.03125
-21.30703703,-295432,128,-23.29247335,-322961,128,-57348,-4.136031167,1.177024982,16320,15616,8476.5625
-21.31165282,-295496,128,-23.29982976,-323063,128,-57600,-4.154205817,1.108653678,15372,16256,8496.09375
-21.27234653,-294951,128,-23.25987437,-322509,128,-65470,-4.721803036,1.172409197,16256,16896,8515.625
-21.33610205,-295835,128,-23.32225958,-323374,128,-58416,-4.213057067,1.163466115,16132,17536,8535.15625
-21.32218257,-295642,128,-23.30841223,-323182,128,-57569,-4.151970047,1.163033386,16126,18176,8554.6875
-21.26412466,-294837,128,-23.25107554,-322387,128,-65524,-4.725697604,1.181063793,16376,18816,8574.21875
-21.26542285,-294855,128,-23.25374404,-322424,128,-65444,-4.719927874,1.181568644,16383,19456,8593.75
-21.26780287,-294888,128,-23.25453737,-322435,128,-63744,-4.597321105,0.017886164,248,20096,8613.28125
-21.27566412,-294997,128,-23.26182166,-322536,128,-65521,-4.725481239,1.179981968,16361,20736,8632.8125
-21.2675865,-294885,128,-23.2546095,-322436,128,-65149,-4.698651993,1.18091955,16374,21376,8652.34375
-21.29852668,-295314,128,-23.28461209,-322852,128,-58420,-4.213345553,1.17118313,16239,22016,8671.875
-21.36733071,-296268,128,-23.35255067,-323794,128,-59389,-4.283231411,1.179332874,16352,22656,8691.40625
-21.30141155,-295354,128,-23.28843454,-322905,128,-57848,-4.172091981,1.172192832,16253,23296,8710.9375
-21.36148886,-296187,128,-23.34822337,-323734,128,-61504,-4.435768656,1.181352279,16380,23936,8730.46875
-21.31936983,-295603,128,-23.30783526,-323174,128,-58911,-4.248757273,1.110168232,15393,24576,8750
-21.33458749,-295814,128,-23.32283656,-323382,128,-59293,-4.276307735,1.109951867,15390,25216,8769.53125
-21.31756679,-295578,128,-23.30588797,-323147,128,-59386,-4.283015046,1.108797921,15374,25856,8789.0625
-21.34446816,-295951,128,-23.33141903,-323501,128,-59328,-4.278831992,1.042013293,14448,26496,8808.59375
-21.32434622,-295672,128,-23.31115285,-323220,128,-59265,-4.274288329,1.108293069,15367,27136,8828.125
-21.34518937,-295961,128,-23.33105842,-323496,128,-61361,-4.425455263,1.034152035,14339,27776,8847.65625
-21.34454028,-295952,128,-23.33012084,-323483,128,-60937,-4.394875693,1.115793719,15471,28416,8867.1875
-21.35607974,-296112,128,-23.34223727,-323651,128,-63536,-4.582319806,1.03393567,14336,29056,8886.71875
-21.35146396,-296048,128,-23.33863119,-323601,128,-63505,-4.580084035,1.044898158,14488,29696,8906.25
-21.36985497,-296303,128,-23.3566616,-323851,128,-63744,-4.597321105,1.052326685,14591,30336,8925.78125
-21.35175244,-296052,128,-23.33776573,-323589,128,-63493,-4.579218576,1.181352279,16380,30976,8945.3125
-21.35687308,-296123,128,-23.34411244,-323677,128,-60985,-4.398337531,1.175149819,16294,31616,8964.84375
-21.36523919,-296239,128,-23.35240642,-323792,128,-61456,-4.432306818,1.042662387,14457,32256,8984.375
-21.3526179,-296064,128,-23.33884756,-323604,128,-63520,-4.58116586,1.051749712,14583,32896,9003.90625
-21.33999662,-295889,128,-23.32644264,-323432,128,-61056,-4.403458167,1.111250056,15408,33536,9023.4375
-21.39553027,-296659,128,-23.38103871,-324189,128,-63551,-4.58340163,1.040931468,14433,34176,9042.96875
-21.34396331,-295944,128,-23.32961599,-323476,128,-61888,-4.463463362,1.070789822,14847,34816,9062.5
-21.37793259,-296415,128,-23.36423437,-323956,128,-63545,-4.582968901,1.144714492,15872,35456,9082.03125
-21.31078736,-295484,128,-23.29701701,-323024,128,-59266,-4.274360451,1.179981968,16361,36096,9101.5625
-21.39286177,-296622,128,-23.37909143,-324162,128,-65090,-4.694396817,1.03393567,14336,36736,9121.09375
-21.38738053,-296546,128,-23.37368231,-324087,128,-61699,-4.449832374,1.172481319,16257,37376,9140.625
-21.270255,-294922,128,-23.2582877,-322487,128,-61363,-4.425599507,2.362632437,32759,38016,9160.15625
-21.3199468,-295611,128,-23.30509464,-323136,128,-64160,-4.627323702,0.017958286,249,38656,9179.6875
-21.3242741,-295671,128,-23.31216256,-323234,128,-65507,-4.724471536,1.179549239,16355,39296,9199.21875
-21.36487858,-296234,128,-23.35168521,-323782,128,-63554,-4.583617995,1.163105507,16127,39936,9218.75
-21.35348336,-296076,128,-23.34101121,-323634,128,-61440,-4.431152872,1.178972266,16347,40576,9238.28125
-21.37865381,-296425,128,-23.3656768,-323976,128,-63624,-4.588666509,1.035594468,14359,41216,9257.8125
-21.37807684,-296417,128,-23.36538832,-323972,128,-65441,-4.719711509,1.034152035,14339,41856,9277.34375
-21.36668162,-296259,128,-23.35550765,-323835,128,-63739,-4.596960497,1.036171441,14367,42496,9296.875
-21.35348336,-296076,128,-23.34137182,-323639,128,-65009,-4.688554965,1.038262968,14396,43136,9316.40625
-21.37685077,-296400,128,-23.36315255,-323941,128,-61199,-4.413771559,1.108220948,15366,43776,9335.9375
-21.3789423,-296429,128,-23.36639802,-323986,128,-64045,-4.619029715,1.061558254,14719,44416,9355.46875
-21.31655709,-295564,128,-23.30480615,-323132,128,-61694,-4.449471766,1.07201589,14864,45056,9375
-21.34764151,-295995,128,-23.33560209,-323559,128,-59367,-4.281644736,1.070212849,14839,45696,9394.53125
-21.33155839,-295772,128,-23.31973533,-323339,128,-58368,-4.209595228,1.108870042,15375,46336,9414.0625
-21.32723109,-295712,128,-23.3139656,-323259,128,-59392,-4.283447776,1.116875543,15486,46976,9433.59375
-21.30573884,-295414,128,-23.29268972,-322964,128,-59165,-4.267076167,1.172625562,16259,47616,9453.125
-21.36689798,-296262,128,-23.35392098,-323813,128,-61553,-4.439302616,1.181496523,16382,48256,9472.65625
-21.38853447,-296562,128,-23.37411503,-324093,128,-61385,-4.427186182,1.161951561,16111,48896,9492.1875
-21.42286437,-297038,128,-23.40974312,-324587,128,-61489,-4.434686832,0.890774237,12351,49536,9511.71875
-21.33869843,-295871,128,-23.32637052,-323431,128,-61188,-4.412978222,1.177024982,16320,50176,9531.25
-21.39603512,-296666,128,-23.38262539,-324211,128,-65440,-4.719639387,1.042301779,14452,50816,9550.78125
-21.41024308,-296863,128,-23.3966891,-324406,128,-61758,-4.45408755,1.042085414,14449,51456,9570.3125
-21.41839283,-296976,128,-23.40390127,-324506,128,-62412,-4.501255095,1.042229657,14451,52096,9589.84375
-21.36740284,-296269,128,-23.35305552,-323801,128,-61693,-4.449399644,1.034007792,14337,52736,9609.375
-21.37973563,-296440,128,-23.36574893,-323977,128,-65536,-4.726563063,1.036243562,14368,53376,9628.90625
-21.39682846,-296677,128,-23.38082235,-324186,128,-61568,-4.44038444,1.034729008,14347,54016,9648.4375
-21.37057619,-296313,128,-23.35723857,-323859,128,-61937,-4.466997321,1.042590266,14456,54656,9667.96875
-21.32989959,-295749,128,-23.31685046,-323299,128,-61247,-4.417233398,1.112692489,15428,55296,9687.5
-21.42805713,-297110,128,-23.41565709,-324669,128,-61504,-4.435768656,1.181280158,16379,55936,9707.03125
-21.39077024,-296593,128,-23.37844233,-324153,128,-65473,-4.722019401,1.181208036,16378,56576,9726.5625
-21.44046205,-297282,128,-23.42777353,-324837,128,-65509,-4.724615779,1.181568644,16383,57216,9746.09375
-21.36487858,-296234,128,-23.35096399,-323772,128,-61634,-4.445144468,1.181352279,16380,57856,9765.625
-21.43649536,-297227,128,-23.42214804,-324759,128,-61684,-4.448750549,0.903539765,12528,58496,9785.15625
-21.38290899,-296484,128,-23.37252836,-324071,128,-61313,-4.421993425,1.06978012,14833,59136,9804.6875
-21.36408524,-296223,128,-23.35341613,-323806,128,-65337,-4.712210859,0.91392528,12672,59776,9824.21875
-21.33999662,-295889,128,-23.32781295,-323451,128,-65337,-4.712210859,1.16368248,16135,60416,9843.75
-21.40432911,-296781,128,-23.39423697,-324372,128,-61441,-4.431224994,1.172409197,16256,61056,9863.28125
-21.39935272,-296712,128,-23.38861148,-324294,128,-61558,-4.439663224,1.181568644,16383,61696,9882.8125
-21.38088958,-296456,128,-23.37115805,-324052,128,-62145,-4.48199862,1.180342577,16366,62336,9902.34375
-21.38925569,-296572,128,-23.37837021,-324152,128,-62001,-4.471613106,1.034224157,14340,62976,9921.875
-21.25114277,-294657,128,-23.23968032,-322229,128,-61433,-4.430648021,0.028920773,401,63616,9941.40625
-21.44118326,-297292,128,-23.42914384,-324856,128,-63220,-4.559529371,1.181352279,16380,64256,9960.9375
-21.40476184,-296787,128,-23.39387636,-324367,128,-61825,-4.458919699,1.147094506,15905,64896,9980.46875
-21.41767161,-296966,128,-23.40584855,-324533,128,-61447,-4.431657723,1.181352279,16380,0,10000
-21.4633246,-297599,128,-23.4513573,-325164,128,-62384,-4.49923569,0.886302696,12289,640,10019.53125
-21.40238183,-296754,128,-23.38940482,-324305,128,-65529,-4.726058212,1.181063793,16376,1280,10039.0625
-21.34886758,-296012,128,-23.33567421,-323560,128,-65536,-4.726563063,1.052110321,14588,1920,10058.59375
-21.35817127,-296141,128,-23.34548275,-323696,128,-65528,-4.72598609,1.039056306,14407,2560,10078.125
-21.35730581,-296129,128,-23.34447305,-323682,128,-61537,-4.43814867,1.05694247,14655,3200,10097.65625
-21.34367482,-295940,128,-23.33141903,-323501,128,-65535,-4.726490942,1.034440522,14343,3840,10117.1875
-21.38536112,-296518,128,-23.37086956,-324048,128,-61681,-4.448534185,1.050090915,14560,4480,10136.71875
-21.41572433,-296939,128,-23.40159338,-324474,128,-65337,-4.712210859,1.036171441,14367,5120,10156.25
-21.30840734,-295451,128,-23.294637,-322991,128,-59265,-4.274288329,1.146084803,15891,5760,10175.78125
-21.38276474,-296482,128,-23.37079744,-324047,128,-65512,-4.724832144,1.178034684,16334,6400,10195.3125
-21.32715897,-295711,128,-23.31504742,-323274,128,-61472,-4.433460764,1.172409197,16256,7040,10214.84375
-21.33516447,-295822,128,-23.32262019,-323379,128,-65412,-4.717619981,1.116587057,15482,7680,10234.375
-21.36293129,-296207,128,-23.34944944,-323751,128,-61444,-4.431441358,1.152792114,15984,8320,10253.90625
-21.37144165,-296325,128,-23.35774343,-323866,128,-61725,-4.451707536,1.038479333,14399,8960,10273.4375
-21.37713926,-296404,128,-23.36336891,-323944,128,-63544,-4.582896779,1.038479333,14399,9600,10292.96875
-21.42416256,-297056,128,-23.41003161,-324591,128,-63456,-4.576550076,0.890269386,12344,10240,10312.5
-21.44183236,-297301,128,-23.42871111,-324850,128,-64753,-4.670091828,0.886807547,12296,10880,10332.03125
-21.36877315,-296288,128,-23.35594038,-323841,128,-65409,-4.717403617,1.038479333,14399,11520,10351.5625
-21.43382686,-297190,128,-23.42012863,-324731,128,-64633,-4.661437233,0.888466345,12319,12160,10371.09375
-21.44702511,-297373,128,-23.4353463,-324942,128,-61525,-4.43728321,1.042229657,14451,12800,10390.625
-21.46700281,-297650,128,-23.45546823,-325221,128,-62245,-4.489210783,0.919550767,12750,13440,10410.15625
-21.38557749,-296521,128,-23.37476413,-324102,128,-65513,-4.724904266,0.895462143,12416,14080,10429.6875
-21.34966092,-296023,128,-23.33769361,-323588,128,-61444,-4.431441358,1.034584765,14345,14720,10449.21875
-21.46289187,-297593,128,-23.45049184,-325152,128,-63264,-4.562702723,1.172409197,16256,15360,10468.75
-21.33949177,-295882,128,-23.32824568,-323457,128,-65100,-4.695118033,1.042013293,14448,16000,10488.28125
-21.36148886,-296187,128,-23.35024278,-323762,128,-61441,-4.431224994,1.177529833,16327,16640,10507.8125
-21.42473953,-297064,128,-23.41378193,-324643,128,-61696,-4.449616009,1.034512643,14344,17280,10527.34375
-21.34324209,-295934,128,-23.32954387,-323475,128,-61329,-4.423147371,1.107788218,15360,17920,10546.875
-21.31742255,-295576,128,-23.30336372,-323112,128,-60929,-4.39429872,1.112331881,15423,18560,10566.40625
-21.32867352,-295732,128,-23.31562439,-323282,128,-61426,-4.430143169,1.160869737,16096,19200,10585.9375
-21.41875344,-296981,128,-23.40613704,-324537,128,-63897,-4.608355714,1.180414698,16367,19840,10605.46875
-21.4259656,-297081,128,-23.4139983,-324646,128,-65472,-4.721947279,1.181568644,16383,20480,10625
-21.4489724,-297400,128,-23.43657237,-324959,128,-61441,-4.431224994,1.151638168,15968,21120,10644.53125
-21.41990738,-296997,128,-23.40714674,-324551,128,-61502,-4.435624413,1.177024982,16320,21760,10664.0625
-21.3152589,-295546,128,-23.30242614,-323099,128,-65035,-4.690430127,2.303492701,31939,22400,10683.59375
-21.43202382,-297165,128,-23.4186862,-324711,128,-65402,-4.716898765,1.036243562,14368,23040,10703.125
-21.43202382,-297165,128,-23.4193353,-324720,128,-64624,-4.660788138,1.18048682,16368,23680,10722.65625
-21.40050666,-296728,128,-23.388323,-324290,128,-61440,-4.431152872,1.17695286,16319,24320,10742.1875
-21.39841514,-296699,128,-23.38738541,-324277,128,-62397,-4.500173271,1.034007792,14337,24960,10761.71875
-21.41702252,-296957,128,-23.40455036,-324515,128,-61860,-4.461443956,1.034007792,14337,25600,10781.25
-21.32672624,-295705,128,-23.31468681,-323269,128,-64576,-4.6573263,1.167721292,16191,26240,10800.78125
-21.33177475,-295775,128,-23.31915835,-323331,128,-65283,-4.708316291,1.107788218,15360,26880,10820.3125
-21.43901961,-297262,128,-23.42654746,-324820,128,-62266,-4.490725337,1.038551454,14400,27520,10839.84375
-21.43894749,-297261,128,-23.42488866,-324797,128,-65535,-4.726490942,0.886446939,12291,28160,10859.375
-21.3542767,-296087,128,-23.34245364,-323654,128,-65489,-4.723173347,0.905775536,12559,28800,10878.90625
-21.33242385,-295784,128,-23.32052866,-323350,128,-59142,-4.265417369,1.154523033,16008,29440,10898.4375
-21.37605743,-296389,128,-23.36286406,-323937,128,-61921,-4.465843375,1.038046603,14393,30080,10917.96875
-21.26989439,-294917,128,-23.25713375,-322471,128,-58247,-4.200868511,1.181280158,16379,30720,10937.5
-21.38557749,-296521,128,-23.37324958,-324081,128,-61501,-4.435552291,1.109447015,15383,31360,10957.03125
-21.39971333,-296717,128,-23.38774602,-324282,128,-63493,-4.579218576,1.107716096,15359,32000,10976.5625
-21.41377704,-296912,128,-23.40036731,-324457,128,-61705,-4.450265104,1.111250056,15408,32640,10996.09375
-21.45055907,-297422,128,-23.43750995,-324972,128,-62401,-4.500461757,1.177169225,16322,33280,11015.625
-21.3552864,-296101,128,-23.3433191,-323666,128,-61505,-4.435840778,1.038551454,14400,33920,11035.15625
-21.37367742,-296356,128,-23.36178224,-323922,128,-61952,-4.468079146,1.040715103,14430,34560,11054.6875
-21.41695039,-296956,128,-23.4036849,-324503,128,-62355,-4.497144162,1.03393567,14336,35200,11074.21875
-21.42560499,-297076,128,-23.41327708,-324636,128,-63008,-4.544239586,0.887096034,12300,35840,11093.75
-21.38774114,-296551,128,-23.3743314,-324096,128,-62216,-4.487119256,1.043167239,14464,36480,11113.28125
-21.38997691,-296582,128,-23.37837021,-324152,128,-63544,-4.582896779,1.181568644,16383,37120,11132.8125
-21.35240154,-296061,128,-23.33920817,-323609,128,-65473,-4.722019401,1.180342577,16366,37760,11152.34375
-21.47724408,-297792,128,-23.46484404,-325351,128,-63464,-4.577127049,1.162023683,16112,38400,11171.875
-21.36999921,-296305,128,-23.3583204,-323874,128,-61511,-4.436273508,1.179260752,16351,39040,11191.40625
-21.4783259,-297807,128,-23.46650284,-325374,128,-65536,-4.726563063,1.175943157,16305,39680,11210.9375
-21.47479194,-297758,128,-23.46311312,-325327,128,-62991,-4.543013518,1.179332874,16352,40320,11230.46875
-21.39791028,-296692,128,-23.38587086,-324256,128,-61960,-4.468656119,1.16368248,16135,40960,11250
-21.40274243,-296759,128,-23.39048664,-324320,128,-62160,-4.483080445,1.03393567,14336,41600,11269.53125
-21.34980516,-296025,128,-23.33747725,-323585,128,-65506,-4.724399415,1.051749712,14583,42240,11289.0625
-21.39098661,-296596,128,-23.37663929,-324128,128,-65296,-4.709253873,1.069419511,14828,42880,11308.59375
-21.3819714,-296471,128,-23.37137441,-324055,128,-61896,-4.464040335,0.923084727,12799,43520,11328.125
-21.34410755,-295946,128,-23.33336631,-323528,128,-65480,-4.722524252,1.181496523,16382,44160,11347.65625
-21.36437373,-296227,128,-23.35449795,-323821,128,-63613,-4.587873171,1.179044387,16348,44800,11367.1875
-21.36033492,-296171,128,-23.34923307,-323748,128,-61442,-4.431297115,1.179116509,16349,45440,11386.71875
-21.45906943,-297540,128,-23.44912153,-325133,128,-65037,-4.690574371,0.896327602,12428,46080,11406.25
-21.33956389,-295883,128,-23.32781295,-323451,128,-65474,-4.722091522,1.171255251,16240,46720,11425.78125
-21.36646525,-296256,128,-23.35485856,-323826,128,-63730,-4.596311402,0.567741462,7872,47360,11445.3125
-21.45560759,-297492,128,-23.44443362,-325068,128,-65409,-4.717403617,1.110456718,15397,48000,11464.84375
-21.32636563,-295700,128,-23.31540803,-323279,128,-61439,-4.43108075,1.180414698,16367,48640,11484.375
-21.44803482,-297387,128,-23.43686085,-324963,128,-64398,-4.64448865,1.181424401,16381,49280,11503.90625
-21.38867872,-296564,128,-23.37649505,-324126,128,-61470,-4.433316521,1.03480113,14348,49920,11523.4375
-21.45308333,-297457,128,-23.44089966,-325019,128,-63487,-4.578785846,0.886230574,12288,50560,11542.96875
-21.38016836,-296446,128,-23.3679847,-324008,128,-61921,-4.465843375,1.034079913,14338,51200,11562.5
-21.358604,-296147,128,-23.3453385,-323694,128,-65512,-4.724832144,1.055572159,14636,51840,11582.03125
-21.35622398,-296114,128,-23.34519426,-323692,128,-63728,-4.596167159,1.034512643,14344,52480,11601.5625
-21.31489829,-295541,128,-23.30444554,-323127,128,-65335,-4.712066616,1.135699288,15747,53120,11621.09375
-21.44399601,-297331,128,-23.43217295,-324898,128,-62464,-4.50500542,1.03393567,14336,53760,11640.625
-21.43570202,-297216,128,-23.42409532,-324786,128,-64658,-4.663240273,0.941619985,13056,54400,11660.15625
-21.3976218,-296688,128,-23.38529389,-324248,128,-62356,-4.497216284,1.03393567,14336,55040,11679.6875
-21.29513696,-295267,128,-23.28237632,-322821,128,-60421,-4.357660932,1.146806019,15901,55680,11699.21875
-21.4719792,-297719,128,-23.45986765,-325282,128,-61665,-4.447380238,1.126828328,15624,56320,11718.75
-21.32939474,-295742,128,-23.31822077,-323318,128,-65150,-4.698724115,1.18048682,16368,56960,11738.28125
-21.47645074,-297781,128,-23.46397858,-325339,128,-63068,-4.548566884,1.181280158,16379,57600,11757.8125
-21.4349808,-297206,128,-23.4213547,-324748,128,-64288,-4.636555271,1.035089616,14352,58240,11777.34375
-21.38211565,-296473,128,-23.36856167,-324016,128,-63552,-4.583473752,1.050595766,14567,58880,11796.875
-21.41154127,-296881,128,-23.39769881,-324420,128,-63567,-4.584555576,1.038479333,14399,59520,11816.40625
-21.32997171,-295750,128,-23.31793229,-323314,128,-57984,-4.181900523,1.148969668,15931,60160,11835.9375
-21.25914827,-294768,128,-23.24624339,-322320,128,-58248,-4.200940633,0.017309191,240,60800,11855.46875
-21.30754188,-295439,128,-23.29442064,-322988,128,-57840,-4.171515008,1.143560546,15856,61440,11875
-21.35434882,-296088,128,-23.34216515,-323650,128,-63585,-4.585853766,1.034945373,14350,62080,11894.53125
-21.26563922,-294858,128,-23.25273433,-322410,128,-65282,-4.70824417,1.145796316,15887,62720,11914.0625
-21.40288668,-296761,128,-23.39048664,-324320,128,-62432,-4.502697528,1.179549239,16355,63360,11933.59375
-21.26441315,-294841,128,-23.25302282,-322414,128,-64767,-4.671101531,1.151638168,15968,64000,11953.125
-21.40642064,-296810,128,-23.39474182,-324379,128,-62431,-4.502625406,1.172409197,16256,64640,11972.65625
-21.41060369,-296868,128,-23.39791517,-324423,128,-61895,-4.463968213,1.03393567,14336,65280,11992.1875
-21.27176956,-294943,128,-23.25915316,-322499,128,-65505,-4.724327293,1.180558941,16369,384,12011.71875
-21.232896,-294404,128,-23.22078445,-321967,128,-64943,-4.683794938,0.01817465,252,1024,12031.25
-21.38939993,-296574,128,-23.37656717,-324127,128,-61472,-4.433460764,1.179332874,16352,1664,12050.78125
-21.22799173,-294336,128,-23.21681776,-321912,128,-65408,-4.717331495,0.004615784,64,2304,12070.3125
-21.39307814,-296625,128,-23.38096659,-324188,128,-59377,-4.282365952,1.163393994,16131,2944,12089.84375
-21.27833262,-295034,128,-23.26571623,-322590,128,-65032,-4.690213763,1.177529833,16327,3584,12109.375
-21.27710656,-295017,128,-23.26398531,-322566,128,-64513,-4.652782637,1.174644968,16287,4224,12128.90625
-21.24645486,-294592,128,-23.2352809,-322168,128,-57400,-4.139781492,0.006923676,96,4864,12148.4375
-21.35773854,-296135,128,-23.34339122,-323667,128,-61465,-4.432955913,1.070284971,14840,5504,12167.96875
-21.30465702,-295399,128,-23.28511694,-322859,128,-57403,-4.139997857,1.165197035,16156,6144,12187.5
-21.33235172,-295783,128,-23.32139412,-323362,128,-65409,-4.717403617,1.125746504,15609,6784,12207.03125
-21.33855418,-295869,128,-23.32846204,-323460,128,-63549,-4.583257387,2.16E-04,3,7424,12226.5625
-21.26499012,-294849,128,-23.25388828,-322426,128,-65536,-4.726563063,0.004543663,63,8064,12246.09375
-21.23592511,-294446,128,-23.22525599,-322029,128,-64705,-4.66662999,0.017309191,240,8704,12265.625
-21.26643256,-294869,128,-23.25533071,-322446,128,-64385,-4.643551069,7.21E-05,1,9344,12285.15625
-21.24746457,-294606,128,-23.23347786,-322143,128,-57471,-4.144902127,0.003606081,50,9984,12304.6875
-21.40714185,-296820,128,-23.39416485,-324371,128,-65283,-4.708316291,1.043167239,14464,10624,12324.21875
-21.38348596,-296492,128,-23.37123017,-324053,128,-63712,-4.595013213,1.052110321,14588,11264,12343.75
-21.22517898,-294297,128,-23.21083167,-321829,128,-63879,-4.607057525,0.009159447,127,11904,12363.28125
-21.37187438,-296331,128,-23.35947434,-323890,128,-65298,-4.709398116,1.079805026,14972,12544,12382.8125
-21.21486559,-294154,128,-23.20232132,-321711,128,-65529,-4.726058212,1.149546641,15939,13184,12402.34375
-21.18031933,-293675,128,-23.16669323,-321217,128,-61953,-4.468151268,0.017309191,240,13824,12421.875
-21.21349528,-294135,128,-23.1999413,-321678,128,-65533,-4.726346699,0.065197952,904,14464,12441.40625
-21.24825791,-294617,128,-23.23607424,-322179,128,-65476,-4.722235766,0.00396669,55,15104,12460.9375
-21.2959303,-295278,128,-23.28309754,-322831,128,-64528,-4.653864462,1.173707387,16274,15744,12480.46875
-21.36148886,-296187,128,-23.34858398,-323739,128,-63631,-4.589171361,1.172481319,16257,16384,12500
-21.42510014,-297069,128,-23.41291647,-324631,128,-61472,-4.433460764,1.172625562,16259,17024,12519.53125
-21.28107325,-295072,128,-23.26852897,-322629,128,-57349,-4.136103289,1.170101305,16224,17664,12539.0625
-21.33105353,-295765,128,-23.31894199,-323328,128,-65536,-4.726563063,1.108870042,15375,18304,12558.59375
-21.32485107,-295679,128,-23.31310014,-323247,128,-65533,-4.726346699,1.125097409,15600,18944,12578.125
-21.35319487,-296072,128,-23.34101121,-323634,128,-61458,-4.432451061,1.061053403,14712,19584,12597.65625
-21.3869478,-296540,128,-23.37526898,-324109,128,-65288,-4.7086769,1.04367209,14471,20224,12617.1875
-21.30920068,-295462,128,-23.29680065,-323021,128,-57829,-4.17072167,1.177024982,16320,20864,12636.71875
-21.2189044,-294210,128,-23.20599952,-321762,128,-63714,-4.595157456,0.065702804,911,21504,12656.25
-21.27515927,-294990,128,-23.26304773,-322553,128,-63997,-4.615567877,1.172625562,16259,22144,12675.78125
-21.24674335,-294596,128,-23.23506453,-322165,128,-65152,-4.698868358,0.036637787,508,22784,12695.3125
-21.39026539,-296586,128,-23.38017325,-324177,128,-57424,-4.141512411,1.181568644,16383,23424,12714.84375
-21.29463211,-295260,128,-23.28533331,-322862,128,-65344,-4.712715711,1.181496523,16382,24064,12734.375
-21.31432132,-295533,128,-23.30408493,-323122,128,-65458,-4.720937576,1.117019786,15488,24704,12753.90625
-21.41933041,-296989,128,-23.40916615,-324579,128,-62436,-4.502986014,1.181280158,16379,25344,12773.4375
-21.30299822,-295376,128,-23.29117516,-322943,128,-65536,-4.726563063,1.148753303,15928,25984,12792.96875
-21.37548046,-296381,128,-23.36409013,-323954,128,-61441,-4.431224994,1.034152035,14339,26624,12812.5
-21.28439084,-295118,128,-23.27220717,-322680,128,-65032,-4.690213763,1.163321872,16130,27264,12832.03125
-21.47017616,-297694,128,-23.45856946,-325264,128,-62978,-4.542075937,1.17471709,16288,27904,12851.5625
-21.38723628,-296544,128,-23.37562959,-324114,128,-65042,-4.690934979,1.179332874,16352,28544,12871.09375
-21.3189371,-295597,128,-23.30689768,-323161,128,-61450,-4.431874088,1.035017495,14351,29184,12890.625
-21.44147175,-297296,128,-23.4293602,-324859,128,-64640,-4.661942084,0.958929176,13296,29824,12910.15625
-21.15406706,-293311,128,-23.13921489,-320836,128,-57412,-4.140646951,7.21E-05,1,30464,12929.6875
-21.29210786,-295225,128,-23.28057328,-322796,128,-61434,-4.430720142,1.177529833,16327,31104,12949.21875
-21.36076765,-296177,128,-23.34973792,-323755,128,-65471,-4.721875158,1.179549239,16355,31744,12968.75
-21.30480126,-295401,128,-23.2919685,-322954,128,-57742,-4.164447089,1.172914049,16263,32384,12988.28125
-21.43555777,-297214,128,-23.42337411,-324776,128,-65536,-4.726563063,0.886230574,12288,33024,13007.8125
-21.43534141,-297211,128,-23.42524927,-324802,128,-64639,-4.661869962,0.893154251,12384,33664,13027.34375
-21.39480905,-296649,128,-23.38240902,-324208,128,-61960,-4.468656119,1.052615172,14595,34304,13046.875
-21.33148626,-295771,128,-23.32024018,-323346,128,-61185,-4.412761857,1.110600962,15399,34944,13066.40625
-21.37136953,-296324,128,-23.35810403,-323871,128,-63519,-4.581093738,1.043022995,14462,35584,13085.9375
-21.43534141,-297211,128,-23.42164319,-324752,128,-63216,-4.559240885,0.905198563,12551,36224,13105.46875
-21.32182197,-295637,128,-23.30906133,-323191,128,-58368,-4.209595228,1.165701886,16163,36864,13125
-21.22626081,-294312,128,-23.2139329,-321872,128,-65512,-4.724832144,0.041542058,576,37504,13144.53125
-21.18075206,-293681,128,-23.16827991,-321239,128,-65535,-4.726490942,0.018391015,255,38144,13164.0625
-21.35478155,-296094,128,-23.34187667,-323646,128,-63520,-4.58116586,1.03393567,14336,38784,13183.59375
-21.31078736,-295484,128,-23.29903642,-323052,128,-65017,-4.689131938,1.143560546,15856,39424,13203.125
-21.38218777,-296474,128,-23.37130229,-324054,128,-63942,-4.611601187,1.144065397,15863,40064,13222.65625
-21.4002903,-296725,128,-23.38752966,-324279,128,-65075,-4.693314993,1.124736801,15595,40704,13242.1875
-21.3242741,-295671,128,-23.31122497,-323221,128,-60929,-4.39429872,1.164259453,16143,41344,13261.71875
-21.3115807,-295495,128,-23.29845945,-323044,128,-59380,-4.282582317,1.181568644,16383,41984,13281.25
-21.38240413,-296477,128,-23.37043683,-324042,128,-61902,-4.464473064,1.051461226,14579,42624,13300.78125
-21.44724148,-297376,128,-23.43476932,-324934,128,-62590,-4.514092745,0.893154251,12384,43264,13320.3125
-21.32066802,-295621,128,-23.30992679,-323203,128,-65521,-4.725481239,1.12646772,15619,43904,13339.84375
-21.40180485,-296746,128,-23.38897209,-324299,128,-61692,-4.449327522,1.036171441,14367,44544,13359.375
-21.29874305,-295317,128,-23.28778545,-322896,128,-60928,-4.394226598,1.153585452,15995,45184,13378.90625
-21.46043974,-297559,128,-23.44897729,-325131,128,-64577,-4.657398421,1.043022995,14462,45824,13398.4375
-21.53847534,-298641,128,-23.52694077,-326212,128,-64577,-4.657398421,1.043022995,14462,46464,13417.96875
-21.48373502,-297882,144,-23.47162348,-325445,128,-262144,-18.90625225,0.286394988,3971,47744,13457.03125
-21.48193198,-297857,128,-23.46982044,-325420,128,-65054,-4.691800438,1.181568644,16383,48384,13476.5625
-21.45914155,-297541,128,-23.44710212,-325105,128,-65021,-4.689420425,0.895390021,12415,49024,13496.09375
-21.46678644,-297647,128,-23.45582884,-325226,128,-65535,-4.726490942,0.886735426,12295,49664,13515.625
-21.47378224,-297744,128,-23.46239191,-325317,128,-65536,-4.726563063,1.180270455,16365,50304,13535.15625
-21.46188217,-297579,128,-23.45099669,-325159,128,-65409,-4.717403617,1.178106806,16335,50944,13554.6875
-21.4516409,-297437,128,-23.43960147,-325001,128,-65297,-4.709325994,0.886230574,12288,51584,13574.21875
-21.4429863,-297317,128,-23.43174022,-324892,128,-64781,-4.672111234,0.895534265,12417,52224,13593.75
-21.41370492,-296911,128,-23.40123277,-324469,128,-64512,-4.652710516,0.923012605,12798,52864,13613.28125
-21.41738312,-296962,128,-23.40613704,-324537,128,-65521,-4.725481239,1.181568644,16383,53504,13632.8125
-21.41839283,-296976,128,-23.40671401,-324545,128,-61825,-4.458919699,1.148464817,15924,54144,13652.34375
-21.42928319,-297127,128,-23.4170274,-324688,128,-61456,-4.432306818,0.886230574,12288,54784,13671.875
-21.42755227,-297103,128,-23.41551285,-324667,128,-62461,-4.504789055,1.03393567,14336,55424,13691.40625
-21.40490608,-296789,128,-23.39243393,-324347,128,-61555,-4.439446859,1.015544655,14081,56064,13710.9375
-21.25583068,-294722,128,-23.24407974,-322290,128,-65523,-4.725625482,2.247959047,31169,56704,13730.46875
-21.4126231,-296896,128,-23.39942973,-324444,128,-61464,-4.432883791,1.170389792,16228,57344,13750
-21.41406553,-296916,128,-23.39964609,-324447,128,-64384,-4.643478947,1.163249751,16129,57984,13769.53125
-21.41161339,-296882,128,-23.39950185,-324445,128,-65440,-4.719639387,1.177024982,16320,58624,13789.0625
-21.40223758,-296752,128,-23.38976543,-324310,128,-61556,-4.439518981,1.180126212,16363,59264,13808.59375
-21.42336922,-297045,128,-23.41039221,-324596,128,-61946,-4.467646416,1.172409197,16256,59904,13828.125
-21.4126231,-296896,128,-23.39979033,-324449,128,-62145,-4.48199862,1.181424401,16381,60544,13847.65625
-21.4232971,-297044,128,-23.41104131,-324605,128,-62369,-4.498153865,0.90462159,12543,61184,13867.1875
-21.39891999,-296706,128,-23.38630359,-324262,128,-61504,-4.435768656,1.180631063,16370,61824,13886.71875
-21.40057879,-296729,128,-23.38673632,-324268,128,-61933,-4.466708835,1.052110321,14588,62464,13906.25
-21.37288408,-296345,128,-23.36134951,-323916,128,-64959,-4.684948884,1.070357093,14841,63104,13925.78125
-21.37966351,-296439,128,-23.36690287,-323993,128,-64640,-4.661942084,1.070429214,14842,63744,13945.3125
-21.35189669,-296054,128,-23.33863119,-323601,128,-61465,-4.432955913,1.06624616,14784,64384,13964.84375
-21.35644035,-296117,128,-23.34404032,-323676,128,-61440,-4.431152872,1.037397508,14384,65024,13984.375
-21.36906163,-296292,128,-23.35695009,-323855,128,-61216,-4.414997627,1.11586584,15472,128,14003.90625
-21.3836302,-296494,128,-23.36964349,-324031,128,-65344,-4.712715711,1.112259759,15422,768,14023.4375
-21.41803222,-296971,128,-23.40656977,-324543,128,-61668,-4.447596603,1.135699288,15747,1408,14042.96875
-21.41990738,-296997,128,-23.40642552,-324541,128,-61945,-4.467574295,1.181496523,16382,2048,14062.5
-21.43288927,-297177,128,-23.41991227,-324728,128,-62209,-4.486614405,1.167504927,16188,2688,14082.03125
-21.44587117,-297357,128,-23.43397599,-324923,128,-63433,-4.574891278,1.181568644,16383,3328,14101.5625
-21.43022077,-297140,128,-23.41623407,-324677,128,-62979,-4.542148059,1.163249751,16129,3968,14121.09375
-21.44478934,-297342,128,-23.43260568,-324904,128,-63296,-4.565010615,1.179549239,16355,4608,14140.625
-21.41918617,-296987,128,-23.40757947,-324557,128,-62334,-4.495629608,1.14817633,15920,5248,14160.15625
-21.42589348,-297080,128,-23.41349344,-324639,128,-63005,-4.544023221,1.173491022,16271,5888,14179.6875
-21.40368002,-296772,128,-23.3913521,-324332,128,-61949,-4.467862781,1.178683779,16343,6528,14199.21875
-21.41644554,-296949,128,-23.40418975,-324510,128,-62462,-4.504861177,1.179981968,16361,7168,14218.75
-21.4403178,-297280,128,-23.42885535,-324852,128,-63464,-4.577127049,1.181424401,16381,7808,14238.28125
-21.42113345,-297014,128,-23.4090219,-324577,128,-62461,-4.504789055,1.163393994,16131,8448,14257.8125
-21.4473136,-297377,128,-23.436356,-324956,128,-63481,-4.578353116,1.168875238,16207,9088,14277.34375
-21.41017096,-296862,128,-23.39964609,-324447,128,-62322,-4.494764149,1.172337076,16255,9728,14296.875
-21.42257588,-297034,128,-23.41183465,-324616,128,-62408,-4.500966609,0.887312399,12303,10368,14316.40625
-21.43591838,-297219,128,-23.42438381,-324790,128,-63585,-4.585853766,1.034152035,14339,11008,14335.9375
-21.43916386,-297264,128,-23.42560988,-324807,128,-63545,-4.582968901,0.887240277,12302,11648,14355.46875
-21.42207103,-297027,128,-23.40981524,-324588,128,-62433,-4.502769649,1.177241347,16323,12288,14375
-21.41370492,-296911,128,-23.40159338,-324474,128,-62464,-4.50500542,1.181568644,16383,12928,14394.53125
-21.41017096,-296862,128,-23.39856427,-324432,128,-62450,-4.503995717,0.890557872,12348,13568,14414.0625
-21.42315285,-297042,128,-23.41291647,-324631,128,-63491,-4.579074333,1.03393567,14336,14208,14433.59375
-21.42171042,-297022,128,-23.40894978,-324576,128,-61952,-4.468079146,1.181280158,16379,14848,14453.125
-21.38644295,-296533,128,-23.37519686,-324108,128,-61456,-4.432306818,1.181496523,16382,15488,14472.65625
-21.39754968,-296687,128,-23.38716905,-324274,128,-61537,-4.43814867,1.048576361,14539,16128,14492.1875
-21.41485887,-296927,128,-23.40404551,-324508,128,-61937,-4.466997321,1.14904179,15932,16768,14511.71875
-21.42091708,-297011,128,-23.40786796,-324561,128,-62451,-4.504067839,1.159643669,16079,17408,14531.25
-21.44615965,-297361,128,-23.43332689,-324914,128,-63481,-4.578353116,1.172481319,16257,18048,14550.78125
-21.41579645,-296940,128,-23.404334,-324512,128,-63225,-4.559889979,1.18048682,16368,18688,14570.3125
-21.38449566,-296506,128,-23.37281685,-324075,128,-65535,-4.726490942,1.126179233,15615,19328,14589.84375
-21.32679836,-295706,128,-23.31490318,-323272,128,-64516,-4.652999002,1.181352279,16380,19968,14609.375
-21.41666191,-296952,128,-23.40577643,-324532,128,-65458,-4.720937576,1.107788218,15360,20608,14628.90625
-21.44053417,-297283,128,-23.42914384,-324856,128,-61945,-4.467574295,1.181496523,16382,21248,14648.4375
-21.40432911,-296781,128,-23.39236181,-324346,128,-61569,-4.440456562,1.038479333,14399,21888,14667.96875
-21.40245395,-296755,128,-23.39164059,-324336,128,-62258,-4.490148364,1.040787225,14431,22528,14687.5
-21.43974083,-297272,128,-23.42892747,-324853,128,-64516,-4.652999002,0.888466345,12319,23168,14707.03125
-21.3922848,-296614,128,-23.38154356,-324196,128,-61465,-4.432955913,1.036748414,14375,23808,14726.5625
-21.40360789,-296771,128,-23.39308302,-324356,128,-61920,-4.465771254,1.036748414,14375,24448,14746.09375
-21.42308073,-297041,128,-23.41183465,-324616,128,-61442,-4.431297115,0.921065321,12771,25088,14765.625
-21.39877574,-296704,128,-23.38680844,-324269,128,-61696,-4.449616009,0.918541064,12736,25728,14785.15625
-21.36797981,-296277,128,-23.35630099,-323846,128,-65265,-4.707018102,1.048287874,14535,26368,14804.6875
-21.35550277,-296104,128,-23.34404032,-323676,128,-64400,-4.644632893,1.03393567,14336,27008,14824.21875
-21.36430161,-296226,128,-23.35291128,-323799,128,-63494,-4.579290697,1.035305981,14355,27648,14843.75
-21.36177735,-296191,128,-23.35060338,-323767,128,-62336,-4.495773851,1.179837725,16359,28288,14863.28125
-21.37584107,-296386,128,-23.3656768,-323976,128,-63538,-4.582464049,1.172409197,16256,28928,14882.8125
-21.38925569,-296572,128,-23.38010113,-324176,128,-65040,-4.690790736,1.135482923,15744,29568,14902.34375
-21.38413505,-296501,128,-23.37180714,-324061,128,-61948,-4.467790659,1.145219343,15879,30208,14921.875
-21.42315285,-297042,128,-23.41262798,-324627,128,-61457,-4.43237894,1.173491022,16271,30848,14941.40625
-21.38644295,-296533,128,-23.37692778,-324132,128,-61968,-4.469233092,1.179549239,16355,31488,14960.9375
-21.43159109,-297159,128,-23.42178743,-324754,128,-61999,-4.471468862,1.172841927,16262,32128,14980.46875
-21.38485627,-296511,128,-23.37288897,-324076,128,-61748,-4.453366334,1.049946672,14558,32768,15000
-21.4163013,-296947,128,-23.40476673,-324518,128,-61951,-4.468007024,1.181352279,16380,33408,15019.53125
-21.4196189,-296993,128,-23.40858917,-324571,128,-62431,-4.502625406,1.181568644,16383,34048,15039.0625
-21.38817386,-296557,128,-23.37671141,-324129,128,-65426,-4.718629684,1.172409197,16256,34688,15058.59375
-21.41082006,-296871,128,-23.39964609,-324447,128,-65312,-4.710407819,1.16988494,16221,35328,15078.125
-21.37237923,-296338,128,-23.36041193,-323903,128,-61696,-4.449616009,1.181352279,16380,35968,15097.65625
-21.40158849,-296743,128,-23.3893327,-324304,128,-61708,-4.450481468,1.172409197,16256,36608,15117.1875
-21.37367742,-296356,128,-23.36134951,-323916,128,-61441,-4.431224994,1.179260752,16351,37248,15136.71875
-21.37800472,-296416,128,-23.3656768,-323976,128,-61576,-4.440961413,1.166639467,16176,37888,15156.25
-21.37850957,-296423,128,-23.36668651,-323990,128,-61681,-4.448534185,1.036820535,14376,38528,15175.78125
-21.37879805,-296427,128,-23.36769621,-324004,128,-65536,-4.726563063,1.177241347,16323,39168,15195.3125
-21.40173273,-296745,128,-23.39041452,-324319,128,-61983,-4.470314916,1.181568644,16383,39808,15214.84375
-21.42034011,-297003,128,-23.4086613,-324572,128,-65508,-4.724543658,1.177529833,16327,40448,15234.375
-21.37944715,-296436,128,-23.36856167,-324016,128,-61456,-4.432306818,1.164043088,16140,41088,15253.90625
-21.41211825,-296889,128,-23.40180974,-324477,128,-61456,-4.432306818,1.036171441,14367,41728,15273.4375
-21.36235432,-296199,128,-23.35146884,-323779,128,-65058,-4.692088925,1.035594468,14359,42368,15292.96875
-21.36083977,-296178,128,-23.35009853,-323760,128,-65025,-4.689708911,1.03393567,14336,43008,15312.5
-21.34879546,-296011,128,-23.33884756,-323604,128,-63553,-4.583545874,1.062135227,14727,43648,15332.03125
-21.36487858,-296234,128,-23.35384886,-323812,128,-61540,-4.438365035,1.181496523,16382,44288,15351.5625
-21.38463991,-296508,128,-23.37361018,-324086,128,-65465,-4.721442428,1.177024982,16320,44928,15371.09375
-21.37836532,-296421,128,-23.36820106,-324011,128,-61828,-4.459136064,1.163393994,16131,45568,15390.625
-21.40050666,-296728,128,-23.39142423,-324333,128,-61923,-4.465987619,1.179332874,16352,46208,15410.15625
-21.43281715,-297176,128,-23.42286926,-324769,128,-61665,-4.447380238,1.024704102,14208,46848,15429.6875
-21.21306255,-294129,128,-23.20311465,-321722,128,-64511,-4.652638394,0,0,47488,15449.21875
-21.38903932,-296569,128,-23.37873082,-324157,128,-65520,-4.725409117,0.590531896,8188,48128,15468.75
-21.36379675,-296219,128,-23.3539931,-323814,128,-64521,-4.65335961,1.165629764,16162,48768,15488.28125
-21.41918617,-296987,128,-23.40938251,-324582,128,-61969,-4.469305214,1.18048682,16368,49408,15507.8125
-21.43014865,-297139,128,-23.41926317,-324719,128,-65031,-4.690141641,1.164259453,16143,50048,15527.34375
-21.45055907,-297422,128,-23.43988996,-325005,128,-63367,-4.570131251,1.177241347,16323,50688,15546.875
-21.40310304,-296764,128,-23.39272242,-324351,128,-61696,-4.449616009,1.17962136,16356,51328,15566.40625
-21.40865641,-296841,128,-23.39676123,-324407,128,-61951,-4.468007024,1.172409197,16256,51968,15585.9375
-21.40569942,-296800,128,-23.39351575,-324362,128,-63361,-4.569698521,1.18048682,16368,52608,15605.46875
-21.35305063,-296070,128,-23.34072272,-323630,128,-61508,-4.436057143,1.036171441,14367,53248,15625
-21.37540834,-296380,128,-23.36502771,-323967,128,-63490,-4.579002211,1.034007792,14337,53888,15644.53125
-21.41767161,-296966,128,-23.40664189,-324544,128,-62464,-4.50500542,0.92279624,12795,54528,15664.0625
-21.406637,-296813,128,-23.39611213,-324398,128,-61456,-4.432306818,1.04453755,14483,55168,15683.59375
-21.40007393,-296722,128,-23.38918846,-324302,128,-61648,-4.446154171,1.161951561,16111,55808,15703.125
-21.40880065,-296843,128,-23.39777093,-324421,128,-61696,-4.449616009,1.173202535,16267,56448,15722.65625
-21.417311,-296961,128,-23.40613704,-324537,128,-64385,-4.643551069,1.181568644,16383,57088,15742.1875
-21.45524698,-297487,128,-23.44407301,-325063,128,-65440,-4.719639387,1.126179233,15615,57728,15761.71875
-21.49109143,-297984,128,-23.47984534,-325559,128,-262640,-18.94202458,1.144714492,15872,58368,15781.25
-21.42574923,-297078,128,-23.41486376,-324658,128,-65305,-4.709902967,1.158489723,16063,59008,15800.78125
-21.45805972,-297526,128,-23.44666939,-325099,128,-262145,-18.90632438,1.164908548,16152,59648,15820.3125
-21.48222047,-297861,128,-23.47277742,-325461,128,-262984,-18.96683442,1.181568644,16383,60288,15839.84375
-21.48085016,-297842,128,-23.47133499,-325441,128,-262280,-18.9160608,1.179404995,16353,60928,15859.375
-21.45560759,-297492,128,-23.44508272,-325077,128,-262397,-18.92449903,1.180414698,16367,61568,15878.90625
-21.52837831,-298501,128,-23.51792556,-326087,128,-262159,-18.90733408,1.181424401,16381,62208,15898.4375
-21.51618976,-298332,128,-23.50645822,-325928,128,-262152,-18.90682923,1.15394606,16000,62848,15917.96875
-21.4729889,-297733,128,-23.46289676,-325324,128,-262656,-18.94317853,1.18048682,16368,63488,15937.5
-21.46476703,-297619,128,-23.45417004,-325203,128,-262624,-18.94087064,1.147527235,15911,64128,15957.03125
-21.52412314,-298442,128,-23.51244432,-326011,128,-262527,-18.93387484,1.148320573,15922,64768,15976.5625
-21.47161859,-297714,128,-23.45986765,-325282,128,-262337,-18.92017173,1.179404995,16353,65408,15996.09375
-21.50255877,-298143,128,-23.49008661,-325701,128,-264257,-19.05864526,1.179404995,16353,512,16015.625
-21.48409563,-297887,128,-23.47385925,-325476,128,-263165,-18.97988844,1.158561845,16064,1152,16035.15625
-21.44529419,-297349,128,-23.4336875,-324919,128,-262583,-18.93791365,1.153369087,15992,1792,16054.6875
-21.48842293,-297947,128,-23.47861927,-325542,128,-263065,-18.97267627,1.18048682,16368,2432,16074.21875
-21.50248665,-298142,128,-23.49087995,-325712,128,-262176,-18.90856015,1.173274657,16268,3072,16093.75
-21.46620947,-297639,128,-23.45626157,-325232,128,-262672,-18.94433247,1.16498067,16153,3712,16113.28125
-21.56516034,-299011,128,-23.55398638,-326587,128,-266212,-19.19964304,1.179549239,16355,4352,16132.8125
-21.45827609,-297529,128,-23.44703,-325104,128,-262272,-18.91548382,0.886735426,12295,4992,16152.34375
-21.51611763,-298331,128,-23.50487155,-325906,128,-264208,-19.0551113,0.888466345,12319,5632,16171.875
-21.55188996,-298827,128,-23.5400669,-326394,128,-264832,-19.10011519,0.890197264,12343,6272,16191.40625
-21.49130779,-297987,128,-23.48035019,-325566,128,-262145,-18.90632438,1.181496523,16382,6912,16210.9375
-21.48979324,-297966,128,-23.47861927,-325542,128,-264101,-19.04739428,1.110023988,15391,7552,16230.46875
-21.51128549,-298264,128,-23.50018364,-325841,128,-264178,-19.05294765,1.144786614,15873,8192,16250
-21.53191227,-298550,128,-23.52275771,-326154,128,-268513,-19.36559491,1.144786614,15873,8832,16269.53125
-21.53414804,-298581,128,-23.52362317,-326166,128,-269854,-19.46231001,1.180126212,16363,9472,16289.0625
-21.40187697,-296747,128,-23.38839512,-324291,128,-262146,-18.9063965,1.163249751,16129,10112,16308.59375
-21.43094199,-297150,128,-23.41760438,-324696,128,-62496,-4.507313312,0.586204599,8128,10752,16328.125
-21.47955197,-297824,128,-23.46722406,-325384,128,-262208,-18.91086804,1.106634272,15344,11392,16347.65625
-21.52837831,-298501,128,-23.51684374,-326072,128,-268704,-19.37937014,1.14464237,15871,12032,16367.1875
-21.51885826,-298369,128,-23.50595337,-325921,128,-269313,-19.42329221,0.867983802,12035,12672,16386.71875
-21.54612023,-298747,128,-23.53343171,-326302,128,-267136,-19.26628342,1.181568644,16383,13312,16406.25
-21.56992037,-299077,128,-23.55903489,-326657,128,-269313,-19.42329221,0.885725723,12281,13952,16425.78125
-21.52635891,-298473,128,-23.51532918,-326051,128,-265999,-19.18428113,1.162528534,16119,14592,16445.3125
-21.51186246,-298272,128,-23.5000394,-325839,128,-265807,-19.17043378,1.179332874,16352,15232,16464.84375
-21.56984825,-299076,128,-23.55780882,-326640,128,-270090,-19.47933072,1.181568644,16383,15872,16484.375
-21.57244463,-299112,128,-23.56242461,-326704,128,-269328,-19.42437403,1.181352279,16380,16512,16503.90625
-21.52102191,-298399,128,-23.50941521,-325969,128,-265296,-19.13357963,0.89488517,12408,17152,16523.4375
-21.45120817,-297431,128,-23.44089966,-325019,128,-263195,-18.98205209,0.886807547,12296,17792,16542.96875
-21.50263089,-298144,128,-23.49282724,-325739,128,-266169,-19.19654181,0.886374818,12290,18432,16562.5
-21.49282235,-298008,128,-23.48150414,-325582,128,-265469,-19.14605667,1.177241347,16323,19072,16582.03125
-21.49455327,-298032,128,-23.48359567,-325611,128,-267264,-19.27551499,1.107211245,15352,19712,16601.5625
-21.52772922,-298492,128,-23.51720435,-326077,128,-270088,-19.47918647,1.107211245,15352,20352,16621.09375
-21.54965419,-298796,128,-23.53826386,-326369,128,-270080,-19.4786095,1.144714492,15872,20992,16640.625
-21.58953745,-299349,128,-23.5787241,-326930,128,-269425,-19.43136983,0.88161479,12224,21632,16660.15625
-21.59696598,-299452,128,-23.58716233,-327047,128,-270216,-19.48841804,0.884211169,12260,22272,16679.6875
-21.53595108,-298606,128,-23.52564258,-326194,128,-268802,-19.38643806,1.177241347,16323,22912,16699.21875
-21.59321566,-299400,128,-23.58160896,-326970,128,-270141,-19.48300892,0.885653601,12280,23552,16718.75
-21.58376772,-299269,128,-23.57180042,-326834,128,-269553,-19.4406014,0.867406829,12027,24192,16738.28125
-21.56775672,-299047,128,-23.55752034,-326636,128,-269838,-19.46115607,1.163105507,16127,24832,16757.8125
-21.59898539,-299480,128,-23.588749,-327069,128,-270240,-19.49014896,0.871806249,12088,25472,16777.34375
-21.55333239,-298847,128,-23.54345662,-326441,128,-270308,-19.49505323,1.161374588,16103,26112,16796.875
-21.61665518,-299725,128,-23.6064188,-327314,128,-278018,-20.05111099,0.885076628,12272,26752,16816.40625
-21.6750737,-300535,128,-23.66570278,-328136,128,-278514,-20.08688332,0.858463747,11903,27392,16835.9375
-21.60396178,-299549,128,-23.59329266,-327132,128,-270332,-19.49678415,0.886158453,12287,28032,16855.46875
-21.65596147,-300270,128,-23.64406629,-327836,128,-262209,-18.91094016,0.884211169,12260,28672,16875
-21.56573731,-299019,128,-23.55391426,-326586,128,-269440,-19.43245166,0.851612193,11808,29312,16894.53125
-21.56948764,-299071,128,-23.55622215,-326618,128,-277497,-20.01353562,0.881686912,12225,29952,16914.0625
-21.66043301,-300332,128,-23.64882632,-327902,128,-278273,-20.069502,0.851684314,11809,30592,16933.59375
-21.59047503,-299362,128,-23.58059926,-326956,128,-278524,-20.08760453,0.882696615,12239,31232,16953.125
-21.59025867,-299359,128,-23.57980592,-326945,128,-277761,-20.03257573,0.851395828,11805,31872,16972.65625
-21.67175611,-300489,128,-23.661087,-328072,128,-262656,-18.94317853,0.88514875,12273,32512,16992.1875
-21.59876902,-299477,128,-23.59011931,-327088,128,-278528,-20.08789302,0.850386125,11791,33152,17011.71875
-21.64694627,-300145,128,-23.6357723,-327721,128,-262201,-18.91036319,0.87808083,12175,33792,17031.25
-21.66360637,-300376,128,-23.65185543,-327944,128,-262146,-18.9063965,0.8493043,11776,34432,17050.78125
-21.63295467,-299951,128,-23.62358375,-327552,128,-262208,-18.91086804,0.885076628,12272,35072,17070.3125
-21.63634439,-299998,128,-23.62495406,-327571,128,-278401,-20.07873357,0.814685919,11296,35712,17089.84375
-21.69137319,-300761,128,-23.68265136,-328371,128,-262654,-18.94303428,0.737948506,10232,36352,17109.375
-21.63656075,-300001,128,-23.62531467,-327576,128,-278484,-20.08471967,0.851540071,11807,36992,17128.90625
-21.71236059,-301052,128,-23.70284542,-328651,128,-262497,-18.93171119,0.850386125,11791,37632,17148.4375
-21.54828388,-298777,128,-23.53826386,-326369,128,-266225,-19.20058062,1.180991671,16375,38272,17167.96875
-21.51344913,-298294,128,-23.50378972,-325891,128,-262532,-18.93423545,0.886951791,12298,38912,17187.5
-21.58319075,-299261,128,-23.57281012,-326848,128,-270080,-19.4786095,0.88204752,12230,39552,17207.03125
-21.69209441,-300771,128,-23.68164166,-328357,128,-263047,-18.97137808,0.845553976,11724,40192,17226.5625
-21.67867979,-300585,128,-23.66952523,-328189,128,-262333,-18.91988324,0.869354113,12054,40832,17246.09375
-21.57576222,-299158,128,-23.56401128,-326726,128,-278466,-20.08342148,0.876422033,12152,41472,17265.625
-21.61788125,-299742,128,-23.6070679,-327323,128,-262208,-18.91086804,0.877215371,12163,42112,17285.15625
-21.59855266,-299474,128,-23.58896537,-327072,128,-278432,-20.08096934,0.877431736,12166,42752,17304.6875
-21.68733438,-300705,128,-23.67666527,-328288,128,-278275,-20.06964625,0.874691114,12128,43392,17324.21875
-21.71733698,-301121,128,-23.70681211,-328706,128,-262145,-18.90632438,0.738453357,10239,44032,17343.75
-21.60259147,-299530,128,-23.59221084,-327117,128,-278477,-20.08421482,0.886086331,12286,44672,17363.28125
-21.65314873,-300231,128,-23.64168628,-327803,128,-277988,-20.04894734,1.145868438,15888,45312,17382.8125
-21.61716004,-299732,128,-23.60476,-327291,128,-278048,-20.05327464,0.880172358,12204,45952,17402.34375
-21.64276321,-300087,128,-23.63252683,-327676,128,-278080,-20.05558253,0.876349911,12151,46592,17421.875
-21.58210892,-299246,128,-23.57252164,-326844,128,-277692,-20.02759934,0.867767437,12032,47232,17441.40625
-21.62213643,-299801,128,-23.61168368,-327387,128,-278290,-20.07072807,0.88161479,12224,47872,17460.9375
-21.74517593,-301507,128,-23.73566076,-329106,128,-264189,-19.05374098,0.702104056,9735,48512,17480.46875
-21.64225836,-300080,128,-23.63238259,-327674,128,-278525,-20.08767665,0.885076628,12272,49152,17500
-21.73955044,-301429,128,-23.72989103,-329026,128,-264129,-19.04941369,0.729870883,10120,49792,17519.53125
-21.65531238,-300261,128,-23.64298447,-327821,128,-262288,-18.91663777,0.869714721,12059,50432,17539.0625
-21.7360886,-301381,128,-23.725131,-328960,128,-262432,-18.92702328,0.878152952,12176,51072,17558.59375
-21.7874392,-302093,128,-23.7744622,-329644,128,-262544,-18.93510091,0.66373535,9203,51712,17578.125
-21.67132338,-300483,128,-23.6604379,-328063,128,-262149,-18.90661286,0.851540071,11807,52352,17597.65625
-21.76169178,-301736,128,-23.75051782,-329312,128,-264192,-19.05395735,0.721144166,9999,52992,17617.1875
-21.80467627,-302332,128,-23.79299745,-329901,128,-263140,-18.9780854,0.660129268,9153,53632,17636.71875
-21.77236578,-301884,128,-23.76133606,-329462,128,-264184,-19.05338038,0.678953013,9414,54272,17656.25
-21.7110624,-301034,128,-23.69880661,-328595,128,-262529,-18.93401908,0.812810756,11270,54912,17675.78125
-21.72404429,-301214,128,-23.7127982,-328789,128,-264136,-19.04991854,0.702681029,9743,55552,17695.3125
-21.69115683,-300758,128,-23.67947801,-328327,128,-263153,-18.97902298,0.846996408,11744,56192,17714.84375
-21.70752844,-300985,128,-23.6951284,-328544,128,-262653,-18.94296216,0.701599205,9728,56832,17734.375
-21.70428296,-300940,128,-23.69332536,-328519,128,-262468,-18.92961966,0.816272594,11318,57472,17753.90625
-21.71026906,-301023,128,-23.69959995,-328606,128,-262146,-18.9063965,0.851612193,11808,58112,17773.4375
-21.77229366,-301883,128,-23.76249001,-329478,128,-262594,-18.93870699,0.671885094,9316,58752,17792.96875
-21.85631536,-303048,128,-23.84672807,-330646,128,-262558,-18.93611061,0.592551302,8216,59392,17812.5
-21.82609639,-302629,128,-23.81557152,-330214,128,-262654,-18.94303428,0.624933913,8665,60032,17832.03125
-21.81816302,-302519,128,-23.80785451,-330107,128,-262265,-18.91497897,0.591397356,8200,60672,17851.5625
-21.78895376,-302114,128,-23.77806828,-329694,128,-262330,-18.91966688,0.738453357,10239,61312,17871.09375
-21.82501457,-302614,128,-23.81326363,-330182,128,-262397,-18.92449903,0.627169684,8696,61952,17890.625
-21.67882403,-300587,128,-23.66700097,-328154,128,-264041,-19.04306698,0.720134463,9985,62592,17910.15625
-21.77438519,-301912,128,-23.76169667,-329467,128,-262399,-18.92464327,0.609211398,8447,63232,17929.6875
-21.85335837,-303007,128,-23.84045349,-330559,128,-263041,-18.97094535,0.597744059,8288,63872,17949.21875
-21.75346991,-301622,128,-23.74128625,-329184,128,-264192,-19.05395735,0.699291313,9696,64512,17968.75
-21.70983633,-301017,128,-23.6977969,-328581,128,-262145,-18.90632438,0.812882878,11271,65152,17988.28125
-21.75094566,-301587,128,-23.73933896,-329157,128,-264168,-19.05222643,0.903539765,12528,256,18007.8125
-21.6543748,-300248,128,-23.64211901,-327809,128,-262273,-18.91555594,0.885942088,12284,896,18027.34375
-21.70586964,-300962,128,-23.69447931,-328535,128,-262150,-18.90668498,0.591325234,8199,1536,18046.875
-21.75231597,-301606,128,-23.73905048,-329153,128,-262369,-18.92247962,0.670009931,9290,2176,18066.40625
-21.74156985,-301457,128,-23.72801587,-329000,128,-264092,-19.04674519,0.709676827,9840,2816,18085.9375
-21.82991884,-302682,128,-23.81499455,-330206,128,-266240,-19.20166245,0.61901994,8583,3456,18105.46875
-21.75289294,-301614,128,-23.74056503,-329174,128,-262213,-18.91122865,0.697127664,9666,4096,18125
-21.7490705,-301561,128,-23.73782441,-329136,128,-264104,-19.04761065,0.702104056,9735,4736,18144.53125
-21.888121,-303489,128,-23.8781731,-331082,128,-265314,-19.13487782,0.29533807,4095,5376,18164.0625
-21.79328105,-302174,128,-23.78203497,-329749,128,-265849,-19.17346289,0.597960424,8291,6016,18183.59375
-21.83258734,-302719,128,-23.82292793,-330316,128,-265738,-19.16545739,0.618515088,8576,6656,18203.125
-21.84607409,-302906,128,-23.83627043,-330501,128,-264673,-19.08864785,0.627241805,8697,7296,18222.65625
-21.8014308,-302287,128,-23.79090593,-329872,128,-262274,-18.91562807,0.887456642,12305,7936,18242.1875
-21.8147733,-302472,128,-23.80533025,-330072,128,-262152,-18.90682923,0.654864389,9080,8576,18261.71875
-21.73421344,-301355,128,-23.72318372,-328933,128,-262369,-18.92247962,0.71688899,9940,9216,18281.25
-21.77034638,-301856,128,-23.75917241,-329432,128,-263168,-18.9801048,0.599474978,8312,9856,18300.78125
-21.74164197,-301458,128,-23.73039588,-329033,128,-262593,-18.93863487,0.634814576,8802,10496,18320.3125
-21.74647412,-301525,128,-23.73623773,-329114,128,-264186,-19.05352462,0.706142867,9791,11136,18339.84375
-21.81686483,-302501,128,-23.8048254,-330065,128,-263145,-18.978446,0.590820383,8192,11776,18359.375
-21.88069247,-303386,128,-23.86966275,-330964,128,-265409,-19.14172937,0.293607151,4071,12416,18378.90625
-21.86691724,-303195,128,-23.85545479,-330767,128,-266192,-19.19820061,0.594859194,8248,13056,18398.4375
-21.7810925,-302005,128,-23.7701349,-329584,128,-262976,-18.96625745,0.665754755,9231,13696,18417.96875
-21.91336357,-303839,128,-23.90175687,-331409,128,-264089,-19.04652882,0.240092902,3329,14336,18437.5
-21.83864556,-302803,128,-23.82703886,-330373,128,-262149,-18.90661286,0.626376346,8685,14976,18457.03125
-21.9421401,-304238,128,-23.93175947,-331825,128,-266289,-19.20519641,0.286178623,3968,15616,18476.5625
-21.9218018,-303956,128,-23.9091854,-331512,128,-265277,-19.13220932,0.265479716,3681,16256,18496.09375
-21.78239069,-302023,128,-23.76977429,-329579,128,-263039,-18.97080111,0.668783864,9273,16896,18515.625
-21.82155273,-302566,128,-23.81109998,-330152,128,-264192,-19.05395735,0.221774008,3075,17536,18535.15625
-21.84982441,-302958,128,-23.83886681,-330537,128,-262969,-18.9657526,0.592695545,8218,18176,18554.6875
-21.8287649,-302666,128,-23.81650911,-330227,128,-262641,-18.9420967,0.622193291,8627,18816,18574.21875
-21.95728564,-304448,128,-23.94575106,-332019,128,-269841,-19.46137243,0.275793108,3824,19456,18593.75
-21.84116982,-302838,128,-23.82970736,-330410,128,-262394,-18.92428266,0.627602414,8702,20096,18613.28125
-21.85768567,-303067,128,-23.84542988,-330628,128,-264580,-19.08194054,0.590892505,8193,20736,18632.8125
-21.83547221,-302759,128,-23.82437036,-330336,128,-262784,-18.9524101,0.623707846,8648,21376,18652.34375
-21.85047351,-302967,128,-23.84002076,-330553,128,-269321,-19.42386918,0.293246543,4066,22016,18671.875
-21.78945861,-302121,128,-23.77806828,-329694,128,-263166,-18.97996056,0.627674535,8703,22656,18691.40625
-21.86756633,-303204,128,-23.856176,-330777,128,-262151,-18.90675711,0.262306364,3637,23296,18710.9375
-21.95389592,-304401,128,-23.94301044,-331981,128,-269413,-19.43050437,0.275720987,3823,23936,18730.46875
-21.83496736,-302752,128,-23.82458673,-330339,128,-262180,-18.90884863,0.598898005,8304,24576,18750
-21.93103336,-304084,128,-23.92036425,-331667,128,-264177,-19.05287553,0.295121705,4092,25216,18769.53125
-21.84282861,-302861,128,-23.83338557,-330461,128,-265925,-19.17894413,0.594498586,8243,25856,18789.0625
-21.83136127,-302702,128,-23.8208364,-330287,128,-265999,-19.18428113,0.619669034,8592,26496,18808.59375
-21.96658933,-304577,128,-23.95548748,-332154,128,-262201,-18.91036319,0.26302758,3647,27136,18828.125
-21.77892885,-301975,128,-23.76609609,-329528,128,-262917,-18.96200227,1.168009778,16195,27776,18847.65625
-21.91271447,-303830,128,-23.90146838,-331405,128,-265741,-19.16567375,0.551586217,7648,28416,18867.1875
-21.84088133,-302834,128,-23.82891403,-330399,128,-262160,-18.9074062,0.590820383,8192,29056,18886.71875
-21.97012329,-304626,128,-23.95873296,-332199,128,-262208,-18.91086804,0.258700282,3587,29696,18906.25
-21.92079209,-303942,128,-23.90947389,-331516,128,-266233,-19.20115759,0.239588051,3322,30336,18925.78125
-21.86468147,-303164,128,-23.85127173,-330709,128,-263105,-18.97556114,0.294688975,4086,30976,18945.3125
-21.90153562,-303675,128,-23.8898568,-331244,128,-262160,-18.9074062,0.291299259,4039,31616,18964.84375
-21.98137426,-304782,128,-23.96947908,-332348,128,-263874,-19.03102267,0.281274352,3900,32256,18984.375
-21.91228174,-303824,128,-23.89879988,-331368,128,-266240,-19.20166245,0.278101001,3856,32896,19003.90625
-21.89223193,-303546,128,-23.87990402,-331106,128,-266210,-19.1994988,0.263099702,3648,33536,19023.4375
-21.88574098,-303456,128,-23.87197064,-330996,128,-266226,-19.20065274,0.294256245,4080,34176,19042.96875
-21.968176,-304599,128,-23.95483839,-332145,128,-262265,-18.91497897,0.288486515,4000,34816,19062.5
-21.90398775,-303709,128,-23.89101075,-331260,128,-262649,-18.94267368,0.293318664,4067,35456,19082.03125
-21.81657634,-302497,128,-23.80338297,-330045,128,-264509,-19.07681991,0.628828481,8719,36096,19101.5625
-21.92973518,-304066,128,-23.9165418,-331614,128,-262621,-18.94065427,0.281490717,3903,36736,19121.09375
-21.85054563,-302968,128,-23.83764074,-330520,128,-262164,-18.90769469,0.591397356,8200,37376,19140.625
-22.02356541,-305367,128,-24.01015568,-332912,128,-262664,-18.9437555,0.166600962,2310,38016,19160.15625
-21.87852882,-303356,128,-23.86627303,-330917,128,-263173,-18.98046541,0.276947054,3840,38656,19179.6875
-22.02147389,-305338,128,-24.0075593,-332876,128,-267280,-19.27666894,0.129674689,1798,39296,19199.21875
-21.93723582,-304170,128,-23.92490791,-331730,128,-263154,-18.9790951,0.293030178,4063,39936,19218.75
-22.01123262,-305196,128,-23.99868834,-332753,128,-267257,-19.27501014,0.143089311,1984,40576,19238.28125
-22.05198134,-305761,128,-24.03986979,-333324,128,-263140,-18.9780854,0.147632974,2047,41216,19257.8125
-21.93045639,-304076,128,-23.91675817,-331617,128,-264161,-19.05172158,0.225524333,3127,41856,19277.34375
-22.02147389,-305338,128,-24.0075593,-332876,128,-266300,-19.20598974,0.229635266,3184,42496,19296.875
-21.96435356,-304546,128,-23.95116019,-332094,128,-262205,-18.91065167,0.295265948,4094,43136,19316.40625
-21.88429855,-303436,128,-23.87060033,-330977,128,-266209,-19.19942667,0.289640461,4016,43776,19335.9375
-22.04339886,-305642,128,-24.03193641,-333214,128,-263581,-19.00989103,0.138906257,1926,44416,19355.46875
-21.88069247,-303386,128,-23.86778758,-330938,128,-265273,-19.13192083,0.262955459,3646,45056,19375
-21.89129435,-303533,128,-23.87867795,-331089,128,-262169,-18.90805529,0.294256245,4080,45696,19394.53125
-21.93990432,-304207,128,-23.92750429,-331766,128,-266238,-19.2015182,0.288414393,3999,46336,19414.0625
-21.95461714,-304411,128,-23.9412074,-331956,128,-262145,-18.90632438,0.295121705,4092,46976,19433.59375
-21.90651201,-303744,128,-23.89281379,-331285,128,-266229,-19.20086911,0.253868133,3520,47616,19453.125
-22.08717669,-306249,128,-24.07477666,-333808,128,-270274,-19.4926011,0.147632974,2047,48256,19472.65625
-21.97863364,-304744,128,-23.96630573,-332304,128,-262920,-18.96221864,0.253868133,3520,48896,19492.1875
-22.08667184,-306242,128,-24.07470454,-333807,128,-268288,-19.34936754,0.073780426,1023,49536,19511.71875
-22.03762913,-305562,128,-24.02631092,-333136,128,-267332,-19.28041926,0.147632974,2047,50176,19531.25
-22.06662203,-305964,128,-24.05299593,-333506,128,-264130,-19.04948581,0.143377798,1988,50816,19550.78125
-22.088547,-306268,128,-24.07650758,-333832,128,-268290,-19.34951178,0,0,51456,19570.3125
-22.0585444,-305852,128,-24.04693771,-333422,128,-266800,-19.24205056,0.110490335,1532,52096,19589.84375
-22.04938496,-305725,128,-24.03720129,-333287,128,-266721,-19.23635295,0.087916265,1219,52736,19609.375
-22.01635325,-305267,128,-24.00416958,-332829,128,-269319,-19.42372494,0.138473527,1920,53376,19628.90625
-22.01793993,-305289,128,-24.00416958,-332829,128,-269328,-19.42437403,0.322455802,4471,54016,19648.4375
-21.91372417,-303844,128,-23.89980959,-331382,128,-266013,-19.18529084,0.258339674,3582,54656,19667.96875
-21.94062554,-304217,128,-23.92822551,-331776,128,-263168,-18.9801048,0.00930369,129,55296,19687.5
-21.904132,-303711,128,-23.89065014,-331255,128,-264177,-19.05287553,0.257402093,3569,55936,19707.03125
-22.04339886,-305642,128,-24.03330672,-333233,128,-262653,-18.94296216,0.147632974,2047,56576,19726.5625
-22.03633094,-305544,128,-24.0235703,-333098,128,-262146,-18.9063965,0.147416609,2044,57216,19746.09375
-22.03582609,-305537,128,-24.02227211,-333080,128,-269700,-19.45120328,0.147632974,2047,57856,19765.625
-22.1122029,-306596,128,-24.09879316,-334141,128,-270209,-19.48791319,0.106956375,1483,58496,19785.15625
-21.98981249,-304899,128,-23.97734034,-332457,128,-267152,-19.26743737,0.239732294,3324,59136,19804.6875
-21.99680829,-304996,128,-23.98347068,-332542,128,-267261,-19.27529863,0.232952861,3230,59776,19824.21875
-21.90817081,-303767,128,-23.89562653,-331324,128,-263161,-18.97959995,0.294039881,4077,60416,19843.75
-21.9078102,-303762,128,-23.89548229,-331322,128,-264089,-19.04652882,0.29533807,4095,61056,19863.28125
-22.02861393,-305437,128,-24.0155648,-332987,128,-269567,-19.4416111,0.302405989,4193,61696,19882.8125
-22.07542087,-306086,128,-24.06035233,-333608,128,-268096,-19.33552019,0.129458324,1795,62336,19902.34375
-21.96168506,-304509,128,-23.94928502,-332068,128,-262180,-18.90884863,0.276586446,3835,62976,19921.875
-21.98274457,-304801,128,-23.97041666,-332361,128,-266817,-19.24327663,0.149940866,2079,63616,19941.40625
-21.99111068,-304917,128,-23.97907126,-332481,128,-267233,-19.27327922,0.164942165,2287,64256,19960.9375
-22.09893252,-306412,128,-24.08783067,-333989,128,-262327,-18.91945051,5.05E-04,7,64896,19980.46875
-22.13665213,-306935,128,-24.12439634,-334496,128,-262400,-18.92471539,7.21E-05,1,0,20000
-22.03106606,-305471,128,-24.01873815,-333031,128,-269921,-19.46714216,0.143161433,1985,640,20019.53125
-21.99067795,-304911,128,-23.97907126,-332481,128,-268993,-19.40021329,0.238866835,3312,1280,20039.0625
-21.99103856,-304916,128,-23.97964823,-332489,128,-270285,-19.49339443,0.22184613,3076,1920,20058.59375
-21.96089172,-304498,128,-23.94993412,-332077,128,-262401,-18.92478751,0.268220337,3719,2560,20078.125
-21.99810648,-305014,128,-23.98592281,-332576,128,-262416,-18.92586934,0.238289861,3304,3200,20097.65625
-22.01866114,-305299,128,-24.0082084,-332885,128,-262176,-18.90856015,0.145469325,2017,3840,20117.1875
-22.16672685,-307352,128,-24.15533652,-334925,128,-262649,-18.94267368,0.1107067,1535,5120,20156.25
-22.18995001,-307674,128,-24.17668452,-335221,128,-264185,-19.0534525,0.258411796,3583,5760,20175.78125
-22.17588629,-307479,128,-24.16247656,-335024,128,-264143,-19.05042339,0.260503323,3612,6400,20195.3125
-22.16283228,-307298,128,-24.14949467,-334844,128,-263809,-19.02633477,0.286250745,3969,7040,20214.84375
-22.17278506,-307436,128,-24.16024079,-334993,128,-265337,-19.13653661,0.291082894,4036,7680,20234.375
-22.16268804,-307296,128,-24.14913406,-334839,128,-265248,-19.13011779,0.281202231,3899,8320,20253.90625
-22.14436914,-307042,128,-24.1316085,-334596,128,-264248,-19.05799616,0.29533807,4095,8960,20273.4375
-22.13838305,-306959,128,-24.1252618,-334508,128,-264313,-19.06268407,0.004471541,62,9600,20292.96875
-22.14537885,-307056,128,-24.13240184,-334607,128,-264228,-19.05655373,0.026540759,368,10240,20312.5
-22.12511267,-306775,128,-24.11379446,-334349,128,-262656,-18.94317853,0.009159447,127,10880,20332.03125
-22.11638595,-306654,128,-24.10398592,-334213,128,-262536,-18.93452393,0.009231568,128,11520,20351.5625
-22.13275756,-306881,128,-24.1199248,-334434,128,-265757,-19.1668277,8.65E-04,12,12160,20371.09375
-22.14040245,-306987,128,-24.1272812,-334536,128,-266133,-19.19394543,7.21E-05,1,12800,20390.625
-22.14285459,-307021,128,-24.1295891,-334568,128,-268532,-19.36696522,0.001947284,27,13440,20410.15625
-22.15367283,-307171,128,-24.14011885,-334714,128,-269281,-19.42098432,0,0,14080,20429.6875
-22.01974297,-305314,128,-24.00691021,-332867,128,-269945,-19.46887308,0.559880204,7763,14720,20449.21875
-22.11919869,-306693,128,-24.10600532,-334241,128,-270233,-19.48964411,0.582670639,8079,15360,20468.75
-22.13138725,-306862,128,-24.12028541,-334439,128,-262873,-18.95882892,0,0,16000,20488.28125
-22.13982548,-306979,128,-24.12908424,-334561,128,-266232,-19.20108547,0.293607151,4071,16640,20507.8125
-22.15230252,-307152,128,-24.13990249,-334711,128,-268807,-19.38679867,0.027766827,385,17280,20527.34375
-22.12280478,-306743,128,-24.11018838,-334299,128,-268521,-19.36617188,0.017309191,240,17920,20546.875
-22.13492121,-306911,128,-24.12410785,-334492,128,-268957,-19.39761691,0.029353503,407,18560,20566.40625
-22.14083518,-306993,128,-24.13045456,-334580,128,-269194,-19.41470974,0.018030407,250,19200,20585.9375
-22.1639141,-307313,128,-24.15201892,-334879,128,-270111,-19.48084527,0.288414393,3999,19840,20605.46875
-22.13766183,-306949,128,-24.12511756,-334506,128,-268349,-19.35376696,0.004327298,60,20480,20625
-22.12323751,-306749,128,-24.11141445,-334316,128,-268441,-19.36040215,0.038657193,536,21120,20644.53125
-22.10275496,-306465,128,-24.09165312,-334042,128,-265984,-19.18319931,0.046085721,639,21760,20664.0625
-22.11335684,-306612,128,-24.10376955,-334210,128,-266047,-19.18774297,0.046229964,641,22400,20683.59375
-22.11148168,-306586,128,-24.09980286,-334155,128,-265475,-19.1464894,0.038008098,527,23040,20703.125
-22.12237205,-306737,128,-24.11177505,-334321,128,-268529,-19.36674885,0.032815341,455,23680,20722.65625
-22.14501824,-307051,128,-24.13240184,-334607,128,-269831,-19.46065121,0,0,24320,20742.1875
-22.17963662,-307531,128,-24.16802992,-335101,128,-269552,-19.44052928,0.286611353,3974,24960,20761.71875
-22.13499333,-306912,128,-24.12280966,-334474,128,-269185,-19.41406064,0.002019406,28,25600,20781.25
-22.15699043,-307217,128,-24.14480676,-334779,128,-270273,-19.49252897,0.004543663,63,26240,20800.78125
-22.18764212,-307642,128,-24.17488148,-335196,128,-270325,-19.4962793,0.29533807,4095,26880,20820.3125
-22.1805742,-307544,128,-24.16882326,-335112,128,-270336,-19.49707264,0.286322866,3970,27520,20839.84375
-22.19983068,-307811,128,-24.18822398,-335381,128,-262145,-18.90632438,0.25415662,3524,28160,20859.375
-22.2072592,-307914,128,-24.19384947,-335459,128,-262272,-18.91548382,0.239371686,3319,28800,20878.90625
-22.22117868,-308107,128,-24.21007683,-335684,128,-262372,-18.92269599,0.250983268,3480,29440,20898.4375
-22.20834103,-307929,128,-24.19579675,-335486,128,-262667,-18.94397187,0.226173428,3136,30080,20917.96875
-22.19716217,-307774,128,-24.18519487,-335339,128,-262257,-18.914402,0.250334173,3471,30720,20937.5
-22.21007195,-307953,128,-24.19723918,-335506,128,-263162,-18.97967207,0.235260753,3262,31360,20957.03125
-22.25074855,-308517,128,-24.23971882,-336095,128,-264168,-19.05222643,0.230789212,3200,32000,20976.5625
-22.23242965,-308263,128,-24.22010174,-335823,128,-264191,-19.05388523,0.295265948,4094,32640,20996.09375
-22.25911465,-308633,128,-24.24642613,-336188,128,-270433,-19.50406843,0.277163419,3843,33280,21015.625
-22.21230772,-307984,128,-24.201278,-335562,128,-264176,-19.0528034,0.239443808,3320,33920,21035.15625
-22.22983327,-308227,128,-24.21851506,-335801,128,-266184,-19.19762363,0.226101306,3135,34560,21054.6875
-22.28204933,-308951,128,-24.27044264,-336521,128,-270337,-19.49714476,0.295049583,4091,35200,21074.21875
-22.23942545,-308360,128,-24.2269533,-335918,128,-270458,-19.50587148,0.281490717,3903,35840,21093.75
-22.24050727,-308375,128,-24.22933331,-335951,128,-266114,-19.19257512,0.221557644,3072,36480,21113.28125
-22.23235753,-308262,128,-24.22161629,-335844,128,-270401,-19.50176054,0.293102299,4064,37120,21132.8125
-22.21122589,-307969,128,-24.19788828,-335515,128,-264192,-19.05395735,0.26302758,3647,37760,21152.34375
-22.25478736,-308573,128,-24.24303642,-336141,128,-270337,-19.49714476,0.219249751,3040,38400,21171.875
-22.26870683,-308766,128,-24.2556577,-336316,128,-270846,-19.53385467,0.22227886,3082,39040,21191.40625
-22.24512306,-308439,128,-24.23387697,-336014,128,-270352,-19.49822658,0.278028879,3855,39680,21210.9375
-22.26423529,-308704,128,-24.25219587,-336268,128,-274433,-19.79255495,0.294256245,4080,40320,21230.46875
-22.23531452,-308303,128,-24.22219327,-335852,128,-274818,-19.82032178,1.44E-04,2,40960,21250
-22.12864663,-306824,128,-24.11718418,-334396,128,-264689,-19.0898018,0.333201925,4620,41600,21269.53125
-22.23185268,-308255,128,-24.22089508,-335834,128,-270059,-19.47709495,0.001081824,15,42240,21289.0625
-22.24151698,-308389,128,-24.23070362,-335970,128,-270589,-19.51531941,0.219682481,3046,42880,21308.59375
-22.26300922,-308687,128,-24.25313345,-336281,128,-274847,-19.8224133,0.26079181,3616,43520,21328.125
-22.27974144,-308919,128,-24.26871172,-336497,128,-275001,-19.83352003,0.244708686,3393,44160,21347.65625
-22.2442576,-308427,128,-24.23373273,-336012,128,-274917,-19.82746182,0.293318664,4067,44800,21367.1875
-22.26135042,-308664,128,-24.25241223,-336271,128,-274448,-19.79363677,0.276947054,3840,45440,21386.71875
-22.23956969,-308362,128,-24.22861209,-335941,128,-274882,-19.82493756,0.260647566,3614,46080,21406.25
-22.28385237,-308976,128,-24.27376023,-336567,128,-274814,-19.82003329,0.258483918,3584,46720,21425.78125
-22.25233522,-308539,128,-24.24051216,-336106,128,-274448,-19.79363677,0.276442203,3833,47360,21445.3125
-22.23372784,-308281,128,-24.22067871,-335831,128,-270458,-19.50587148,0.277956757,3854,48000,21464.84375
-22.28320328,-308967,128,-24.27109173,-336530,128,-271261,-19.56378514,0.295193827,4093,48640,21484.375
-22.21872654,-308073,128,-24.20639863,-335633,128,-266237,-19.20144608,0.294833218,4088,49280,21503.90625
-22.24115637,-308384,128,-24.22933331,-335951,128,-270351,-19.49815446,0.294256245,4080,49920,21523.4375
-22.28378025,-308975,128,-24.27159658,-336537,128,-270466,-19.50644845,0.150301474,2084,50560,21542.96875
-22.29632941,-309149,128,-24.2840015,-336709,128,-275072,-19.83864067,0.162129421,2248,51200,21562.5
-22.27772203,-308891,128,-24.265322,-336450,128,-274882,-19.82493756,0.072914967,1011,51840,21582.03125
-22.30952767,-309332,128,-24.29676703,-336886,128,-277017,-19.97891724,0.221774008,3075,52480,21601.5625
-22.34090058,-309767,128,-24.32958237,-337341,128,-277535,-20.01627624,0.133641378,1853,53120,21621.09375
-22.32149986,-309498,128,-24.30873922,-337052,128,-277989,-20.04901946,0.10847093,1504,53760,21640.625
-22.28421298,-308981,128,-24.27513054,-336586,128,-278017,-20.05103887,0.241102605,3343,54400,21660.15625
-22.27418807,-308842,128,-24.26258138,-336412,128,-276961,-19.97487843,0.226029185,3134,55040,21679.6875
-22.30397431,-309255,128,-24.29128579,-336810,128,-278228,-20.06625653,0.222639468,3087,55680,21699.21875
-22.31991319,-309476,128,-24.30938832,-337061,128,-277548,-20.01721382,0.131477729,1823,56320,21718.75
-22.31601862,-309422,128,-24.30506102,-337001,128,-278528,-20.08789302,0.145397204,2016,56960,21738.28125
-22.32986597,-309614,128,-24.31804291,-337181,128,-277760,-20.03250361,0.128953472,1788,57600,21757.8125
-22.32186047,-309503,128,-24.30859498,-337050,128,-278514,-20.08688332,0.229851631,3187,58240,21777.34375
-22.31681196,-309433,128,-24.30419556,-336989,128,-278469,-20.08363784,0.12931408,1793,58880,21796.875
-22.3196247,-309472,128,-24.30830649,-337046,128,-278066,-20.05457283,0.069669493,966,59520,21816.40625
-22.35222368,-309924,128,-24.3406891,-337495,128,-278280,-20.07000686,0.074357399,1031,60160,21835.9375
-22.32719747,-309577,128,-24.31479744,-337136,128,-262208,-18.91086804,0.147128123,2040,60800,21855.46875
-22.33080355,-309627,128,-24.31912474,-337196,128,-262145,-18.90632438,0.145397204,2016,61440,21875
-22.33318357,-309660,128,-24.32258657,-337244,128,-262369,-18.92247962,0.145902055,2023,62080,21894.53125
-22.35691158,-309989,128,-24.34552125,-337562,128,-262687,-18.9454143,0.094551455,1311,62720,21914.0625
-22.36751346,-310136,128,-24.35417585,-337682,128,-278521,-20.08738817,0.073852548,1024,63360,21933.59375
-22.31854288,-309457,128,-24.30650345,-337021,128,-277577,-20.01930535,0.131477729,1823,64000,21953.125
-22.30440704,-309261,128,-24.29193488,-336819,128,-263153,-18.97902298,0.073780426,1023,64640,21972.65625
-22.35445945,-309955,128,-24.34393458,-337540,128,-262160,-18.9074062,9.38E-04,13,65280,21992.1875
-22.36051766,-310039,128,-24.34905521,-337611,128,-263689,-19.01768017,0.092243563,1279,384,22011.71875
-22.34017936,-309757,128,-24.32756297,-337313,128,-263193,-18.98190784,0.129674689,1798,1024,22031.25
-22.34724728,-309855,128,-24.3349915,-337416,128,-264191,-19.05388523,0.065125831,903,1664,22050.78125
-22.30498401,-309269,128,-24.29316095,-336836,128,-262384,-18.92356144,0.007789136,108,2304,22070.3125
-22.35344974,-309941,128,-24.34083335,-337497,128,-276304,-19.92749452,0.109696997,1521,2944,22089.84375
-22.39390998,-310502,128,-24.38158207,-338062,128,-262397,-18.92449903,0.073275575,1016,3584,22109.375
-22.34198241,-309782,128,-24.32979874,-337344,128,-263281,-18.98825455,0.111283673,1543,4224,22128.90625
-22.34407393,-309811,128,-24.33362118,-337397,128,-263665,-19.01594925,0.090296279,1252,4864,22148.4375
-22.323952,-309532,128,-24.31313864,-337113,128,-263328,-18.99164426,0.129458324,1795,5504,22167.96875
-22.35885887,-310016,128,-24.34703581,-337583,128,-262336,-18.92009961,0.092315685,1280,6144,22187.5
-22.34746365,-309858,128,-24.33571271,-337426,128,-262146,-18.9063965,0.017525556,243,6784,22207.03125
-22.35994069,-310031,128,-24.34782914,-337594,128,-264185,-19.0534525,0.129674689,1798,7424,22226.5625
-22.31378285,-309391,128,-24.30275313,-336969,128,-263233,-18.98479271,0.146623271,2033,8064,22246.09375
-22.33246235,-309650,128,-24.32063929,-337217,128,-262157,-18.90718983,0.14655115,2032,8704,22265.625
-22.35200731,-309921,128,-24.33953516,-337479,128,-262784,-18.9524101,0.12974681,1799,9344,22285.15625
-22.33202962,-309644,128,-24.31883625,-337192,128,-277806,-20.0358212,0.112509741,1560,9984,22304.6875
-22.35647885,-309983,128,-24.34364609,-337536,128,-278080,-20.05558253,0.021997097,305,10624,22324.21875
-22.35871462,-310014,128,-24.34617035,-337571,128,-262365,-18.92219113,0.001153946,16,11264,22343.75
-22.40602641,-310670,128,-24.39362638,-338229,128,-264479,-19.07465626,0.009231568,128,11904,22363.28125
-22.41662829,-310817,128,-24.40365129,-338368,128,-264417,-19.07018472,0.073780426,1023,12544,22382.8125
-22.43913024,-311129,128,-24.42557626,-338672,128,-266213,-19.19971516,0.001658797,23,13184,22402.34375
-22.4036464,-310637,128,-24.39153485,-338200,128,-265992,-19.18377628,0.015650393,217,13824,22421.875
-22.4383369,-311118,128,-24.4273793,-338697,128,-266144,-19.19473877,0,0,14464,22441.40625
-22.4019876,-310614,128,-24.39218395,-338209,128,-266041,-19.18731024,0.002307892,32,15104,22460.9375
-22.4169889,-310822,128,-24.40559857,-338395,128,-265440,-19.14396514,1.159499426,16077,15744,22480.46875
-22.42384045,-310917,128,-24.41295498,-338497,128,-262241,-18.91324805,0.020698907,287,16384,22500
-22.46812313,-311531,128,-24.45608371,-339095,128,-262148,-18.90654074,1.163033386,16126,17024,22519.53125
