Device,Device,Device,Device,Device,Device,Device,Device,Device,Device,Device,Device
ECG LL-RA,ECG LL-RA,EXG2 Status,ECG LA-RA,ECG LA-RA,EXG1 Status,ECG Vx-RL,ECG Vx-RL,ExG2 CH1,ExG2 CH1,Timestamp,Timestamp
CAL,RAW,RAW,CAL,RAW,RAW,RAW,CAL,RAW,CAL,RAW,CAL
mV,No Units,No Units,mV,No Units,No Units,No Units,mV,No Units,mV,No Units,mSecs
-14.48577338,-200852,128,-13.8072531,-191444,128,-30986,-2.234760789,14719,1.061558254,1920,58.59375
-14.50373167,-201101,128,-13.84201572,-191926,128,-24817,-1.789842461,15902,1.146878141,2560,78.125
-14.53301305,-201507,128,-13.82997141,-191759,128,-9288,-0.669865688,16380,1.181352279,3200,97.65625
-13.92856168,-193126,128,-13.51667506,-187415,128,-1913,-0.137968676,28675,2.068087705,3840,117.1875
-13.85131941,-192055,128,-13.63762303,-189092,128,-896,-0.064620979,16368,1.18048682,4480,136.71875
-14.43103307,-200093,128,-13.81085918,-191494,128,-65528,-4.72598609,15871,1.14464237,5120,156.25
-14.44444769,-200279,128,-13.81785498,-191591,128,-65536,-4.726563063,16374,1.18091955,5760,175.78125
-14.41192084,-199828,128,-13.75770554,-190757,128,-63681,-4.592777442,14814,1.068409809,6400,195.3125
-14.43810099,-200191,128,-13.7645571,-190852,128,-63741,-4.59710474,14837,1.070068606,7040,214.84375
-14.39086132,-199536,128,-13.73253509,-190408,128,-61172,-4.411824275,14337,1.034007792,7680,234.375
-14.41300266,-199843,128,-13.7415503,-190533,128,-59392,-4.283447776,15512,1.118750706,8320,253.90625
-14.36633997,-199196,128,-13.69957551,-189951,128,-58617,-4.227553514,15875,1.144930857,8960,273.4375
-14.34073679,-198841,128,-13.6848627,-189747,128,-59377,-4.282365952,16136,1.163754602,9600,292.96875
-14.34290044,-198871,128,-13.67426082,-189600,128,-58400,-4.211903121,16191,1.167721292,10240,312.5
-14.29104499,-198152,128,-13.65067704,-189273,128,-58882,-4.246665746,14352,1.035089616,10880,332.03125
-14.21098998,-197042,128,-13.53917701,-187727,128,-57376,-4.138050573,16382,1.181496523,11520,351.5625
-14.12184764,-195806,128,-13.51003987,-187323,128,-64516,-4.652999002,307,0.02214134,12160,371.09375
-14.13958956,-196052,128,-13.56629474,-188103,128,-65536,-4.726563063,28,0.002019406,12800,390.625
-14.21459606,-197092,128,-13.65305706,-189306,128,-57475,-4.145190614,59,0.004255176,13440,410.15625
-14.29941109,-198268,128,-13.67216929,-189571,128,-57457,-4.143892425,15616,1.126251355,14080,429.6875
-14.34275619,-198869,128,-13.71032163,-190100,128,-58991,-4.254527003,16376,1.181063793,14720,449.21875
-14.35357444,-199019,128,-13.71169194,-190119,128,-59151,-4.266066464,16355,1.179549239,15360,468.75
-14.38170187,-199409,128,-13.73960301,-190506,128,-61471,-4.433388642,15873,1.144786614,16000,488.28125
-14.34030406,-198835,128,-13.69416639,-189876,128,-59389,-4.283231411,16368,1.18048682,16640,507.8125
-14.3324428,-198726,128,-13.6992149,-189946,128,-59345,-4.28005806,16267,1.173202535,17280,527.34375
-14.37182121,-199272,128,-13.70433554,-190017,128,-61154,-4.410526086,16321,1.177097103,17920,546.875
-14.36331086,-199154,128,-13.72359201,-190284,128,-62225,-4.487768351,15964,1.151349682,18560,566.40625
-14.31686453,-198510,128,-13.65738435,-189366,128,-59264,-4.274216208,16376,1.181063793,19200,585.9375
-14.34362165,-198881,128,-13.67570325,-189620,128,-58123,-4.191925429,14392,1.037974481,19840,605.46875
-14.34181861,-198856,128,-13.67166444,-189564,128,-58944,-4.251137287,16159,1.165413399,20480,625
-14.32602398,-198637,128,-13.68031903,-189684,128,-58882,-4.246665746,14577,1.051316983,21120,644.53125
-14.3441265,-198888,128,-13.68623301,-189766,128,-59016,-4.256330044,16383,1.181568644,21760,664.0625
-14.34650652,-198921,128,-13.68717059,-189779,128,-59391,-4.283375655,16287,1.174644968,22400,683.59375
-14.32400457,-198609,128,-13.67238565,-189574,128,-58432,-4.214211013,16128,1.163177629,23040,703.125
-14.37109999,-199262,128,-13.69957551,-189951,128,-57405,-4.1401421,14402,1.038695698,23680,722.65625
-14.35891144,-199093,128,-13.68904575,-189805,128,-59272,-4.274793181,16372,1.180775306,24320,742.1875
-14.35782961,-199078,128,-13.69935914,-189948,128,-61565,-4.440168076,16256,1.172409197,24960,761.71875
-14.37275879,-199285,128,-13.69784459,-189927,128,-58909,-4.24861303,16382,1.181496523,25600,781.25
-14.32926945,-198682,128,-13.6675535,-189507,128,-58372,-4.209883715,16382,1.181496523,26240,800.78125
-14.35083382,-198981,128,-13.67584749,-189622,128,-57569,-4.151970047,16280,1.174140116,26880,820.3125
-14.38148551,-199406,128,-13.69142576,-189838,128,-58353,-4.208513404,14351,1.035017495,27520,839.84375
-14.31650392,-198505,128,-13.65024431,-189267,128,-59333,-4.2791926,16323,1.177241347,28160,859.375
-14.37066726,-199256,128,-13.70880708,-190079,128,-58384,-4.210749174,15998,1.153801817,28800,878.90625
-14.32472579,-198619,128,-13.63502665,-189056,128,-58526,-4.220990446,16380,1.181352279,29440,898.4375
-14.32941369,-198684,128,-13.70209976,-189986,128,-57372,-4.137762086,16382,1.181496523,30080,917.96875
-14.27481762,-197927,128,-13.67325111,-189586,128,-57370,-4.137617843,15881,1.145363587,30720,937.5
-14.16584184,-196416,128,-13.60048039,-188577,128,-57825,-4.170433184,16280,1.174140116,31360,957.03125
-14.28866497,-198119,128,-13.62565084,-188926,128,-57849,-4.172164103,15361,1.10786034,32000,976.5625
-14.33301977,-198734,128,-13.67527052,-189614,128,-59016,-4.256330044,16371,1.180703185,32640,996.09375
-14.38364916,-199436,128,-13.70649918,-190047,128,-57345,-4.135814802,16308,1.176159522,33280,1015.625
-14.36540238,-199183,128,-13.69741186,-189921,128,-59362,-4.281284127,15927,1.148681182,33920,1035.15625
-14.3987947,-199646,128,-13.72402474,-190290,128,-59265,-4.274288329,16254,1.172264954,34560,1054.6875
-14.32739429,-198656,128,-13.61490472,-188777,128,-57613,-4.155143399,31744,2.289428984,35200,1074.21875
-13.1766937,-182701,128,-13.32858185,-184807,128,-53325,-3.845885854,16376,1.181063793,35840,1093.75
-14.07345403,-195135,128,-13.74241576,-190545,128,-57425,-4.141584532,1984,0.143089311,36480,1113.28125
-14.40528565,-199736,128,-13.74717578,-190611,128,-58382,-4.210604931,16297,1.175366184,37120,1132.8125
-14.33770768,-198799,128,-13.68630513,-189767,128,-59400,-4.284024749,15843,1.142622965,37760,1152.34375
-14.37766306,-199353,128,-13.71032163,-190100,128,-57808,-4.169207116,16352,1.179332874,38400,1171.875
-14.34650652,-198921,128,-13.68075176,-189690,128,-58904,-4.248252421,16160,1.165485521,39040,1191.40625
-14.32349972,-198602,128,-13.6655341,-189479,128,-58368,-4.209595228,16350,1.17918863,39680,1210.9375
-14.31296996,-198456,128,-13.61425562,-188768,128,-58368,-4.209595228,15999,1.153873939,40320,1230.46875
-14.34729986,-198932,128,-13.67505415,-189611,128,-58401,-4.211975242,16382,1.181496523,40960,1250
-14.29674259,-198231,128,-13.6135344,-188758,128,-58247,-4.200868511,16360,1.179909847,41600,1269.53125
-14.22952524,-197299,128,-13.56139047,-188035,128,-65476,-4.722235766,15903,1.146950262,42240,1289.0625
-14.17846312,-196591,128,-13.4971301,-187144,128,-57337,-4.135237829,15934,1.149186033,42880,1308.59375
-14.1810595,-196627,128,-13.5194878,-187454,128,-57280,-4.131126896,16320,1.177024982,43520,1328.125
-14.09321536,-195409,128,-13.48090273,-186919,128,-57297,-4.132352964,1033,0.074501643,44160,1347.65625
-14.11434699,-195702,128,-13.52706057,-187559,128,-57328,-4.134588734,7,5.05E-04,44800,1367.1875
-14.15127327,-196214,128,-13.54667765,-187831,128,-56372,-4.065640457,451,0.032526855,45440,1386.71875
-14.2704182,-197866,128,-13.63812788,-189099,128,-65417,-4.71798059,14808,1.067977079,46080,1406.25
-14.32703368,-198651,128,-13.6505328,-189271,128,-65376,-4.715023603,14340,1.034224157,46720,1425.78125
-14.36857574,-199227,128,-13.69813308,-189931,128,-57856,-4.172668954,16382,1.181496523,47360,1445.3125
-14.28239039,-198032,128,-13.60653861,-188661,128,-65533,-4.726346699,16143,1.164259453,48000,1464.84375
-14.38170187,-199409,128,-13.69423851,-189877,128,-58925,-4.249766976,15375,1.108870042,48640,1484.375
-14.30294505,-198317,128,-13.64988371,-189262,128,-65346,-4.712859954,16382,1.181496523,49280,1503.90625
-14.37131636,-199265,128,-13.67692932,-189637,128,-65497,-4.72375032,15397,1.110456718,49920,1523.4375
-14.33467857,-198757,128,-13.65471585,-189329,128,-59391,-4.283375655,16164,1.165774008,50560,1542.96875
-14.28195766,-198026,128,-13.60278828,-188609,128,-65473,-4.722019401,16240,1.171255251,51200,1562.5
-14.33374099,-198744,128,-13.63949819,-189118,128,-64761,-4.670668801,16230,1.170534035,51840,1582.03125
-14.3244373,-198615,128,-13.63293512,-189027,128,-65073,-4.693170749,15423,1.112331881,52480,1601.5625
-14.30179111,-198301,128,-13.62348719,-188896,128,-57370,-4.137617843,16355,1.179549239,53120,1621.09375
-14.34888653,-198954,128,-13.68702634,-189777,128,-65410,-4.717475738,14456,1.042590266,53760,1640.625
-14.31318633,-198459,128,-13.6398588,-189123,128,-64512,-4.652710516,16383,1.181568644,54400,1660.15625
-14.33749131,-198796,128,-13.65348979,-189312,128,-57529,-4.149085182,15553,1.121707692,55040,1679.6875
-14.35393505,-199024,128,-13.66279348,-189441,128,-65025,-4.689708911,16256,1.172409197,55680,1699.21875
-14.32739429,-198656,128,-13.63589211,-189068,128,-65529,-4.726058212,15377,1.109014286,56320,1718.75
-14.34491984,-198899,128,-13.65810557,-189376,128,-65536,-4.726563063,16321,1.177097103,56960,1738.28125
-14.32169668,-198577,128,-13.64043577,-189131,128,-65536,-4.726563063,15364,1.108076705,57600,1757.8125
-14.34751622,-198935,128,-13.65817769,-189377,128,-63520,-4.58116586,16352,1.179332874,58240,1777.34375
-14.36886422,-199231,128,-13.67873236,-189662,128,-64498,-4.651700813,16382,1.181496523,58880,1796.875
-14.35537748,-199044,128,-13.65096553,-189277,128,-57402,-4.139925735,15863,1.144065397,59520,1816.40625
-14.31051782,-198422,128,-13.6285357,-188966,128,-65025,-4.689708911,15599,1.125025287,60160,1835.9375
-14.32898096,-198678,128,-13.65615829,-189349,128,-65533,-4.726346699,16179,1.166855832,60800,1855.46875
-14.24777201,-197552,128,-13.58454151,-188356,128,-57316,-4.133723275,15424,1.112404002,61440,1875
-14.22952524,-197299,128,-13.61396713,-188764,128,-64000,-4.615784242,15374,1.108797921,62080,1894.53125
-14.17117884,-196490,128,-13.57408387,-188211,128,-57233,-4.12773718,51,0.003678203,62720,1914.0625
-14.24813262,-197557,128,-13.590167,-188434,128,-61562,-4.439951711,15443,1.113774313,63360,1933.59375
-14.28866497,-198119,128,-13.60855801,-188689,128,-64834,-4.67593368,15875,1.144930857,64000,1953.125
-14.32833187,-198669,128,-13.64144547,-189145,128,-64209,-4.630857662,14588,1.052110321,64640,1972.65625
-14.33568827,-198771,128,-13.64577277,-189205,128,-65495,-4.723606077,16316,1.176736495,65280,1992.1875
-14.28289524,-198039,128,-13.59420581,-188490,128,-64528,-4.653864462,15200,1.096248757,384,2011.71875
-14.15646603,-196286,128,-13.48068636,-186916,128,-61698,-4.449760252,30720,2.215576436,1024,2031.25
-13.16789486,-182579,128,-13.26677361,-183950,128,-49920,-3.600311708,16381,1.181424401,1664,2050.78125
-14.22014942,-197169,128,-13.7035422,-190006,128,-61448,-4.431729845,4103,0.295915043,2304,2070.3125
-14.28448192,-198061,128,-13.61490472,-188777,128,-61887,-4.46339124,14456,1.042590266,2944,2089.84375
-14.27128366,-197878,128,-13.59132094,-188450,128,-63640,-4.589820455,16135,1.16368248,3584,2109.375
-14.24849322,-197562,128,-13.55908257,-188003,128,-61568,-4.44038444,16243,1.171471616,4224,2128.90625
-14.30655114,-198367,128,-13.6258672,-188929,128,-64001,-4.615856363,15361,1.10786034,4864,2148.4375
-14.2314004,-197325,128,-13.53773457,-187707,128,-63705,-4.594508361,16191,1.167721292,5504,2167.96875
-14.26212421,-197751,128,-13.57054991,-188162,128,-57217,-4.126583234,16264,1.17298617,6144,2187.5
-14.23349193,-197354,128,-13.54761524,-187844,128,-56576,-4.08035327,15872,1.144714492,6784,2207.03125
-14.19678202,-196845,128,-13.51883871,-187445,128,-56381,-4.066289552,16128,1.163177629,7424,2226.5625
-14.1763716,-196562,128,-13.4868167,-187001,128,-57330,-4.134732978,16199,1.168298265,8064,2246.09375
-14.12228037,-195812,128,-13.44628435,-186439,128,-56456,-4.071698674,255,0.018391015,8704,2265.625
-14.03840292,-194649,128,-13.38404338,-185576,128,-50788,-3.662913282,1553,0.112004889,9344,2285.15625
-14.05614484,-194895,128,-13.43301397,-186255,128,-53938,-3.890096413,999,0.072049507,9984,2304.6875
-14.03638351,-194621,128,-13.45926624,-186619,128,-51455,-3.711018409,2035,0.146767515,10624,2324.21875
-14.08448864,-195288,128,-13.49244219,-187079,128,-56836,-4.099104893,1025,0.073924669,11264,2343.75
-14.21668759,-197121,128,-13.5975234,-188536,128,-61553,-4.439302616,15615,1.126179233,11904,2363.28125
-14.26652363,-197812,128,-13.65428312,-189323,128,-57344,-4.135742681,15857,1.143632667,12544,2382.8125
-14.21791365,-197138,128,-13.600841,-188582,128,-61480,-4.434037737,16383,1.181568644,13184,2402.34375
-14.21661546,-197120,128,-13.61093803,-188722,128,-63457,-4.576622197,16359,1.179837725,13824,2421.875
-14.26890365,-197845,128,-13.64223881,-189156,128,-65000,-4.68790587,15367,1.108293069,14464,2441.40625
-14.23464587,-197370,128,-13.64570065,-189204,128,-63520,-4.58116586,16135,1.16368248,15104,2460.9375
-14.24185803,-197470,128,-13.60048039,-188577,128,-61816,-4.458270604,15881,1.145363587,15744,2480.46875
-14.18949773,-196744,128,-13.60011978,-188572,128,-61642,-4.445721441,16252,1.172120711,16384,2500
-14.23781922,-197414,128,-13.63596423,-189069,128,-64525,-4.653648097,16320,1.177024982,17024,2519.53125
-14.21870699,-197149,128,-13.60314889,-188614,128,-57574,-4.152330655,15871,1.14464237,17664,2539.0625
-14.25188294,-197609,128,-13.65175887,-189288,128,-63521,-4.581237981,15911,1.147527235,18304,2558.59375
-14.19469049,-196816,128,-13.5851906,-188365,128,-61796,-4.456828172,15984,1.152792114,18944,2578.125
-14.2040663,-196946,128,-13.60278828,-188609,128,-61505,-4.435840778,16063,1.158489723,19584,2597.65625
-14.1993784,-196881,128,-13.59716279,-188531,128,-56868,-4.101412785,255,0.018391015,20224,2617.1875
-14.21387484,-197082,128,-13.62074657,-188858,128,-61849,-4.460650618,16382,1.181496523,20864,2636.71875
-14.20882633,-197012,128,-13.62983389,-188984,128,-61553,-4.439302616,16354,1.179477117,21504,2656.25
-14.20247963,-196924,128,-13.59175367,-188456,128,-63521,-4.581237981,16320,1.177024982,22144,2675.78125
-14.20745602,-196993,128,-13.61937626,-188839,128,-57332,-4.134877221,16380,1.181352279,22784,2695.3125
-14.21236029,-197061,128,-13.60134585,-188589,128,-61569,-4.440456562,16191,1.167721292,23424,2714.84375
-14.22721734,-197267,128,-13.60437496,-188631,128,-57340,-4.135454194,15904,1.147022384,24064,2734.375
-14.1977196,-196858,128,-13.59398944,-188487,128,-63570,-4.584771941,15868,1.144426005,24704,2753.90625
-14.1790401,-196599,128,-13.60365374,-188621,128,-61671,-4.447812968,1,7.21E-05,25344,2773.4375
-14.07915164,-195214,128,-13.55338497,-187924,128,-57343,-4.135670559,64,0.004615784,25984,2792.96875
-14.05289937,-194850,128,-13.54271097,-187776,128,-56640,-4.084969054,990,0.071400412,26624,2812.5
-14.10013903,-195505,128,-13.5365085,-187690,128,-53193,-3.836365799,1137,0.082002292,27264,2832.03125
-14.18942561,-196743,128,-13.58136816,-188312,128,-57240,-4.128242031,16248,1.171832224,27904,2851.5625
-14.20024385,-196893,128,-13.58627243,-188380,128,-57228,-4.127376572,16382,1.181496523,28544,2871.09375
-14.19923415,-196879,128,-13.57393963,-188209,128,-57296,-4.132280842,16264,1.17298617,29184,2890.625
-14.21380272,-197081,128,-13.57256932,-188190,128,-57245,-4.128602639,16131,1.163393994,29824,2910.15625
-13.97659468,-193792,128,-13.38238458,-185553,128,-53200,-3.836870651,31993,2.307387269,30464,2929.6875
-13.01189578,-180416,128,-13.18210282,-182776,128,-64753,-4.670091828,16320,1.177024982,31104,2949.21875
-14.09660507,-195456,128,-13.63105996,-189001,128,-50976,-3.676472148,4160,0.300025976,31744,2968.75
-14.20053234,-196897,128,-13.59658582,-188523,128,-61456,-4.432306818,16351,1.179260752,32384,2988.28125
-14.14752294,-196162,128,-13.52258903,-187497,128,-57341,-4.135526316,7,5.05E-04,33024,3007.8125
-14.1917335,-196775,128,-13.55663044,-187969,128,-53185,-3.835788826,16249,1.171904346,33664,3027.34375
-14.119684,-195776,128,-13.48573488,-186986,128,-52789,-3.807228661,279,0.020121934,34304,3046.875
-14.16425516,-196394,128,-13.51530475,-187396,128,-56570,-4.07992054,240,0.017309191,34944,3066.40625
-14.16887095,-196458,128,-13.5258345,-187542,128,-57217,-4.126583234,254,0.018318894,35584,3085.9375
-14.10677422,-195597,128,-13.45558804,-186568,128,-52288,-3.771095725,775,0.055894262,36224,3105.46875
-14.08694078,-195322,128,-13.42962425,-186208,128,-51072,-3.683395825,1987,0.143305676,36864,3125
-14.08542622,-195301,128,-13.43351882,-186262,128,-55808,-4.024963859,1017,0.073347696,37504,3144.53125
-14.01993978,-194393,128,-13.37127785,-185399,128,-53312,-3.844948273,3297,0.23778501,38144,3164.0625
-13.94334661,-193331,128,-13.31451813,-184612,128,-49923,-3.600528073,3633,0.262017877,38784,3183.59375
-13.91954648,-193001,128,-13.32115332,-184704,128,-49597,-3.577016422,3324,0.239732294,39424,3203.125
-13.87648986,-192404,128,-13.31913392,-184676,128,-49634,-3.579684923,6188,0.446288639,40064,3222.65625
-14.04215324,-194701,128,-13.44029825,-186356,128,-50720,-3.658009012,2307,0.166384598,40704,3242.1875
-14.08838321,-195342,128,-13.45082801,-186502,128,-55432,-3.997846126,120,0.008654595,41344,3261.71875
-14.11225547,-195673,128,-13.475133,-186839,128,-53233,-3.839250665,924,0.066640385,41984,3281.25
-14.16822185,-196449,128,-13.50571257,-187263,128,-56320,-4.061890133,255,0.018391015,42624,3300.78125
-14.16266849,-196372,128,-13.49539918,-187120,128,-51621,-3.722990599,6,4.33E-04,43264,3320.3125
-14.1437005,-196109,128,-13.47837847,-186884,128,-55812,-4.025252345,49,0.00353396,43904,3339.84375
-14.15523996,-196269,128,-13.47801786,-186879,128,-56831,-4.098744285,472,0.034041409,44544,3359.375
-14.12689616,-195876,128,-13.44859224,-186471,128,-53757,-3.877042398,1020,0.073564061,45184,3378.90625
-14.14860477,-196177,128,-13.47967666,-186902,128,-55838,-4.027127508,255,0.018391015,45824,3398.4375
-14.15610542,-196281,128,-13.44952982,-186484,128,-55688,-4.016309263,7,5.05E-04,46464,3417.96875
-14.12134279,-195799,128,-13.43048971,-186220,128,-50988,-3.677337608,1,7.21E-05,47104,3437.5
-14.15177812,-196221,128,-13.44815951,-186465,128,-51202,-3.692771637,796,0.057408817,47744,3457.03125
-14.14478232,-196124,128,-13.41404598,-185992,128,-54792,-3.951688284,486,0.035051112,48384,3476.5625
-14.17247703,-196508,128,-13.44722193,-186452,128,-51197,-3.692411028,4,2.88E-04,49024,3496.09375
-14.14492657,-196126,128,-13.4077714,-185905,128,-49665,-3.581920693,480,0.034618382,49664,3515.625
-14.1367047,-196012,128,-13.4017853,-185822,128,-50688,-3.655701119,84,0.006058217,50304,3535.15625
-14.17182793,-196499,128,-13.39002948,-185659,128,-50754,-3.660461147,7,5.05E-04,50944,3554.6875
-14.19187775,-196777,128,-13.41303628,-185978,128,-50048,-3.609543277,16193,1.167865535,51584,3574.21875
-14.22844341,-197284,128,-13.4141181,-185993,128,-55296,-3.988037585,15744,1.135482923,52224,3593.75
-14.18098738,-196626,128,-13.39832346,-185774,128,-49408,-3.563385435,16382,1.181496523,52864,3613.28125
-14.21690395,-197124,128,-13.39652042,-185749,128,-49536,-3.572617003,15745,1.135555045,53504,3632.8125
-14.23450163,-197368,128,-13.38786583,-185629,128,-53277,-3.842424016,15616,1.126251355,54144,3652.34375
-14.2207264,-197177,128,-13.38353853,-185569,128,-50929,-3.673082432,16327,1.177529833,54784,3671.875
-14.24625745,-197531,128,-13.40733867,-185899,128,-50948,-3.674452743,15409,1.111322178,55424,3691.40625
-14.2163991,-197117,128,-13.36630146,-185330,128,-50162,-3.617765143,15875,1.144930857,56064,3710.9375
-14.20428267,-196949,128,-13.397458,-185762,128,-53277,-3.842424016,15877,1.1450751,56704,3730.46875
-14.157043,-196294,128,-13.34654013,-185056,128,-54224,-3.910723199,408,0.029425625,57344,3750
-14.20226326,-196921,128,-13.34048192,-184972,128,-49572,-3.575213382,103,0.007428528,57984,3769.53125
-14.26811031,-197834,128,-13.35692565,-185200,128,-53760,-3.877258763,16128,1.163177629,58624,3789.0625
-14.33107249,-198707,128,-13.3837549,-185572,128,-50055,-3.610048128,15473,1.115937962,59264,3808.59375
-14.35609869,-199054,128,-13.40128045,-185815,128,-51137,-3.688083731,16254,1.172264954,59904,3828.125
-14.38494735,-199454,128,-13.39868407,-185779,128,-53312,-3.844948273,15474,1.116010084,60544,3847.65625
-14.40030925,-199667,128,-13.37214331,-185411,128,-53473,-3.856559856,16287,1.174644968,61184,3867.1875
-13.79953609,-191337,128,-13.09714354,-181598,128,-64773,-4.671534261,1171,0.084454427,61824,3886.71875
-13.89307784,-192634,128,-13.30499808,-184480,128,-63970,-4.613620593,15840,1.1424066,62464,3906.25
-14.45144349,-200376,128,-13.46215111,-186659,128,-55681,-4.015804412,14592,1.052398807,63104,3925.78125
-14.42136877,-199959,128,-13.37416272,-185439,128,-50125,-3.615096642,15484,1.1167313,63744,3945.3125
-14.47437817,-200694,128,-13.41202657,-185964,128,-50816,-3.664932688,15872,1.144714492,64384,3964.84375
-14.4821673,-200802,128,-13.39918892,-185786,128,-61441,-4.431224994,16271,1.173491022,65024,3984.375
-14.45988172,-200493,128,-13.35158865,-185126,128,-53252,-3.840620976,16262,1.172841927,128,4003.90625
-14.5014959,-201070,128,-13.38606279,-185604,128,-56580,-4.080641756,16259,1.172625562,768,4023.4375
-14.46759873,-200600,128,-13.34617953,-185051,128,-50176,-3.618774845,16311,1.176375887,1408,4042.96875
-14.46218961,-200525,128,-13.32490365,-184756,128,-53756,-3.876970276,16383,1.181568644,2048,4062.5
-14.48036426,-200777,128,-13.33680371,-184921,128,-49267,-3.553216285,14831,1.069635876,2688,4082.03125
-14.42136877,-199959,128,-13.26554755,-183933,128,-52861,-3.812421419,16353,1.179404995,3328,4101.5625
-14.37160484,-199269,128,-13.23035219,-183445,128,-52369,-3.776937577,15871,1.14464237,3968,4121.09375
-14.33857314,-198811,128,-13.20006111,-183025,128,-50161,-3.617693021,16383,1.181568644,4608,4140.625
-14.29385773,-198191,128,-13.19732048,-182987,128,-49263,-3.552927798,15808,1.140098708,5248,4160.15625
-14.39165466,-199547,128,-13.27824095,-184109,128,-49541,-3.572977611,16327,1.177529833,5888,4179.6875
-14.47257512,-200669,128,-13.32223515,-184719,128,-55695,-4.016814115,14371,1.036459927,6528,4199.21875
-14.5528465,-201782,128,-13.39046221,-185665,128,-55161,-3.978301165,15358,1.107643975,7168,4218.75
-14.53560943,-201543,128,-13.37207119,-185410,128,-54274,-3.91432928,16376,1.181063793,7808,4238.28125
-14.59345097,-202345,128,-13.40128045,-185815,128,-57281,-4.131199018,15875,1.144930857,8448,4257.8125
-14.59460492,-202361,128,-13.38635127,-185608,128,-53697,-3.8727151,15847,1.142911451,9088,4277.34375
-14.6111929,-202591,128,-13.40856474,-185916,128,-54848,-3.955727095,14337,1.034007792,9728,4296.875
-14.60874076,-202557,128,-13.38079791,-185531,128,-56575,-4.080281148,15457,1.114784016,10368,4316.40625
-14.56200594,-201909,128,-13.35880081,-185226,128,-57225,-4.127160207,16128,1.163177629,11008,4335.9375
-14.5688575,-202004,128,-13.35973839,-185239,128,-54216,-3.910146226,16257,1.172481319,11648,4355.46875
-14.60563953,-202514,128,-13.4001265,-185799,128,-53313,-3.845020395,14462,1.043022995,12288,4375
-14.59410007,-202354,128,-13.35216562,-185134,128,-56288,-4.059582241,15808,1.140098708,12928,4394.53125
-14.58371455,-202210,128,-13.33644311,-184916,128,-56177,-4.05157674,15886,1.145724195,13568,4414.0625
-14.60563953,-202514,128,-13.35360805,-185154,128,-54209,-3.909641374,15614,1.126107112,14208,4433.59375
-14.6052068,-202508,128,-13.3397607,-184962,128,-57281,-4.131199018,15612,1.125962868,14848,4453.125
-14.64840766,-203107,128,-13.39406829,-185715,128,-55044,-3.969862934,15887,1.145796316,15488,4472.65625
-14.6532398,-203174,128,-13.36933057,-185372,128,-54305,-3.916565051,16067,1.15877821,16128,4492.1875
-14.61371715,-202626,128,-13.34437649,-185026,128,-53313,-3.845020395,15422,1.112259759,16768,4511.71875
-14.67639085,-203495,128,-13.39197676,-185686,128,-56864,-4.101124299,15361,1.10786034,17408,4531.25
-14.66852959,-203386,128,-13.41332476,-185982,128,-54910,-3.960198636,15494,1.117452516,18048,4550.78125
-14.64509006,-203061,128,-13.37885062,-185504,128,-61697,-4.449688131,15936,1.149330276,18688,4570.3125
-14.66283198,-203307,128,-13.39002948,-185659,128,-55291,-3.987676977,15391,1.110023988,19328,4589.84375
-14.6372288,-202952,128,-13.36240689,-185276,128,-54272,-3.914185037,16287,1.174644968,19968,4609.375
-14.68547817,-203621,128,-13.43207639,-186242,128,-61441,-4.431224994,15583,1.123871341,20608,4628.90625
-14.60758681,-202541,128,-13.40697806,-185894,128,-54785,-3.951183432,15615,1.126179233,21248,4648.4375
-14.51873297,-201309,128,-13.37192695,-185408,128,-55293,-3.98782122,15910,1.147455114,21888,4667.96875
-14.50596744,-201132,128,-13.34264557,-185002,128,-54009,-3.895217049,15952,1.150484222,22528,4687.5
-14.55702955,-201840,128,-13.34711711,-185064,128,-49347,-3.558986015,15779,1.13800718,23168,4707.03125
-14.59135945,-202316,128,-13.37473969,-185447,128,-56448,-4.071121701,14847,1.070789822,23808,4726.5625
-14.61963113,-202708,128,-13.40192955,-185824,128,-50688,-3.655701119,15374,1.108797921,24448,4746.09375
-14.65461012,-203193,128,-13.42738848,-186177,128,-57313,-4.13350691,15984,1.152792114,25088,4765.625
-14.60441346,-202497,128,-13.38058154,-185528,128,-56384,-4.066505917,15615,1.126179233,25728,4785.15625
-14.35624294,-199056,128,-13.21224966,-183194,128,-56072,-4.044003969,15999,1.153873939,26368,4804.6875
-13.37863426,-185501,128,-12.97136342,-179854,128,-49030,-3.536123459,259,0.018679502,27008,4824.21875
-14.51519901,-201260,128,-13.46669477,-186722,128,-54304,-3.916492929,15613,1.12603499,27648,4843.75
-14.58176727,-202183,128,-13.41022353,-185939,128,-50692,-3.655989606,15161,1.093436014,28288,4863.28125
-14.55154831,-201764,128,-13.34437649,-185026,128,-50173,-3.618558481,15486,1.116875543,28928,4882.8125
-14.56344838,-201929,128,-13.38563006,-185598,128,-57085,-4.117063179,15159,1.093291771,29568,4902.34375
-14.51772326,-201295,128,-13.34488134,-185033,128,-53481,-3.857136829,15760,1.13663687,30208,4921.875
-14.53575367,-201545,128,-13.33586613,-184908,128,-56905,-4.104081285,15495,1.117524638,30848,4941.40625
-14.53171486,-201489,128,-13.3537523,-185156,128,-53370,-3.849131328,16383,1.181568644,31488,4960.9375
-14.45584291,-200437,128,-13.29966108,-184406,128,-53248,-3.840332489,15385,1.109591259,32128,4980.46875
-14.46680539,-200589,128,-13.29670409,-184365,128,-53309,-3.844731908,15473,1.115937962,32768,5000
-14.40009289,-199664,128,-13.24867108,-183699,128,-50430,-3.637093739,15428,1.112692489,33408,5019.53125
-14.36129145,-199126,128,-13.2043884,-183085,128,-51201,-3.692699515,15907,1.147238749,34048,5039.0625
-14.32458154,-198617,128,-13.18888225,-182870,128,-49792,-3.59108014,14339,1.034152035,34688,5058.59375
-14.22952524,-197299,128,-13.12642492,-182004,128,-50929,-3.673082432,16352,1.179332874,35328,5078.125
-14.27510611,-197931,128,-13.18174221,-182771,128,-49663,-3.58177645,15103,1.089252959,35968,5097.65625
-14.35393505,-199024,128,-13.28365007,-184184,128,-51185,-3.691545569,16080,1.159715791,36608,5117.1875
-14.41055052,-199809,128,-13.3124266,-184583,128,-49155,-3.545138662,15359,1.107716096,37248,5136.71875
-14.45865565,-200476,128,-13.33117823,-184843,128,-53257,-3.840981584,15391,1.110023988,37888,5156.25
-14.43045609,-200085,128,-13.29612712,-184357,128,-53249,-3.840404611,15971,1.151854533,38528,5175.78125
-14.47740727,-200736,128,-13.36168568,-185266,128,-57329,-4.134660856,16352,1.179332874,39168,5195.3125
-14.41898875,-199926,128,-13.29648772,-184362,128,-49153,-3.544994419,16131,1.163393994,39808,5214.84375
-14.48231154,-200804,128,-13.35952203,-185236,128,-53636,-3.868315681,16286,1.174572846,40448,5234.375
-14.43197065,-200106,128,-13.31660966,-184641,128,-49249,-3.551918096,15998,1.153801817,41088,5253.90625
-14.42569607,-200019,128,-13.29915622,-184399,128,-49155,-3.545138662,15879,1.145219343,41728,5273.4375
-14.4254797,-200016,128,-13.32050423,-184695,128,-55311,-3.989119409,16143,1.164259453,42368,5292.96875
-14.41992634,-199939,128,-13.28393856,-184188,128,-53049,-3.825980285,15900,1.146733898,43008,5312.5
-14.40874748,-199784,128,-13.29050163,-184279,128,-52349,-3.775495145,16102,1.161302467,43648,5332.03125
-14.38155763,-199407,128,-13.26720634,-183956,128,-49812,-3.592522573,15388,1.109807624,44288,5351.5625
-14.41898875,-199926,128,-13.29194406,-184299,128,-49388,-3.561943002,15298,1.103316677,44928,5371.09375
-14.40672808,-199756,128,-13.28545312,-184209,128,-50049,-3.609615399,16380,1.181352279,45568,5390.625
-14.38076429,-199396,128,-13.24477652,-183645,128,-52253,-3.768571468,16159,1.165413399,46208,5410.15625
-14.43499976,-200148,128,-13.27867368,-184115,128,-53241,-3.839827638,15934,1.149186033,46848,5429.6875
-14.39439528,-199585,128,-13.24311772,-183622,128,-52577,-3.791938876,15363,1.108004583,47488,5449.21875
-14.43161004,-200101,128,-13.27975551,-184130,128,-49403,-3.563024826,15360,1.107788218,48128,5468.75
-14.41833966,-199917,128,-13.27643791,-184084,128,-53012,-3.823311785,16147,1.16454794,48768,5488.28125
-14.42576819,-200020,128,-13.27362517,-184045,128,-51183,-3.691401326,16316,1.176736495,49408,5507.8125
-14.39749651,-199628,128,-13.23857406,-183559,128,-52679,-3.799295282,15376,1.108942164,50048,5527.34375
-14.39800136,-199635,128,-13.29497317,-184341,128,-53280,-3.842640381,15404,1.11096157,50688,5546.875
-14.29926685,-198266,128,-13.22869339,-183422,128,-53248,-3.840332489,16326,1.177457711,51328,5566.40625
-14.2971032,-198236,128,-13.229054,-183427,128,-50179,-3.61899121,16383,1.181568644,51968,5585.9375
-14.38465886,-199450,128,-13.23857406,-183559,128,-50153,-3.617116048,16380,1.181352279,52608,5605.46875
-14.38653402,-199476,128,-13.22559216,-183379,128,-50259,-3.624760941,16359,1.179837725,53248,5625
-14.44877499,-200339,128,-13.28047672,-184140,128,-49407,-3.563313313,16381,1.181424401,53888,5644.53125
-14.43052822,-200086,128,-13.23749223,-183544,128,-52276,-3.770230266,15931,1.148969668,54528,5664.0625
-14.48699945,-200869,128,-13.30759446,-184516,128,-49346,-3.558913894,16344,1.178755901,55168,5683.59375
-13.70397493,-190012,128,-12.95225119,-179589,128,-64968,-4.685597978,199,0.014352204,55808,5703.125
-13.4734742,-186816,128,-12.92643165,-179231,128,-48672,-3.510303916,16320,1.177024982,56448,5722.65625
-14.51022262,-201191,128,-13.35115592,-185120,128,-53280,-3.842640381,16157,1.165269156,57088,5742.1875
-14.44105797,-200232,128,-13.24585834,-183660,128,-52332,-3.774269077,16380,1.181352279,57728,5761.71875
-14.41538267,-199876,128,-13.22378912,-183354,128,-52354,-3.775855753,16381,1.181424401,58368,5781.25
-14.46377629,-200547,128,-13.28249613,-184168,128,-51186,-3.691617691,15364,1.108076705,59008,5800.78125
-14.44250041,-200252,128,-13.20792236,-183134,128,-50176,-3.618774845,16320,1.177024982,59648,5820.3125
-14.45742958,-200459,128,-13.25501779,-183787,128,-49404,-3.563096948,15613,1.12603499,60288,5839.84375
-14.44394284,-200272,128,-13.19674351,-182979,128,-50145,-3.616539075,16304,1.175871036,60928,5859.375
-14.40167956,-199686,128,-13.16515424,-182541,128,-52993,-3.821941474,16383,1.181568644,61568,5878.90625
-14.39122193,-199541,128,-13.16811123,-182582,128,-49537,-3.572689125,15887,1.145796316,62208,5898.4375
-14.35480051,-199036,128,-13.11906852,-181902,128,-49168,-3.546076244,16320,1.177024982,62848,5917.96875
-14.30655114,-198367,128,-13.03504682,-180737,128,-49153,-3.544994419,30721,2.215648558,63488,5937.5
-14.26652363,-197812,128,-13.03555167,-180744,128,-49928,-3.600888682,16335,1.178106806,64128,5957.03125
-14.22743371,-197270,128,-13.01939643,-180520,128,-49160,-3.545499271,16142,1.164187332,64768,5976.5625
-14.30265657,-198313,128,-13.07110763,-181237,128,-49661,-3.581632207,14784,1.06624616,65408,5996.09375
-14.48079699,-200783,128,-13.17380883,-182661,128,-53217,-3.838096719,16272,1.173563143,512,6015.625
-14.52810878,-201439,128,-13.22451034,-183364,128,-52292,-3.771384212,15360,1.107788218,1152,6035.15625
-14.58234424,-202191,128,-13.22076001,-183312,128,-52752,-3.804560161,16129,1.163249751,1792,6054.6875
-14.56337626,-201928,128,-13.18996408,-182885,128,-49213,-3.549321717,16188,1.167504927,2432,6074.21875
-14.59734554,-202399,128,-13.22328427,-183347,128,-53216,-3.838024597,14467,1.043383603,3072,6093.75
-14.38891404,-199509,128,-13.00966001,-180385,128,-49153,-3.544994419,29923,2.158095498,3712,6113.28125
-14.35826234,-199084,128,-12.96198761,-179724,128,-65508,-4.724543658,16192,1.167793413,4352,6132.8125
-14.38689463,-199481,128,-12.98203742,-180002,128,-65442,-4.71978363,15487,1.116947665,4992,6152.34375
-14.42136877,-199959,128,-12.99487507,-180180,128,-65476,-4.722235766,15999,1.153873939,5632,6171.875
-14.46161264,-200517,128,-13.00475574,-180317,128,-49279,-3.554081744,15615,1.126179233,6272,6191.40625
-14.46839207,-200611,128,-13.00706363,-180349,128,-49215,-3.54946596,15391,1.110023988,6912,6210.9375
-14.50481349,-201116,128,-13.03353227,-180716,128,-49408,-3.563385435,15911,1.147527235,7552,6230.46875
-14.55609197,-201827,128,-13.04658628,-180897,128,-49889,-3.598075938,16383,1.181568644,8192,6250
-14.55457742,-201806,128,-13.06129909,-181101,128,-49520,-3.571463057,16368,1.18048682,8832,6269.53125
-14.59748979,-202401,128,-13.06858338,-181202,128,-49169,-3.546148365,15871,1.14464237,9472,6289.0625
-14.59446068,-202359,128,-13.04947115,-180937,128,-50113,-3.614231183,16364,1.180198333,10112,6308.59375
-14.66499563,-203337,128,-13.11127938,-181794,128,-50946,-3.6743085,15367,1.108293069,10752,6328.125
-14.66225501,-203299,128,-13.10349025,-181686,128,-50238,-3.623246386,15813,1.140459316,11392,6347.65625
-14.6505713,-203137,128,-13.07117976,-181238,128,-49201,-3.548456257,16255,1.172337076,12032,6367.1875
-14.68100663,-203559,128,-13.10752906,-181742,128,-49408,-3.563385435,15485,1.116803422,12672,6386.71875
-14.63398333,-202907,128,-13.05675543,-181038,128,-49601,-3.577304909,15367,1.108293069,13312,6406.25
-14.71418258,-204019,128,-13.12260248,-181951,128,-51200,-3.692627393,15117,1.090262662,13952,6425.78125
-14.72319778,-204144,128,-13.12628068,-182002,128,-51186,-3.691617691,16272,1.173563143,14592,6445.3125
-14.69470974,-203749,128,-13.10839452,-181754,128,-50302,-3.627862171,15391,1.110023988,15232,6464.84375
-14.73019358,-204241,128,-13.13457467,-182117,128,-51197,-3.692411028,15887,1.145796316,15872,6484.375
-14.73113116,-204254,128,-13.14056076,-182200,128,-51104,-3.685703717,16131,1.163393994,16512,6503.90625
-14.71144196,-203981,128,-13.13089646,-182066,128,-50970,-3.676039419,16131,1.163393994,17152,6523.4375
-14.59309037,-202340,128,-13.05545724,-181020,128,-49948,-3.602331114,24607,1.774696919,17792,6542.96875
-14.6838915,-203599,128,-13.12382855,-181968,128,-50704,-3.656855065,16056,1.157984872,18432,6562.5
-14.65893741,-203253,128,-13.08005072,-181361,128,-50297,-3.627501563,15881,1.145363587,19072,6582.03125
-14.81284497,-205387,128,-13.15967299,-182465,128,-57537,-4.149662155,8117,0.585411261,19712,6601.5625
-13.18390586,-182801,128,-302.5000361,-4194304,153,-65536,-4.726563063,0,0,20352,6621.09375
-15.00879943,-208104,128,-13.18051615,-182754,128,-59373,-4.282077465,8079,0.582670639,20992,6640.625
-14.96869981,-207548,128,-13.15296568,-182372,128,-51657,-3.725586978,7999,0.576900909,21632,6660.15625
-14.761278,-204672,128,-13.0076406,-180357,128,-49407,-3.563313313,16641,1.200176024,22272,6679.6875
-13.69950339,-189950,128,-12.76733133,-177025,128,-64640,-4.661942084,32766,2.363137288,22912,6699.21875
-14.39677529,-199618,128,-13.07738222,-181324,128,-65407,-4.717259373,4352,0.313873328,23552,6718.75
-14.90270852,-206633,128,-13.21239391,-183196,128,-51969,-3.748088926,6213,0.44809168,24192,6738.28125
-14.86542164,-206116,128,-13.16522636,-182542,128,-51215,-3.693709218,7423,0.53535885,24832,6757.8125
-14.86542164,-206116,128,-13.13745953,-182157,128,-49648,-3.580694625,8051,0.580651233,25472,6777.34375
-14.88006233,-206319,128,-13.14250805,-182227,128,-51188,-3.691761934,8175,0.589594315,26112,6796.875
-14.85027609,-205906,128,-13.09555687,-181576,128,-49395,-3.562447853,7712,0.556202001,26752,6816.40625
-14.89491938,-206525,128,-13.14647474,-182282,128,-49167,-3.546004122,7113,0.513001145,27392,6835.9375
-14.80830131,-205324,128,-13.09382595,-181552,128,-50689,-3.655773241,7684,0.554182596,28032,6855.46875
-14.82063411,-205495,128,-13.08077193,-181371,128,-49336,-3.558192677,7664,0.552740163,28672,6875
-14.74569973,-204456,128,-13.00035632,-180256,128,-50056,-3.61012025,16159,1.165413399,29312,6894.53125
-14.71036013,-203966,128,-12.98506653,-180044,128,-49405,-3.56316907,16267,1.173202535,29952,6914.0625
-14.7072589,-203923,128,-12.98946595,-180105,128,-65508,-4.724543658,16382,1.181496523,30592,6933.59375
-14.65165313,-203152,128,-12.94164931,-179442,128,-64561,-4.656244475,16380,1.181352279,31232,6953.125
-14.6218669,-202739,128,-12.95802092,-179669,128,-65473,-4.722019401,15600,1.125097409,31872,6972.65625
-14.70747527,-203926,128,-13.04406202,-180862,128,-49153,-3.544994419,16270,1.1734189,32512,6992.1875
-14.79769943,-205177,128,-13.11978973,-181912,128,-51073,-3.683467946,14364,1.035955076,33152,7011.71875
-14.82113896,-205502,128,-13.11704911,-181874,128,-49170,-3.546220487,8130,0.586348842,33792,7031.25
-14.8609501,-206054,128,-13.16897668,-182594,128,-52249,-3.768282982,7934,0.572213003,34432,7050.78125
-14.83873663,-205746,128,-13.1573651,-182433,128,-51393,-3.706546868,7991,0.576323936,35072,7070.3125
-14.83931361,-205754,128,-13.16450514,-182532,128,-51220,-3.694069826,8159,0.588440369,35712,7089.84375
-14.84703062,-205861,128,-13.17366459,-182659,128,-51204,-3.69291588,8134,0.586637328,36352,7109.375
-14.83448146,-205687,128,-13.18282404,-182786,128,-51201,-3.692699515,8188,0.590531896,36992,7128.90625
-14.87248956,-206214,128,-13.2190291,-183288,128,-51711,-3.729481546,7151,0.515741767,37632,7148.4375
-14.82077835,-205497,128,-13.16421666,-182528,128,-51360,-3.704166854,7967,0.574593016,38272,7167.96875
-14.7956079,-205148,128,-13.16162028,-182492,128,-50116,-3.614447548,7294,0.52605516,38912,7187.5
-14.81241224,-205381,128,-13.17575612,-182688,128,-51613,-3.722413626,7411,0.534493391,39552,7207.03125
-14.75529191,-204589,128,-13.14250805,-182227,128,-50176,-3.618774845,7807,0.563053556,40192,7226.5625
-14.65107616,-203144,128,-13.05588997,-181026,128,-50176,-3.618774845,16381,1.181424401,40832,7246.09375
-14.67170294,-203430,128,-13.06916035,-181210,128,-49153,-3.544994419,15615,1.126179233,41472,7265.625
-14.68497332,-203614,128,-13.08005072,-181361,128,-49663,-3.58177645,15488,1.117019786,42112,7285.15625
-14.71937534,-204091,128,-13.12729038,-182016,128,-51088,-3.684549771,16134,1.163610359,42752,7304.6875
-14.70949468,-203954,128,-13.11784245,-181885,128,-51172,-3.690607988,16371,1.180703185,43392,7324.21875
-14.7105765,-203969,128,-13.12289096,-181955,128,-50881,-3.669620594,15135,1.091560852,44032,7343.75
-14.70076796,-203833,128,-13.12418915,-181973,128,-49541,-3.572977611,15463,1.115216746,44672,7363.28125
-14.75283977,-204555,128,-13.16162028,-182492,128,-49279,-3.554081744,15296,1.103172434,45312,7382.8125
-14.72500083,-204169,128,-13.14849414,-182310,128,-49153,-3.544994419,15933,1.149113911,45952,7402.34375
-14.72521719,-204172,128,-13.16075482,-182480,128,-51133,-3.687795244,15328,1.105480326,46592,7421.875
-14.76675925,-204748,128,-13.18195858,-182774,128,-49663,-3.58177645,14815,1.06848193,47232,7441.40625
-14.70884558,-203945,128,-13.15217235,-182361,128,-50948,-3.674452743,16382,1.181496523,47872,7460.9375
-14.70985528,-203959,128,-13.15476872,-182397,128,-49165,-3.545859879,16129,1.163249751,48512,7480.46875
-14.65785559,-203238,128,-13.15613903,-182416,128,-51199,-3.692555272,16383,1.181568644,49152,7500
-14.59943707,-202428,128,-13.13075222,-182064,128,-49160,-3.545499271,16147,1.16454794,49792,7519.53125
-14.59496553,-202366,128,-13.11221696,-181807,128,-49648,-3.580694625,16142,1.164187332,50432,7539.0625
-14.64840766,-203107,128,-13.14827778,-182307,128,-49407,-3.563313313,14351,1.035017495,51072,7558.59375
-14.69672915,-203777,128,-13.16919305,-182597,128,-49169,-3.546148365,16358,1.179765604,51712,7578.125
-14.70819649,-203936,128,-13.15130689,-182349,128,-49209,-3.54903323,16335,1.178106806,52352,7597.65625
-14.69398853,-203739,128,-13.18275192,-182785,128,-52224,-3.766479941,16128,1.163177629,52992,7617.1875
-14.74901733,-204502,128,-13.2263855,-183390,128,-51203,-3.692843758,16128,1.163177629,53632,7636.71875
-14.53798944,-201576,128,-12.9916296,-180135,128,-65412,-4.717619981,25848,1.864199861,54272,7656.25
-13.72034654,-190239,128,-12.85337244,-178218,128,-48193,-3.475757656,16071,1.159066696,54912,7675.78125
-14.58306546,-202201,128,-13.2477335,-183686,128,-52231,-3.766984793,15216,1.097402703,55552,7695.3125
-14.70076796,-203833,128,-13.19407501,-182942,128,-49368,-3.560500569,16383,1.181568644,56192,7714.84375
-14.68908425,-203671,128,-13.16955366,-182602,128,-49401,-3.562880583,16128,1.163177629,56832,7734.375
-14.67804965,-203518,128,-13.16450514,-182532,128,-49302,-3.555740542,16378,1.181208036,57472,7753.90625
-14.66333683,-203314,128,-13.12354006,-181964,128,-49161,-3.545571392,15375,1.108870042,58112,7773.4375
-14.62107356,-202728,128,-13.08026708,-181364,128,-49154,-3.545066541,14344,1.034512643,58752,7792.96875
-14.67220779,-203437,128,-13.1413541,-182211,128,-51200,-3.692627393,15423,1.112331881,59392,7812.5
-14.61818869,-202688,128,-13.0936817,-181550,128,-50992,-3.677626095,15424,1.112404002,60032,7832.03125
-14.62641056,-202802,128,-13.08589257,-181442,128,-49153,-3.544994419,15375,1.108870042,60672,7851.5625
-14.57376177,-202072,128,-13.01485276,-180457,128,-50176,-3.618774845,15382,1.109374894,61312,7871.09375
-14.53286881,-201505,128,-12.99653387,-180203,128,-49279,-3.554081744,15389,1.109879745,61952,7890.625
-14.48743218,-200875,128,-12.98117196,-179990,128,-65485,-4.72288486,16143,1.164259453,62592,7910.15625
-14.43096095,-200092,128,-12.94597661,-179502,128,-64593,-4.658552368,16011,1.154739398,63232,7929.6875
-14.45757383,-200461,128,-12.99970722,-180247,128,-64648,-4.662519057,15119,1.090406905,63872,7949.21875
-14.55075497,-201753,128,-13.0649773,-181152,128,-50144,-3.616466953,16383,1.181568644,64512,7968.75
-14.61811657,-202687,128,-13.13666619,-182146,128,-49389,-3.562015124,14591,1.052326685,65152,7988.28125
-14.62547298,-202789,128,-13.11704911,-181874,128,-49696,-3.584156464,15452,1.114423408,256,8007.8125
-14.63751729,-202956,128,-13.12137641,-181934,128,-51313,-3.700777137,15973,1.151998776,896,8027.34375
-14.64307066,-203033,128,-13.13053586,-182061,128,-50137,-3.615962102,16380,1.181352279,1536,8046.875
-14.66384168,-203321,128,-13.15512933,-182402,128,-49155,-3.545138662,16380,1.181352279,2176,8066.40625
-14.68381938,-203598,128,-13.15181174,-182356,128,-51101,-3.685487352,15472,1.11586584,2816,8085.9375
-14.64105125,-203005,128,-13.11611153,-181861,128,-49249,-3.551918096,16129,1.163249751,3456,8105.46875
-14.64090701,-203003,128,-13.11640002,-181865,128,-50116,-3.614447548,15934,1.149186033,4096,8125
-14.65540345,-203204,128,-13.12447764,-181977,128,-49729,-3.586536477,15932,1.14904179,4736,8144.53125
-14.61544807,-202650,128,-13.10392298,-181692,128,-49584,-3.576078841,14591,1.052326685,5376,8164.0625
-14.65915378,-203256,128,-13.12195338,-181942,128,-50417,-3.636156158,16381,1.181424401,6016,8183.59375
-14.55565924,-201821,128,-13.02588737,-180610,128,-50793,-3.66327389,24637,1.776860568,6656,8203.125
-14.61241896,-202608,128,-13.08156527,-181382,128,-50148,-3.61675544,15424,1.112404002,7296,8222.65625
-14.63585849,-202933,128,-13.09685506,-181594,128,-50958,-3.675173959,16383,1.181568644,7936,8242.1875
-14.619559,-202707,128,-13.06584276,-181164,128,-49521,-3.571535179,15395,1.110312475,8576,8261.71875
-14.64552279,-203067,128,-13.08084405,-181372,128,-49156,-3.545210784,16383,1.181568644,9216,8281.25
-14.66102894,-203282,128,-13.10825027,-181752,128,-50976,-3.676472148,16128,1.163177629,9856,8300.78125
-14.65158101,-203151,128,-13.07615615,-181307,128,-50673,-3.654619295,15601,1.125169531,10496,8320.3125
-14.68172785,-203569,128,-13.10745694,-181741,128,-49457,-3.566919394,16371,1.180703185,11136,8339.84375
-14.66860171,-203387,128,-13.07997859,-181360,128,-50304,-3.628006414,15875,1.144930857,11776,8359.375
-14.67768904,-203513,128,-13.0916623,-181522,128,-51129,-3.687506758,15414,1.111682786,12416,8378.90625
-14.68396362,-203600,128,-13.08820046,-181474,128,-50178,-3.618919089,15391,1.110023988,13056,8398.4375
-14.66982778,-203404,128,-13.07464159,-181286,128,-49186,-3.547374433,16382,1.181496523,13696,8417.96875
-14.71079286,-203972,128,-13.11041392,-181782,128,-51007,-3.678707919,15284,1.102306974,14336,8437.5
-14.67134233,-203425,128,-13.1013266,-181656,128,-49184,-3.54723019,15367,1.108293069,14976,8457.03125
-14.60578377,-202516,128,-13.06454457,-181146,128,-49280,-3.554153866,16348,1.179044387,15616,8476.5625
-14.60578377,-202516,128,-13.03901351,-180792,128,-49156,-3.545210784,15398,1.11052884,16256,8496.09375
-14.71194681,-203988,128,-13.0696652,-181217,128,-49650,-3.580838869,16382,1.181496523,16896,8515.625
-14.77541384,-204868,128,-13.10103811,-181652,128,-49649,-3.580766747,15363,1.108004583,17536,8535.15625
-14.78954968,-205064,128,-13.08892168,-181484,128,-50800,-3.663778742,8184,0.59024341,18176,8554.6875
-14.82041774,-205492,128,-13.11402,-181832,128,-49665,-3.581920693,8184,0.59024341,18816,8574.21875
-14.84566031,-205842,128,-13.11214484,-181806,128,-50704,-3.656855065,7150,0.515669646,19456,8593.75
-14.39655893,-199615,128,-12.81009946,-177618,128,-65311,-4.710335697,24611,1.774985406,20096,8613.28125
-13.70923981,-190085,128,-12.71641346,-176319,128,-49151,-3.544850176,6523,0.470449385,20736,8632.8125
-14.87955748,-206312,128,-13.17121246,-182625,128,-49281,-3.554225988,14280,1.029896859,21376,8652.34375
-14.84017907,-205766,128,-13.06526578,-181156,128,-49161,-3.545571392,7812,0.563414164,22016,8671.875
-14.8843175,-206378,128,-13.04817296,-180919,128,-50425,-3.636733131,7668,0.553028649,22656,8691.40625
-14.95413124,-207346,128,-13.0959896,-181582,128,-50969,-3.675967297,6271,0.452274734,23296,8710.9375
-14.92167651,-206896,128,-13.03519106,-180739,128,-50145,-3.616539075,8176,0.589666437,23936,8730.46875
-14.94360148,-207200,128,-13.04456688,-180869,128,-49183,-3.547158068,8184,0.59024341,24576,8750
-14.91035341,-206739,128,-13.03569591,-180746,128,-49154,-3.545066541,7228,0.521295133,25216,8769.53125
-14.90004002,-206596,128,-13.00201511,-180279,128,-49224,-3.550115055,8190,0.59067614,25856,8789.0625
-14.95362639,-207339,128,-13.03144074,-180687,128,-49985,-3.604999614,7169,0.517039957,26496,8808.59375
-14.84674213,-205857,128,-12.93357169,-179330,128,-65096,-4.694829547,8142,0.587214301,27136,8828.125
-14.92448925,-206935,128,-12.93306684,-179323,128,-65409,-4.717403617,8065,0.581660936,27776,8847.65625
-14.8362845,-205712,128,-12.90075635,-178875,128,-64004,-4.616072728,7292,0.525910917,28416,8867.1875
-14.77108655,-204808,128,-12.87435983,-178509,128,-63489,-4.578930089,8135,0.58670945,29056,8886.71875
-14.78334722,-204978,128,-12.90674244,-178958,128,-65281,-4.708172048,8190,0.59067614,29696,8906.25
-14.91504132,-206804,128,-13.00035632,-180256,128,-65309,-4.710191454,7089,0.511270226,30336,8925.78125
-14.97345984,-207614,128,-13.05228389,-180976,128,-50176,-3.618774845,8178,0.58981068,30976,8945.3125
-14.93076383,-207022,128,-13.00836182,-180367,128,-49537,-3.572689125,7302,0.526632133,31616,8964.84375
-14.89650606,-206547,128,-12.98275864,-180012,128,-65506,-4.724399415,7679,0.553821987,32256,8984.375
-14.88568781,-206397,128,-12.98023438,-179977,128,-65289,-4.708749021,7619,0.54949469,32896,9003.90625
-14.89643394,-206546,128,-13.00259209,-180287,128,-65121,-4.696632588,7167,0.516895713,33536,9023.4375
-14.87905262,-206305,128,-13.00057268,-180259,128,-49203,-3.548600501,7711,0.556129879,34176,9042.96875
-14.84580455,-205844,128,-12.99220657,-180143,128,-65532,-4.726274577,8189,0.590604018,34816,9062.5
-14.83513055,-205696,128,-12.96379065,-179749,128,-65029,-4.689997398,7808,0.563125677,35456,9082.03125
-14.82380746,-205539,128,-12.96451187,-179759,128,-65536,-4.726563063,7392,0.53312308,36096,9101.5625
-14.81854258,-205466,128,-12.9412887,-179437,128,-64521,-4.65335961,8162,0.588656734,36736,9121.09375
-14.66420229,-203326,128,-12.81796072,-177727,128,-62385,-4.499307811,16254,1.172264954,37376,9140.625
-14.73387179,-204292,128,-12.85654579,-178262,128,-65469,-4.721730914,15362,1.107932461,38016,9160.15625
-14.7485846,-204496,128,-12.89534723,-178800,128,-64104,-4.623284891,14652,1.056726105,38656,9179.6875
-14.72839054,-204216,128,-12.87782167,-178557,128,-64570,-4.65689357,15396,1.110384597,39296,9199.21875
-14.76199922,-204682,128,-12.90133332,-178883,128,-64481,-4.650474745,15414,1.111682786,39936,9218.75
-14.76264832,-204691,128,-12.91171883,-179027,128,-64511,-4.652638394,15632,1.127405301,40576,9238.28125
-14.7715914,-204815,128,-12.93782686,-179389,128,-64672,-4.664249976,8176,0.589666437,41216,9257.8125
-14.75947496,-204647,128,-12.91388248,-179057,128,-65028,-4.689925276,15743,1.135410802,41856,9277.34375
-14.7789478,-204917,128,-12.92506134,-179212,128,-65521,-4.725481239,7836,0.565145083,42496,9296.875
-14.7709423,-204806,128,-12.94359659,-179469,128,-64769,-4.671245774,8184,0.59024341,43136,9316.40625
-14.78406844,-204988,128,-12.92484497,-179209,128,-65535,-4.726490942,15380,1.109230651,43776,9335.9375
-14.73221299,-204269,128,-12.91135823,-179022,128,-64456,-4.648671704,15359,1.107716096,44416,9355.46875
-14.77252898,-204828,128,-12.95225119,-179589,128,-49156,-3.545210784,7343,0.52958912,45056,9375
-14.74916157,-204504,128,-12.95975184,-179693,128,-64767,-4.671101531,16136,1.163754602,45696,9394.53125
-14.72738084,-204202,128,-12.92556619,-179219,128,-64520,-4.653287489,15875,1.144930857,46336,9414.0625
-14.74093971,-204390,128,-12.93999051,-179419,128,-65535,-4.726490942,15864,1.144137519,46976,9433.59375
-14.73452088,-204301,128,-12.94424569,-179478,128,-65288,-4.7086769,16125,1.162961264,47616,9453.125
-14.74988279,-204514,128,-12.99869752,-180233,128,-49410,-3.563529678,7873,0.567813583,48256,9472.65625
-14.68814667,-203658,128,-12.9129449,-179044,128,-64353,-4.641243177,15472,1.11586584,48896,9492.1875
-14.56835265,-201997,128,-12.88863991,-178707,128,-65040,-4.690790736,16288,1.17471709,49536,9511.71875
-14.60491831,-202504,128,-12.88683687,-178682,128,-65536,-4.726563063,15608,1.125674382,50176,9531.25
-14.68692061,-203641,128,-12.92232071,-179174,128,-63507,-4.580228279,15615,1.126179233,50816,9550.78125
-14.71108135,-203976,128,-12.93386017,-179334,128,-65410,-4.717475738,16188,1.167504927,51456,9570.3125
-14.66708716,-203366,128,-12.89001022,-178726,128,-65480,-4.722524252,15865,1.144209641,52096,9589.84375
-14.46175688,-200519,128,-12.68958422,-175947,128,-61952,-4.468079146,25599,1.846241575,52736,9609.375
-14.49969286,-201045,128,-12.74865183,-176766,128,-62461,-4.504789055,16383,1.181568644,53376,9628.90625
-14.10165359,-195526,128,-12.48728305,-173142,128,-61568,-4.44038444,25080,1.80881045,54016,9648.4375
-13.33723644,-184927,128,-12.38544731,-171730,128,-40922,-2.951361293,15537,1.120553746,54656,9667.96875
-14.488514,-200890,128,-12.83014927,-177896,128,-62984,-4.542508667,15464,1.115288867,55296,9687.5
-14.56135685,-201900,128,-12.83995781,-178032,128,-65380,-4.715312089,16350,1.17918863,55936,9707.03125
-14.53041667,-201471,128,-12.79062662,-177348,128,-63419,-4.573881575,16352,1.179332874,56576,9726.5625
-14.51858872,-201307,128,-12.79776666,-177447,128,-65411,-4.71754786,15749,1.135843532,57216,9746.09375
-14.57902665,-202145,128,-12.83159171,-177916,128,-63482,-4.578425238,15943,1.149835128,57856,9765.625
-14.51079959,-201199,128,-12.76560041,-177001,128,-61472,-4.433460764,16257,1.172481319,58496,9785.15625
-14.5625108,-201916,128,-12.84140025,-178052,128,-65409,-4.717403617,16134,1.163610359,59136,9804.6875
-14.52349299,-201375,128,-12.79978607,-177475,128,-63100,-4.550874776,15891,1.146084803,59776,9824.21875
-14.48736006,-200874,128,-12.76740346,-177026,128,-62402,-4.500533879,16198,1.168226143,60416,9843.75
-14.44927984,-200346,128,-12.75571975,-176864,128,-62349,-4.496711433,15587,1.124159828,61056,9863.28125
-14.42663365,-200032,128,-12.7028546,-176131,128,-61441,-4.431224994,16048,1.157407899,61696,9882.8125
-14.35234837,-199002,128,-12.6685247,-175655,128,-58496,-4.218826797,15903,1.146950262,62336,9902.34375
-14.32890884,-198677,128,-12.65994223,-175536,128,-58394,-4.211470391,15384,1.109519137,62976,9921.875
-14.31974939,-198550,128,-12.71749529,-176334,128,-61680,-4.448462063,14458,1.042734509,63616,9941.40625
-14.40434806,-199723,128,-12.77908716,-177188,128,-61946,-4.467646416,15902,1.146878141,64256,9960.9375
-14.46103566,-200509,128,-12.80382488,-177531,128,-65337,-4.712210859,15459,1.114928259,64896,9980.46875
-14.28433767,-198059,128,-12.60585101,-174786,128,-59378,-4.282438073,28799,2.077030787,0,10000
-14.0836953,-195277,128,-12.41927235,-172199,128,-45281,-3.265739473,48,0.003461838,640,10019.53125
-14.09588386,-195446,128,-12.44256764,-172522,128,-45088,-3.251819998,1335,0.096282374,1280,10039.0625
-14.17485704,-196541,128,-12.51815111,-173570,128,-48897,-3.526531282,112,0.008077622,1920,10058.59375
-14.17399158,-196529,128,-12.51988203,-173594,128,-49152,-3.544922298,15,0.001081824,2560,10078.125
-14.23644891,-197395,128,-12.58623392,-174514,128,-49152,-3.544922298,112,0.008077622,3200,10097.65625
-14.20731177,-196991,128,-12.56409258,-174207,128,-59520,-4.292679345,16352,1.179332874,3840,10117.1875
-14.18351164,-196661,128,-12.55623133,-174098,128,-47231,-3.406376649,16381,1.181424401,4480,10136.71875
-14.21300938,-197070,128,-12.60311039,-174748,128,-57540,-4.14987852,16312,1.176448009,5120,10156.25
-14.23644891,-197395,128,-12.60433645,-174765,128,-47903,-3.454842383,16351,1.179260752,5760,10175.78125
-14.18531468,-196686,128,-12.56870837,-174271,128,-47167,-3.401760864,16319,1.17695286,6400,10195.3125
-13.95935761,-193553,128,-12.33229367,-170993,128,-39970,-2.882701502,128,0.009231568,7040,10214.84375
-13.96361279,-193612,128,-12.35753624,-171343,128,-36351,-2.621693328,2960,0.213480021,7680,10234.375
-14.02736831,-194496,128,-12.40686743,-172027,128,-40959,-2.954029793,3136,0.226173428,8320,10253.90625
-14.12545373,-195856,128,-12.50596255,-173401,128,-47136,-3.399525094,2049,0.147777217,8960,10273.4375
-14.09321536,-195409,128,-12.47242599,-172936,128,-49032,-3.536267702,1027,0.074068913,9600,10292.96875
-14.13446893,-195981,128,-12.49536067,-173254,128,-48704,-3.512611808,511,0.036854152,10240,10312.5
-14.12191977,-195807,128,-12.48237878,-173074,128,-57345,-4.135814802,317,0.022862556,10880,10332.03125
-14.20341721,-196937,128,-12.5674823,-174254,128,-47600,-3.43298953,16382,1.181496523,11520,10351.5625
-14.20889845,-197013,128,-12.58443088,-174489,128,-47609,-3.433638624,15873,1.144786614,12160,10371.09375
-14.26017693,-197724,128,-12.57491083,-174357,128,-48625,-3.506914199,16304,1.175871036,12800,10390.625
-14.25801328,-197694,128,-12.60123522,-174722,128,-59965,-4.32477347,16380,1.181352279,13440,10410.15625
-14.23067918,-197315,128,-12.57685811,-174384,128,-47168,-3.401832986,15423,1.112331881,14080,10429.6875
-14.24236289,-197477,128,-12.62575658,-175062,128,-59622,-4.300035751,15374,1.108797921,14720,10449.21875
-14.16555335,-196412,128,-12.6018122,-174730,128,-48642,-3.508140267,0,0,15360,10468.75
-14.1810595,-196627,128,-12.5761369,-174374,128,-48633,-3.507491172,209,0.01507342,16000,10488.28125
-14.27791885,-197970,128,-12.63037236,-175126,128,-48645,-3.508356632,15247,1.099638474,16640,10507.8125
-14.346795,-198925,128,-12.68129023,-175832,128,-57592,-4.153628844,16368,1.18048682,17280,10527.34375
-14.38242309,-199419,128,-12.69355091,-176002,128,-61314,-4.422065547,16368,1.18048682,17920,10546.875
-14.3617963,-199133,128,-12.66931804,-175666,128,-59386,-4.283015046,16257,1.172481319,18560,10566.40625
-14.4051414,-199734,128,-12.69910427,-176079,128,-59343,-4.279913816,16144,1.164331575,19200,10585.9375
-14.11672701,-195735,128,-12.4680987,-172876,128,-47457,-3.422676137,265,0.019112232,19840,10605.46875
-13.64750369,-189229,128,-12.4781236,-173015,128,-33799,-2.437638931,16186,1.167360683,20480,10625
-14.42172938,-199964,128,-12.79279027,-177378,128,-61665,-4.447380238,14560,1.050090915,21120,10644.53125
-14.4254797,-200016,128,-12.69463273,-176017,128,-47120,-3.398371148,16374,1.18091955,21760,10664.0625
-14.45230895,-200388,128,-12.69960912,-176086,128,-61405,-4.428628615,15422,1.112259759,22400,10683.59375
-14.45699685,-200453,128,-12.68936785,-175944,128,-57410,-4.140502708,14591,1.052326685,23040,10703.125
-14.44726043,-200318,128,-12.65301855,-175440,128,-61440,-4.431152872,15886,1.145724195,23680,10722.65625
-14.47069996,-200643,128,-12.68114599,-175830,128,-61440,-4.431152872,15884,1.145579951,24320,10742.1875
-14.47055572,-200641,128,-12.66614469,-175622,128,-58888,-4.247098475,16130,1.163321872,24960,10761.71875
-14.48036426,-200777,128,-12.67624172,-175762,128,-58305,-4.205051566,16371,1.180703185,25600,10781.25
-14.4051414,-199734,128,-12.59755702,-174671,128,-57619,-4.155576128,16352,1.179332874,26240,10800.78125
-14.40427594,-199722,128,-12.57671387,-174382,128,-57406,-4.140214222,16382,1.181496523,26880,10820.3125
-14.41466146,-199866,128,-12.57217021,-174319,128,-57444,-4.142954843,16320,1.177024982,27520,10839.84375
-14.34398226,-198886,128,-12.52702207,-173693,128,-49152,-3.544922298,16128,1.163177629,28160,10859.375
-14.30272869,-198314,128,-12.49709159,-173278,128,-48256,-3.480301318,15376,1.108942164,28800,10878.90625
-14.31837908,-198531,128,-12.54072518,-173883,128,-57360,-4.136896627,16191,1.167721292,29440,10898.4375
-14.41220932,-199832,128,-12.63037236,-175126,128,-48145,-3.472295817,14840,1.070284971,30080,10917.96875
-14.34693925,-198927,128,-12.53127724,-173752,128,-59336,-4.279408965,16112,1.162023683,30720,10937.5
-14.25548902,-197659,128,-12.42028206,-172213,128,-47360,-3.415680339,16383,1.181568644,31360,10957.03125
-14.33063976,-198701,128,-12.48598486,-173124,128,-47232,-3.40644877,15555,1.121851936,32000,10976.5625
-14.31441239,-198476,128,-12.48273939,-173079,128,-57348,-4.136031167,15376,1.108942164,32640,10996.09375
-14.40542989,-199738,128,-12.56084711,-174162,128,-47200,-3.404140878,15298,1.103316677,33280,11015.625
-14.44675558,-200311,128,-12.56870837,-174271,128,-49128,-3.543191378,16320,1.177024982,33920,11035.15625
-14.40492504,-199731,128,-12.56308288,-174193,128,-49021,-3.535474364,16324,1.177313468,34560,11054.6875
-14.44552951,-200294,128,-12.56430895,-174210,128,-48894,-3.526314917,16369,1.180558941,35200,11074.21875
-14.42771547,-200047,128,-12.54930765,-174002,128,-49026,-3.535834972,15889,1.14594056,35840,11093.75
-14.48490792,-200840,128,-12.60657222,-174796,128,-61320,-4.422498277,14527,1.047710901,36480,11113.28125
-14.48368186,-200823,128,-12.58919091,-174555,128,-57600,-4.154205817,16353,1.179404995,37120,11132.8125
-14.48764855,-200878,128,-12.61219771,-174874,128,-57345,-4.135814802,16130,1.163321872,37760,11152.34375
-14.50524622,-201122,128,-12.61428924,-174903,128,-58257,-4.201589728,16254,1.172264954,38400,11171.875
-14.55739016,-201845,128,-12.64609488,-175344,128,-60480,-4.361916108,15311,1.104254258,39040,11191.40625
-14.53726823,-201566,128,-12.624819,-175049,128,-61375,-4.426464966,15619,1.12646772,39680,11210.9375
-14.5602029,-201884,128,-12.624819,-175049,128,-60361,-4.353333635,16132,1.163466115,40320,11230.46875
-14.57664664,-202112,128,-12.64659973,-175351,128,-61344,-4.424229196,15364,1.108076705,40960,11250
-14.5415234,-201625,128,-12.59654732,-174657,128,-61249,-4.417377641,24615,1.775273892,41600,11269.53125
-14.50409228,-201106,128,-12.57736296,-174391,128,-57376,-4.138050573,15935,1.149258155,42240,11289.0625
-14.52731544,-201428,128,-12.56517441,-174222,128,-59600,-4.298449075,15372,1.108653678,42880,11308.59375
-14.53294093,-201506,128,-12.56712169,-174249,128,-59425,-4.28582779,15391,1.110023988,43520,11328.125
-14.50091892,-201062,128,-12.55810649,-174124,128,-48898,-3.526603404,16376,1.181063793,44160,11347.65625
-14.09732629,-195466,128,-12.20384505,-169212,128,-40188,-2.898424017,118,0.008510352,44800,11367.1875
-13.96577644,-193642,128,-12.0636406,-167268,128,-33793,-2.437206201,62,0.004471541,45440,11386.71875
-14.11514033,-195713,128,-12.13201191,-168216,128,-39176,-2.825436929,1023,0.073780426,46080,11406.25
-14.22858765,-197286,128,-12.231684,-169598,128,-38862,-2.802790737,15921,1.148248452,46720,11425.78125
-14.27553883,-197937,128,-12.25541201,-169927,128,-37361,-2.694536173,16335,1.178106806,47360,11445.3125
-14.32616822,-198639,128,-12.30553654,-170622,128,-49280,-3.554153866,15361,1.10786034,48000,11464.84375
-14.43911069,-200205,128,-12.39071219,-171803,128,-40719,-2.936720602,15480,1.116442813,48640,11484.375
-14.22865978,-197287,128,-12.21156206,-169319,128,-40820,-2.944004887,31871,2.298588431,49280,11503.90625
-13.43373518,-186265,128,-12.05635632,-167167,128,-33265,-2.399125981,519,0.037431125,49920,11523.4375
-14.38797645,-199496,128,-12.50033706,-173323,128,-48385,-3.489605008,13312,0.960083122,50560,11542.96875
-14.49803406,-201022,128,-12.43066757,-172357,128,-48129,-3.471141871,16128,1.163177629,51200,11562.5
-14.54556221,-201681,128,-12.4574247,-172728,128,-58104,-4.190555118,15363,1.108004583,51840,11582.03125
-14.5528465,-201782,128,-12.44415432,-172544,128,-57856,-4.172668954,16352,1.179332874,52480,11601.5625
-14.61256321,-202610,128,-12.46615141,-172849,128,-57792,-4.16805317,15494,1.117452516,53120,11621.09375
-14.58602245,-202242,128,-12.44206279,-172515,128,-49151,-3.544850176,16382,1.181496523,53760,11640.625
-14.59676857,-202391,128,-12.43549972,-172424,128,-49092,-3.540595,16161,1.165557643,54400,11660.15625
-14.61883779,-202697,128,-12.45908349,-172751,128,-57360,-4.136896627,15423,1.112331881,55040,11679.6875
-14.60729833,-202537,128,-12.44018763,-172489,128,-58242,-4.200507903,16367,1.180414698,55680,11699.21875
-14.57340116,-202067,128,-12.40520864,-172004,128,-51186,-3.691617691,15935,1.149258155,56320,11718.75
-14.54707677,-201702,128,-12.35097317,-171252,128,-57347,-4.135959045,15871,1.14464237,56960,11738.28125
-14.5361864,-201551,128,-12.35789685,-171348,128,-52242,-3.767778131,15505,1.118245854,57600,11757.8125
-14.5131796,-201232,128,-12.33835189,-171077,128,-50181,-3.619135454,16376,1.181063793,58240,11777.34375
-14.53337366,-201512,128,-12.41025715,-172074,128,-45118,-3.253983647,16376,1.181063793,58880,11796.875
-14.65735074,-203231,128,-12.4701181,-172904,128,-58344,-4.207864309,16176,1.166639467,59520,11816.40625
-14.71980807,-204097,128,-12.50055343,-173326,128,-58817,-4.24197784,15872,1.144714492,60160,11835.9375
-14.86534952,-206115,128,-12.6098177,-174841,128,-64505,-4.652205664,6397,0.461362059,60800,11855.46875
-14.86744104,-206144,128,-12.60931285,-174834,128,-64306,-4.63785346,7118,0.513361754,61440,11875
-14.83354388,-205674,128,-12.56012589,-174152,128,-59464,-4.288640534,7408,0.534277026,62080,11894.53125
-14.88547145,-206394,128,-12.60671647,-174798,128,-65232,-4.704638088,7664,0.552740163,62720,11914.0625
-14.87486957,-206247,128,-12.58104117,-174442,128,-61422,-4.429854683,8184,0.59024341,63360,11933.59375
-14.88417326,-206376,128,-12.56870837,-174271,128,-64768,-4.671173653,7390,0.532978837,64000,11953.125
-14.90407883,-206652,128,-12.5701508,-174291,128,-57363,-4.137112991,7876,0.568029948,64640,11972.65625
-14.90227579,-206627,128,-12.5851521,-174499,128,-65459,-4.721009698,7247,0.522665444,65280,11992.1875
-14.9329996,-207053,128,-12.56950171,-174282,128,-64768,-4.671173653,7952,0.573511192,384,12011.71875
-14.96754586,-207532,128,-12.59121032,-174583,128,-61439,-4.43108075,7174,0.517400565,1024,12031.25
-14.9800229,-207705,128,-12.57599265,-174372,128,-64900,-4.680693708,7175,0.517472686,1664,12050.78125
-14.98132109,-207723,128,-12.59027274,-174570,128,-59873,-4.31813828,7680,0.553894109,2304,12070.3125
-15.01824737,-208235,128,-12.5868109,-174522,128,-59529,-4.293328439,7709,0.555985636,2944,12089.84375
-15.03158987,-208420,128,-12.59813399,-174679,128,-61431,-4.430503777,7295,0.526127282,3584,12109.375
-15.04038871,-208542,128,-12.61508258,-174914,128,-65281,-4.708172048,7522,0.542498892,4224,12128.90625
-15.07868529,-209073,128,-12.6054904,-174781,128,-65088,-4.694252574,4047,0.291876232,4864,12148.4375
-15.0887102,-209212,128,-12.61190922,-174870,128,-61394,-4.427835277,4032,0.290794407,5504,12167.96875
-15.06635249,-208902,128,-12.59741278,-174669,128,-64546,-4.655162651,7207,0.519780579,6144,12187.5
-15.09873511,-209351,128,-12.61645289,-174933,128,-63761,-4.598547172,4093,0.295193827,6784,12207.03125
-15.09498478,-209299,128,-12.62575658,-175062,128,-63942,-4.611601187,4092,0.295121705,7424,12226.5625
-15.10032178,-209373,128,-12.64753731,-175364,128,-61313,-4.421993425,3841,0.277019176,8064,12246.09375
-15.06902099,-208939,128,-12.62921841,-175110,128,-64514,-4.652854759,4063,0.293030178,8704,12265.625
-14.97721016,-207666,128,-12.5851521,-174499,128,-59617,-4.299675143,7886,0.568751165,9344,12285.15625
-14.91518556,-206806,128,-12.55370707,-174063,128,-63457,-4.576622197,7690,0.554615325,9984,12304.6875
-15.00894368,-208106,128,-12.59993703,-174704,128,-63560,-4.584050725,7416,0.534853999,10624,12324.21875
-15.05243302,-208709,128,-12.63628633,-175208,128,-60516,-4.364512487,6395,0.461217816,11264,12343.75
-15.10140361,-209388,128,-12.63340147,-175168,128,-57376,-4.138050573,3840,0.276947054,11904,12363.28125
-15.07681013,-209047,128,-12.63801725,-175232,128,-64640,-4.661942084,3949,0.284808312,12544,12382.8125
-15.07457436,-209016,128,-12.63448329,-175183,128,-65025,-4.689708911,3976,0.286755596,13184,12402.34375
-15.07709862,-209051,128,-12.59286911,-174606,128,-59909,-4.320734658,16497,1.18979051,13824,12421.875
-14.01618946,-194341,128,-12.25050774,-169859,128,-40897,-2.949558252,67,0.004832149,14464,12441.40625
-14.8142874,-205407,128,-12.71814438,-176343,128,-61444,-4.431441358,8096,0.583896707,15104,12460.9375
-15.08618594,-209177,128,-12.69311818,-175996,128,-61436,-4.430864385,3827,0.276009473,15744,12480.46875
-15.00916004,-208109,128,-12.61847229,-174961,128,-65535,-4.726490942,8156,0.588224004,16384,12500
-15.03548444,-208474,128,-12.63332935,-175167,128,-58431,-4.214138891,7202,0.51941997,17024,12519.53125
-15.05185605,-208701,128,-12.65193673,-175425,128,-64513,-4.652782637,6371,0.459486897,17664,12539.0625
-15.0160116,-208204,128,-12.61270256,-174881,128,-61313,-4.421993425,8112,0.585050653,18304,12558.59375
-15.01615584,-208206,128,-12.62178989,-175007,128,-64416,-4.645786839,7870,0.567597218,18944,12578.125
-14.99329328,-207889,128,-12.6118371,-174869,128,-63489,-4.578930089,7143,0.515164794,19584,12597.65625
-14.96675253,-207521,128,-12.59798975,-174677,128,-65473,-4.722019401,8191,0.590748261,20224,12617.1875
-14.89657818,-206548,128,-12.51065046,-173466,128,-57843,-4.171731373,7774,0.560673542,20864,12636.71875
-14.88994299,-206456,128,-12.50956863,-173451,128,-61825,-4.458919699,7552,0.544662541,21504,12656.25
-14.75421009,-204574,128,-12.42756634,-172314,128,-57856,-4.172668954,16355,1.179549239,22144,12675.78125
-14.72954449,-204232,128,-12.41364687,-172121,128,-57369,-4.137545721,16380,1.181352279,22784,12695.3125
-14.68966123,-203679,128,-12.39915042,-171920,128,-53248,-3.840332489,15360,1.107788218,23424,12714.84375
-14.76322529,-204699,128,-12.49557704,-173257,128,-48377,-3.489028035,14399,1.038479333,24064,12734.375
-14.9073243,-206697,128,-12.60909648,-174831,128,-59648,-4.301910913,6272,0.452346856,24704,12753.90625
-14.9123007,-206766,128,-12.61291893,-174884,128,-64320,-4.638863163,7283,0.525261822,25344,12773.4375
-14.91114675,-206750,128,-12.60109098,-174720,128,-63616,-4.588089536,7680,0.553894109,25984,12792.96875
-14.93487477,-207079,128,-12.63239177,-175154,128,-64561,-4.656244475,8072,0.582165787,26624,12812.5
-14.96047794,-207434,128,-12.64696034,-175356,128,-64633,-4.661437233,8179,0.589882802,27264,12832.03125
-14.953987,-207344,128,-12.65676888,-175492,128,-61314,-4.422065547,7960,0.574088165,27904,12851.5625
-14.92535471,-206947,128,-12.62431414,-175042,128,-63938,-4.611312701,8079,0.582670639,28544,12871.09375
-14.88121627,-206335,128,-12.59474428,-174632,128,-65320,-4.710984792,8161,0.588584612,29184,12890.625
-14.86693619,-206137,128,-12.59597034,-174649,128,-65085,-4.694036209,8131,0.586420964,29824,12910.15625
-14.85085307,-205914,128,-12.59135456,-174585,128,-57853,-4.17245259,8167,0.589017342,30464,12929.6875
-14.88922177,-206446,128,-12.61753471,-174948,128,-65532,-4.726274577,7554,0.544806784,31104,12949.21875
-14.85099731,-205916,128,-12.57505507,-174359,128,-61343,-4.424157074,8160,0.588512491,31744,12968.75
-14.85337732,-205949,128,-12.6028219,-174744,128,-65280,-4.708099926,8065,0.581660936,32384,12988.28125
-14.88309144,-206361,128,-12.60960133,-174838,128,-63744,-4.597321105,7671,0.553245014,33024,13007.8125
-14.88265871,-206355,128,-12.6204917,-174989,128,-63879,-4.607057525,7207,0.519780579,33664,13027.34375
-14.88835631,-206434,128,-12.62626143,-175069,128,-63968,-4.61347635,6542,0.471819695,34304,13046.875
-14.89066421,-206466,128,-12.61652501,-174934,128,-57853,-4.17245259,7295,0.526127282,34944,13066.40625
-14.88871692,-206439,128,-12.61025043,-174847,128,-65536,-4.726563063,7677,0.553677744,35584,13085.9375
-14.91987347,-206871,128,-12.66477438,-175603,128,-60660,-4.374898002,8184,0.59024341,36224,13105.46875
-14.86102222,-206055,128,-12.58356542,-174477,128,-57825,-4.170433184,7937,0.572429368,36864,13125
-14.87789868,-206289,128,-12.62005897,-174983,128,-65412,-4.717619981,7727,0.557283826,37504,13144.53125
-14.81183527,-205373,128,-12.62388141,-175036,128,-61436,-4.430864385,7363,0.531031553,38144,13164.0625
-14.74829611,-204492,128,-12.59452791,-174629,128,-65073,-4.693170749,15391,1.110023988,38784,13183.59375
-14.81392679,-205402,128,-12.6071492,-174804,128,-64002,-4.615928485,8162,0.588656734,39424,13203.125
-14.88092779,-206331,128,-12.60274978,-174743,128,-63519,-4.581093738,7680,0.553894109,40064,13222.65625
-14.92405652,-206929,128,-12.65727373,-175499,128,-64905,-4.681054316,8175,0.589594315,40704,13242.1875
-14.97454166,-207629,128,-12.70299884,-176133,128,-65122,-4.696704709,7687,0.55439896,41984,13281.25
-14.91100251,-206748,128,-12.60527403,-174778,128,-65025,-4.689708911,7719,0.556706853,42624,13300.78125
-13.76462922,-190853,128,-12.29882923,-170529,128,-40959,-2.954029793,32588,2.350299639,43264,13320.3125
-14.55998654,-201881,128,-12.65979799,-175534,128,-50234,-3.6229579,0,0,43904,13339.84375
-14.93112444,-207027,128,-12.65712949,-175497,128,-61203,-4.414060046,7814,0.563558407,44544,13359.375
-14.87861989,-206299,128,-12.61226983,-174875,128,-63971,-4.613692714,7670,0.553172893,45184,13378.90625
-14.94439482,-207211,128,-12.6541725,-175456,128,-65025,-4.689708911,7680,0.553894109,45824,13398.4375
-14.88575994,-206398,128,-12.60332675,-174751,128,-63620,-4.588378023,7172,0.517256322,46464,13417.96875
-14.90299701,-206637,128,-12.59791763,-174676,128,-63752,-4.597898078,7439,0.536512796,47104,13437.5
-14.92874443,-206994,128,-12.62611718,-175067,128,-63992,-4.615207269,6915,0.498721063,47744,13457.03125
-14.87847565,-206297,128,-12.57671387,-174382,128,-63809,-4.602009011,8174,0.589522194,48384,13476.5625
-14.86571012,-206120,128,-12.57209808,-174318,128,-61311,-4.421849182,7711,0.556129879,49024,13496.09375
-14.82503352,-205556,128,-12.51887232,-173580,128,-58368,-4.209595228,7196,0.518987241,49664,13515.625
-14.79784367,-205179,128,-12.51901657,-173582,128,-59249,-4.273134383,7364,0.531103674,50304,13535.15625
-14.74952218,-204509,128,-12.43961065,-172481,128,-57376,-4.138050573,7927,0.571708151,50944,13554.6875
-14.68518969,-203617,128,-12.40737228,-172034,128,-57345,-4.135814802,15503,1.118101611,51584,13574.21875
-14.68151148,-203566,128,-12.45518892,-172697,128,-57605,-4.154566426,16160,1.165485521,52224,13593.75
-14.76163861,-204677,128,-12.52269477,-173633,128,-58528,-4.221134689,15256,1.100287569,52864,13613.28125
-14.87991808,-206317,128,-12.60837526,-174821,128,-61410,-4.428989223,6672,0.481195507,53504,13632.8125
-14.91554617,-206811,128,-12.64667185,-175352,128,-65072,-4.693098628,6287,0.45342868,54144,13652.34375
-14.94836151,-207266,128,-12.65092703,-175411,128,-65533,-4.726346699,8049,0.58050699,54784,13671.875
-14.92802321,-206984,128,-12.619482,-174975,128,-63869,-4.606336308,7975,0.575169989,55424,13691.40625
-14.98197019,-207732,128,-12.68064114,-175823,128,-65412,-4.717619981,8160,0.588512491,56064,13710.9375
-14.94425058,-207209,128,-12.63441117,-175182,128,-64577,-4.657398421,7170,0.517112078,56704,13730.46875
-14.95968461,-207423,128,-12.65539857,-175473,128,-65401,-4.716826644,7649,0.551658339,57344,13750
-14.92816745,-206986,128,-12.630156,-175123,128,-65055,-4.69187256,7265,0.523963633,57984,13769.53125
-14.94706332,-207248,128,-12.61919351,-174971,128,-65473,-4.722019401,8184,0.59024341,58624,13789.0625
-14.93703841,-207109,128,-12.61154862,-174865,128,-63521,-4.581237981,8127,0.586132477,59264,13808.59375
-14.94850575,-207268,128,-12.61075528,-174854,128,-64573,-4.657109935,7279,0.524973336,59904,13828.125
-14.95780944,-207397,128,-12.62337656,-175029,128,-65153,-4.69894048,8160,0.588512491,60544,13847.65625
-14.97230589,-207598,128,-12.61407287,-174900,128,-64497,-4.651628691,7293,0.525983039,61184,13867.1875
-14.9773544,-207668,128,-12.63080509,-175132,128,-65049,-4.69143983,7392,0.53312308,61824,13886.71875
-15.02019465,-208262,128,-12.66138466,-175556,128,-64512,-4.652710516,7776,0.560817785,62464,13906.25
-15.00829458,-208097,128,-12.64335425,-175306,128,-65466,-4.721514549,7143,0.515164794,63104,13925.78125
-14.98312413,-207748,128,-12.61003406,-174844,128,-64257,-4.6343195,7231,0.521511498,63744,13945.3125
-15.0056982,-208061,128,-12.62669416,-175075,128,-65293,-4.709037508,6640,0.478887615,64384,13964.84375
-15.04832209,-208652,128,-12.65309067,-175441,128,-65433,-4.719134536,6657,0.480113683,65024,13984.375
-15.03353715,-208447,128,-12.63744028,-175224,128,-64576,-4.6573263,7160,0.516390862,128,14003.90625
-15.05127907,-208693,128,-12.64306577,-175302,128,-65281,-4.708172048,6337,0.457034762,768,14023.4375
-14.98370111,-207756,128,-12.60073037,-174715,128,-64257,-4.6343195,7807,0.563053556,1408,14042.96875
-15.03339291,-208445,128,-12.62698264,-175079,128,-65512,-4.724832144,6595,0.475642142,2048,14062.5
-14.97345984,-207614,128,-12.6098177,-174841,128,-61412,-4.429133466,7167,0.516895713,2688,14082.03125
-14.91915225,-206861,128,-12.57830055,-174404,128,-63496,-4.579434941,7175,0.517472686,3328,14101.5625
-15.04392267,-208591,128,-12.62135716,-175001,128,-64000,-4.615784242,7832,0.564856597,3968,14121.09375
-15.04572571,-208616,128,-12.59719641,-174666,128,-64776,-4.671750626,7136,0.514659943,4608,14140.625
-15.14821054,-210037,128,-12.66023072,-175540,128,-65026,-4.689781033,3555,0.25639239,5248,14160.15625
-15.13775291,-209892,128,-12.62056382,-174990,128,-64610,-4.659778435,3073,0.221629765,5888,14179.6875
-15.19790235,-210726,128,-12.67047199,-175682,128,-65521,-4.725481239,2174,0.156792421,6528,14199.21875
-15.09786965,-209339,128,-12.51750201,-173561,128,-64636,-4.661653598,16630,1.199382687,7168,14218.75
-14.17831888,-196589,128,-12.28440491,-170329,128,-50148,-3.61675544,25340,1.827562073,7808,14238.28125
-14.98882174,-207827,128,-12.67011138,-175677,128,-57345,-4.135814802,15375,1.108870042,8448,14257.8125
-15.23396316,-211226,128,-12.68035265,-175819,128,-65530,-4.726130334,2048,0.147705096,9088,14277.34375
-15.21167758,-210917,128,-12.6065001,-174795,128,-64501,-4.651917178,3072,0.221557644,9728,14296.875
-15.24052623,-211317,128,-12.59178729,-174591,128,-65453,-4.720576968,1343,0.096859347,10368,14316.40625
-15.28827075,-211979,128,-12.60375948,-174757,128,-63719,-4.595518064,1231,0.088781725,11008,14335.9375
-15.30031506,-212146,128,-12.61169286,-174867,128,-64280,-4.635978298,0,0,11648,14355.46875
-15.25819603,-211562,128,-12.54901916,-173998,128,-63486,-4.578713724,1040,0.075006494,12288,14375
-15.29202107,-212031,128,-12.57267506,-174326,128,-63997,-4.615567877,1027,0.074068913,12928,14394.53125
-15.21665397,-210986,128,-12.49658674,-173271,128,-65040,-4.690790736,829,0.05978883,13568,14414.0625
-15.25913361,-211575,128,-12.50661165,-173410,128,-63489,-4.578930089,511,0.036854152,14208,14433.59375
-15.23735288,-211273,128,-12.51829535,-173572,128,-61937,-4.466997321,2173,0.156720299,14848,14453.125
-15.15015783,-210064,128,-12.38797157,-171765,128,-61576,-4.440961413,3647,0.26302758,15488,14472.65625
-15.13241591,-209818,128,-12.40354984,-171981,128,-57344,-4.135742681,3613,0.260575445,16128,14492.1875
-15.111717,-209531,128,-12.37672059,-171609,128,-56833,-4.098888528,3556,0.256464512,16768,14511.71875
-15.25841239,-211565,128,-12.52276689,-173634,128,-63236,-4.560683317,56,0.004038811,17408,14531.25
-15.35152141,-212856,128,-12.56553502,-174227,128,-63616,-4.588089536,512,0.036926274,18048,14550.78125
-15.42890792,-213929,128,-12.61565955,-174922,128,-65308,-4.710119332,16159,1.165413399,18688,14570.3125
-15.41246419,-213701,128,-12.59921582,-174694,128,-65525,-4.725769726,16351,1.179260752,19328,14589.84375
-15.45876628,-214343,128,-12.67847749,-175793,128,-65417,-4.71798059,15391,1.110023988,19968,14609.375
-15.44470256,-214148,128,-12.61638077,-174932,128,-65532,-4.726274577,16113,1.162095804,20608,14628.90625
-15.41491633,-213735,128,-12.61479409,-174910,128,-57374,-4.137906329,16351,1.179260752,21248,14648.4375
-15.37784581,-213221,128,-12.57426173,-174348,128,-57730,-4.163581629,15408,1.111250056,21888,14667.96875
-15.42977338,-213941,128,-12.65705736,-175496,128,-64968,-4.685597978,16251,1.172048589,22528,14687.5
-15.42825883,-213920,128,-12.62092443,-174995,128,-57581,-4.152835507,15356,1.107499731,23168,14707.03125
-15.4481644,-214196,128,-12.62236686,-175015,128,-65511,-4.724760023,16159,1.165413399,23808,14726.5625
-15.45378988,-214274,128,-12.61876078,-174965,128,-65091,-4.694468939,15932,1.14904179,24448,14746.09375
-15.40864174,-213648,128,-12.59705217,-174664,128,-65037,-4.690574371,16271,1.173491022,25088,14765.625
-15.46460813,-214424,128,-12.59921582,-174694,128,-57353,-4.136391775,15420,1.112115516,25728,14785.15625
-15.48682159,-214732,128,-12.64162334,-175282,128,-57345,-4.135814802,15247,1.099638474,26368,14804.6875
-15.44080799,-214094,128,-12.59041698,-174572,128,-65020,-4.689348303,15352,1.107211245,27008,14824.21875
-15.48934585,-214767,128,-12.61226983,-174875,128,-57376,-4.138050573,15360,1.107788218,27648,14843.75
-15.49800044,-214887,128,-12.62907417,-175108,128,-64516,-4.652999002,15519,1.119255557,28288,14863.28125
-15.53983099,-215467,128,-12.64948459,-175391,128,-57441,-4.142738479,14406,1.038984184,28928,14882.8125
-15.49489921,-214844,128,-12.6328245,-175160,128,-57376,-4.138050573,15362,1.107932461,29568,14902.34375
-15.50160652,-214937,128,-12.61234195,-174876,128,-65536,-4.726563063,15314,1.104470623,30208,14921.875
-15.49915439,-214903,128,-12.62604506,-175066,128,-65520,-4.725409117,14785,1.066318281,30848,14941.40625
-15.48725432,-214738,128,-12.59020061,-174569,128,-57441,-4.142738479,16191,1.167721292,31488,14960.9375
-15.54091281,-215482,128,-12.66744288,-175640,128,-65444,-4.719927874,14588,1.052110321,32128,14980.46875
-15.48638886,-214726,128,-12.60736556,-174807,128,-58051,-4.186732672,14655,1.05694247,32768,15000
-15.50362593,-214965,128,-12.61904927,-174969,128,-65520,-4.725409117,15902,1.146878141,33408,15019.53125
-15.46258872,-214396,128,-12.61565955,-174922,128,-57596,-4.153917331,15387,1.109735502,34048,15039.0625
-15.38635616,-213339,128,-12.59200365,-174594,128,-65404,-4.717043008,15487,1.116947665,34688,15058.59375
-15.31776849,-212388,128,-12.5584671,-174129,128,-65409,-4.717403617,16,0.001153946,35328,15078.125
-15.3988332,-213512,128,-12.57404537,-174345,128,-57600,-4.154205817,64,0.004615784,35968,15097.65625
-15.44037526,-214088,128,-12.61861654,-174963,128,-65535,-4.726490942,16248,1.171832224,36608,15117.1875
-15.45126563,-214239,128,-12.6274875,-175086,128,-57597,-4.153989453,15104,1.089325081,37248,15136.71875
-15.46879118,-214482,128,-12.61832805,-174959,128,-64452,-4.648383218,15362,1.107932461,37888,15156.25
-15.46193963,-214387,128,-12.61847229,-174961,128,-65521,-4.725481239,15359,1.107716096,38528,15175.78125
-15.52180058,-215217,128,-12.6525137,-175433,128,-64513,-4.652782637,14789,1.066606768,39168,15195.3125
-14.7575998,-204621,128,-12.27358666,-170179,128,-62337,-4.495845973,17175,1.238688974,39808,15214.84375
-14.93869721,-207132,128,-12.54260034,-173909,128,-52740,-3.803694702,12351,0.890774237,40448,15234.375
-15.43878859,-214066,128,-12.66362043,-175587,128,-65027,-4.689853154,773,0.055750019,41088,15253.90625
-15.40027564,-213532,128,-12.60880799,-174827,128,-64252,-4.633958892,15600,1.125097409,41728,15273.4375
-15.44636136,-214171,128,-12.64068575,-175269,128,-65393,-4.716249671,15924,1.148464817,42368,15292.96875
-15.43597584,-214027,128,-12.62431414,-175042,128,-65474,-4.722091522,16368,1.18048682,43008,15312.5
-15.3834713,-213299,128,-12.57310779,-174332,128,-65522,-4.725553361,63,0.004543663,43648,15332.03125
-15.3658015,-213054,128,-12.56510229,-174221,128,-65088,-4.694252574,15372,1.108653678,44288,15351.5625
-15.42234485,-213838,128,-12.61508258,-174914,128,-64633,-4.661437233,15902,1.146878141,44928,15371.09375
-15.32750491,-212523,128,-12.53452272,-173797,128,-63492,-4.579146454,16176,1.166639467,45568,15390.625
-15.33659224,-212649,128,-12.53452272,-173797,128,-65525,-4.725769726,259,0.018679502,46208,15410.15625
-15.27507249,-211796,128,-12.51209289,-173486,128,-64960,-4.685021005,81,0.005841852,46848,15429.6875
-15.19999387,-210755,128,-12.39237099,-171826,128,-57338,-4.135309951,4093,0.295193827,47488,15449.21875
-15.16097607,-210214,128,-12.41573839,-172150,128,-61961,-4.468728241,3326,0.239876537,48128,15468.75
-15.12542011,-209721,128,-12.42864817,-172329,128,-61481,-4.434109859,3591,0.258988769,48768,15488.28125
-15.1950896,-210687,128,-12.51440078,-173518,128,-63496,-4.579434941,4094,0.295265948,49408,15507.8125
-15.22747221,-211136,128,-12.52024263,-173599,128,-62464,-4.50500542,1536,0.110778822,50048,15527.34375
-15.35808448,-212947,128,-12.62575658,-175062,128,-65440,-4.719639387,271,0.019544961,50688,15546.875
-15.35029535,-212839,128,-12.60851951,-174823,128,-65289,-4.708749021,16345,1.178828022,51328,15566.40625
-15.31300846,-212322,128,-12.59092183,-174579,128,-64628,-4.661076625,1022,0.073708305,51968,15585.9375
-15.34510259,-212767,128,-12.60772617,-174812,128,-64433,-4.647012907,255,0.018391015,52608,15605.46875
-15.30940238,-212272,128,-12.58890242,-174551,128,-65528,-4.72598609,990,0.071400412,53248,15625
-15.36443119,-213035,128,-12.63368996,-175172,128,-65457,-4.720865455,119,0.008582474,53888,15644.53125
-15.34091954,-212709,128,-12.61205347,-174872,128,-57604,-4.154494304,259,0.018679502,54528,15664.0625
-15.27348581,-211774,128,-12.55861134,-174131,128,-64272,-4.635401325,39,0.002812744,55168,15683.59375
-15.30788783,-212251,128,-12.5941673,-174624,128,-63364,-4.569914886,1214,0.087555657,55808,15703.125
-15.29656473,-212094,128,-12.60188432,-174731,128,-57345,-4.135814802,387,0.02791107,56448,15722.65625
-15.29605988,-212087,128,-12.59185941,-174592,128,-65531,-4.726202455,232,0.016732218,57088,15742.1875
-15.30947451,-212273,128,-12.60462494,-174769,128,-65265,-4.707018102,15,0.001081824,57728,15761.71875
-15.31286422,-212320,128,-12.60844739,-174822,128,-65405,-4.71711513,131,0.009447933,58368,15781.25
-15.29418472,-212061,128,-12.60512979,-174776,128,-65522,-4.725553361,931,0.067145236,59008,15800.78125
-15.30081991,-212153,128,-12.61219771,-174874,128,-57361,-4.136968748,128,0.009231568,59648,15820.3125
-15.30608479,-212226,128,-12.60433645,-174765,128,-65344,-4.712715711,101,0.007284285,60288,15839.84375
-15.3267837,-212513,128,-12.63203116,-175149,128,-65536,-4.726563063,271,0.019544961,60928,15859.375
-15.30557994,-212219,128,-12.61472197,-174909,128,-65292,-4.708965386,1,7.21E-05,61568,15878.90625
-15.32389883,-212473,128,-12.64061363,-175268,128,-58428,-4.213922526,775,0.055894262,62208,15898.4375
-15.33529405,-212631,128,-12.65330704,-175444,128,-64605,-4.659417827,552,0.039811139,62848,15917.96875
-15.29036227,-212008,128,-12.58724363,-174528,128,-64576,-4.6573263,192,0.013847353,63488,15937.5
-15.33781831,-212666,128,-12.65366765,-175449,128,-57825,-4.170433184,455,0.032815341,64128,15957.03125
-15.296132,-212088,128,-12.61335166,-174890,128,-65517,-4.725192753,206,0.014857056,64768,15976.5625
-15.35418991,-212893,128,-12.67948719,-175807,128,-65028,-4.689925276,7,5.05E-04,65408,15996.09375
-15.29021803,-212006,128,-12.62207837,-175011,128,-65055,-4.69187256,508,0.036637787,512,16015.625
-15.24954143,-211442,128,-12.6038316,-174758,128,-63617,-4.588161658,1542,0.111211552,1152,16035.15625
-15.15109541,-210077,128,-12.59395094,-174621,128,-65402,-4.716898765,3504,0.252714187,1792,16054.6875
-15.18593016,-210560,128,-12.58500786,-174497,128,-64673,-4.664322098,2432,0.175399801,2432,16074.21875
-15.26050392,-211594,128,-12.61306317,-174886,128,-63497,-4.579507062,1272,0.091738712,3072,16093.75
-15.33464495,-212622,128,-12.64299365,-175301,128,-57352,-4.136319654,304,0.021924975,3712,16113.28125
-15.32974068,-212554,128,-12.64573427,-175339,128,-65149,-4.698651993,455,0.032815341,4352,16132.8125
-15.28870348,-211985,128,-12.61421712,-174902,128,-64514,-4.652854759,519,0.037431125,4992,16152.34375
-15.37683611,-213207,128,-12.69203635,-175981,128,-65327,-4.711489643,16160,1.165485521,5632,16171.875
-14.65085979,-203141,128,-12.36381082,-171430,128,-62983,-4.542436545,17520,1.263570936,6272,16191.40625
-14.4004535,-199669,128,-12.37614362,-171601,128,-52861,-3.812421419,13839,0.998091221,6912,16210.9375
-15.34791533,-212806,128,-12.7188656,-176353,128,-61553,-4.439302616,2047,0.147632974,7552,16230.46875
-15.33522193,-212630,128,-12.66325982,-175582,128,-64992,-4.687328897,98,0.00706792,8192,16250
-15.30702237,-212239,128,-12.59777338,-174674,128,-65025,-4.689708911,503,0.036277179,8832,16269.53125
-15.30024294,-212145,128,-12.60909648,-174831,128,-58112,-4.191132091,111,0.008005501,9472,16289.0625
-15.34704987,-212794,128,-12.63614209,-175206,128,-65532,-4.726274577,129,0.00930369,10112,16308.59375
-15.34575168,-212776,128,-12.63715179,-175220,128,-65472,-4.721947279,967,0.069741615,10752,16328.125
-15.27680341,-211820,128,-12.57757933,-174394,128,-63929,-4.610663606,1054,0.076016197,11392,16347.65625
-15.31142179,-212300,128,-12.58551271,-174504,128,-63496,-4.579434941,17,0.001226068,12032,16367.1875
-15.26807669,-211699,128,-12.54894704,-173997,128,-63485,-4.578641603,260,0.018751623,12672,16386.71875
-15.23136678,-211190,128,-12.49463946,-173244,128,-65508,-4.724543658,1470,0.106018794,13312,16406.25
-15.19090655,-210629,128,-12.45973259,-172760,128,-64081,-4.621626094,3903,0.281490717,13952,16425.78125
-15.1180637,-209619,128,-12.42323904,-172254,128,-58244,-4.200652146,3312,0.238866835,14592,16445.3125
-15.11784734,-209616,128,-12.43348031,-172396,128,-61729,-4.451996023,3120,0.225019482,15232,16464.84375
-15.10594727,-209451,128,-12.44602948,-172570,128,-57376,-4.138050573,4032,0.290794407,15872,16484.375
-15.24290624,-211350,128,-12.56567926,-174229,128,-65536,-4.726563063,2111,0.152248758,16512,16503.90625
-15.26425424,-211646,128,-12.56265015,-174187,128,-64545,-4.655090529,256,0.018463137,17152,16523.4375
-15.32858674,-212538,128,-12.63462754,-175185,128,-65473,-4.722019401,0,0,17792,16542.96875
-15.37640338,-213201,128,-12.656841,-175493,128,-57349,-4.136103289,16383,1.181568644,18432,16562.5
-15.3501511,-212837,128,-12.63938756,-175251,128,-63257,-4.562197871,1030,0.074285278,19072,16582.03125
-15.35671417,-212928,128,-12.63556512,-175198,128,-64637,-4.661725719,0,0,19712,16601.5625
-15.33421222,-212616,128,-12.61854441,-174962,128,-65498,-4.723822442,44,0.003173352,20352,16621.09375
-15.27759675,-211831,128,-12.56337137,-174197,128,-65528,-4.72598609,515,0.037142639,20992,16640.625
-15.3427947,-212735,128,-12.6188329,-174966,128,-64000,-4.615784242,257,0.018535259,21632,16660.15625
-15.29714171,-212102,128,-12.59467215,-174631,128,-63739,-4.596960497,1025,0.073924669,22272,16679.6875
-15.3277934,-212527,128,-12.61219771,-174874,128,-65312,-4.710407819,511,0.036854152,22912,16699.21875
-15.29202107,-212031,128,-12.56221742,-174181,128,-63617,-4.588161658,1247,0.089935671,23552,16718.75
-15.27507249,-211796,128,-12.57844479,-174406,128,-64518,-4.653143245,1188,0.085680495,24192,16738.28125
-15.30853692,-212260,128,-12.59921582,-174694,128,-65532,-4.726274577,135,0.00973642,24832,16757.8125
-15.31610969,-212365,128,-12.6134959,-174892,128,-65449,-4.720288482,895,0.064548858,25472,16777.34375
-15.29454533,-212066,128,-12.56841988,-174267,128,-63631,-4.589171361,391,0.028199557,26112,16796.875
-15.26605728,-211671,128,-12.56466956,-174215,128,-65029,-4.689997398,1210,0.087267171,26752,16816.40625
-15.27189914,-211752,128,-12.57375688,-174341,128,-65527,-4.725913969,248,0.017886164,27392,16835.9375
-15.26923064,-211715,128,-12.58212299,-174457,128,-57881,-4.174471995,1027,0.074068913,28032,16855.46875
-15.28149131,-211885,128,-12.58169026,-174451,128,-65393,-4.716249671,1027,0.074068913,28672,16875
-15.24506989,-211380,128,-12.54050881,-173880,128,-63616,-4.588089536,1551,0.111860646,29312,16894.53125
-15.29620413,-212089,128,-12.58767636,-174534,128,-65505,-4.724327293,135,0.00973642,29952,16914.0625
-15.27766887,-211832,128,-12.58096905,-174441,128,-65529,-4.726058212,1536,0.110778822,30592,16933.59375
-15.28870348,-211985,128,-12.58284421,-174467,128,-63716,-4.595301699,102,0.007356406,31232,16953.125
-15.29432896,-212063,128,-12.59871097,-174687,128,-57375,-4.137978451,447,0.032238368,31872,16972.65625
-15.23497286,-211240,128,-12.54800946,-173984,128,-64565,-4.656532962,1599,0.115322484,32512,16992.1875
-15.17338099,-210386,128,-12.55760164,-174117,128,-64545,-4.655090529,3070,0.2214134,33152,17011.71875
-15.11561157,-209585,128,-12.51353532,-173506,128,-64905,-4.681054316,3583,0.258411796,33792,17031.25
-15.14979722,-210059,128,-12.51555473,-173534,128,-59357,-4.280923519,3840,0.276947054,34432,17050.78125
-15.21420183,-210952,128,-12.55666406,-174104,128,-65150,-4.698724115,1008,0.072698602,35072,17070.3125
-15.25754693,-211553,128,-12.54332156,-173919,128,-63312,-4.566164561,451,0.032526855,35712,17089.84375
-15.26548031,-211663,128,-12.58637817,-174516,128,-63633,-4.589315604,1425,0.102773321,36352,17109.375
-15.27161065,-211748,128,-12.56676108,-174244,128,-63552,-4.583473752,1091,0.078684697,36992,17128.90625
-15.26483122,-211654,128,-12.55933256,-174141,128,-63552,-4.583473752,16392,1.182217739,37632,17148.4375
-14.02780104,-194502,128,-12.13821437,-168302,128,-51172,-3.690607988,25028,1.805060125,38272,17167.96875
-14.77245686,-204827,128,-12.49593764,-173262,128,-58561,-4.223514703,8165,0.588873099,38912,17187.5
-15.21326425,-210939,128,-12.57159323,-174311,128,-63681,-4.592777442,388,0.027983192,39552,17207.03125
-15.22949162,-211164,128,-12.55745739,-174115,128,-65025,-4.689708911,2023,0.145902055,40192,17226.5625
-15.22062066,-211041,128,-12.52997905,-173734,128,-65026,-4.689781033,2015,0.145325082,40832,17246.09375
-15.17871799,-210460,128,-12.50560194,-173396,128,-57692,-4.160841007,3552,0.256176025,41472,17265.625
-15.2491087,-211436,128,-12.55291373,-174052,128,-65536,-4.726563063,966,0.069669493,42112,17285.15625
-15.1960993,-210701,128,-12.52319962,-173640,128,-63476,-4.577992508,2559,0.184559248,42752,17304.6875
-15.18585803,-210559,128,-12.50747711,-173422,128,-62504,-4.507890285,3072,0.221557644,43392,17324.21875
-15.13111772,-209800,128,-12.47249812,-172937,128,-65504,-4.724255171,3615,0.260719688,44032,17343.75
-15.08777262,-209199,128,-12.45554953,-172702,128,-58269,-4.202455187,4088,0.294833218,44672,17363.28125
-15.02206981,-208288,128,-12.38847642,-171772,128,-57316,-4.133723275,7423,0.53535885,45312,17382.8125
-15.0203389,-208264,128,-12.39489524,-171861,128,-57303,-4.132785694,7800,0.562548704,45952,17402.34375
-14.94446694,-207212,128,-12.34166948,-171123,128,-56447,-4.07104958,7824,0.564279624,46592,17421.875
-14.87169622,-206203,128,-12.37246542,-171550,128,-52452,-3.782923673,6654,0.479897318,47232,17441.40625
-14.92102741,-206887,128,-12.40924745,-172060,128,-57370,-4.137617843,8129,0.58627672,47872,17460.9375
-15.04428328,-208596,128,-12.51209289,-173486,128,-62358,-4.497360527,6158,0.44412499,48512,17480.46875
-15.11092366,-209520,128,-12.55125493,-174029,128,-63440,-4.57539613,3536,0.255022079,49152,17500
-15.1047212,-209434,128,-12.54440338,-173934,128,-61599,-4.442620211,3594,0.259205134,49792,17519.53125
-15.13501229,-209854,128,-12.56676108,-174244,128,-63618,-4.588233779,3587,0.258700282,50432,17539.0625
-15.12758376,-209751,128,-12.56329925,-174196,128,-63601,-4.587007712,3592,0.259060891,51072,17558.59375
-15.15361967,-210112,128,-12.58132965,-174446,128,-61310,-4.42177706,2912,0.210018183,51712,17578.125
-15.12542011,-209721,128,-12.58558483,-174505,128,-65441,-4.719711509,4065,0.293174421,52352,17597.65625
-15.10674061,-209462,128,-12.5561592,-174097,128,-63105,-4.551235384,3982,0.287188326,52992,17617.1875
-15.10392786,-209423,128,-12.5461343,-173958,128,-59265,-4.274288329,4080,0.294256245,53632,17636.71875
-15.12203039,-209674,128,-12.57974298,-174424,128,-65028,-4.689925276,3982,0.287188326,54272,17656.25
-15.12203039,-209674,128,-12.55428404,-174071,128,-62464,-4.50500542,4087,0.294761097,54912,17675.78125
-15.10890426,-209492,128,-12.56683321,-174245,128,-63729,-4.59623928,4031,0.290722286,55552,17695.3125
-15.07219435,-208983,128,-12.53163785,-173757,128,-59293,-4.276307735,4073,0.293751394,56192,17714.84375
-15.08056046,-209099,128,-12.54202337,-173901,128,-62336,-4.495773851,4087,0.294761097,56832,17734.375
-15.08964778,-209225,128,-12.55651981,-174102,128,-65297,-4.709325994,3103,0.223793414,57472,17753.90625
-15.15376391,-210114,128,-12.60859163,-174824,128,-65268,-4.707234467,3071,0.221485522,58112,17773.4375
-15.07565618,-209031,128,-12.53610939,-173819,128,-61445,-4.43151348,3584,0.258483918,58752,17792.96875
-15.10659636,-209460,128,-12.57887752,-174412,128,-65284,-4.708388413,4032,0.290794407,59392,17812.5
-15.0623858,-208847,128,-12.51865596,-173577,128,-65138,-4.697858655,4044,0.291659867,60032,17832.03125
-15.14849903,-210041,128,-12.60311039,-174748,128,-63516,-4.580877373,3071,0.221485522,60672,17851.5625
-15.11654915,-209598,128,-12.56712169,-174249,128,-64655,-4.663023908,3072,0.221557644,61312,17871.09375
-15.12477101,-209712,128,-12.58392603,-174482,128,-63937,-4.611240579,3792,0.273485216,61952,17890.625
-15.12859346,-209765,128,-12.59943218,-174697,128,-64257,-4.6343195,4063,0.293030178,62592,17910.15625
-15.13090135,-209797,128,-12.60520191,-174777,128,-61425,-4.430071048,3709,0.267499121,63232,17929.6875
-15.10811092,-209481,128,-12.59236426,-174599,128,-64003,-4.616000607,4095,0.29533807,63872,17949.21875
-15.09419144,-209288,128,-12.57527144,-174362,128,-64505,-4.652205664,3199,0.23071709,64512,17968.75
-15.06007791,-208815,128,-12.55810649,-174124,128,-63522,-4.581310103,6271,0.452274734,65152,17988.28125
-15.05957306,-208808,128,-12.61421712,-174902,128,-65525,-4.725769726,6264,0.451769883,256,18007.8125
-15.00519335,-208054,128,-12.56438107,-174211,128,-63620,-4.588378023,6922,0.499225914,896,18027.34375
-15.07140101,-208972,128,-12.58666665,-174520,128,-63648,-4.590397428,4020,0.289928948,1536,18046.875
-15.10782243,-209477,128,-12.59121032,-174583,128,-65017,-4.689131938,3968,0.286178623,2176,18066.40625
-15.14784994,-210032,128,-12.62496324,-175051,128,-63996,-4.615495755,3024,0.218095805,2816,18085.9375
-15.12635769,-209734,128,-12.59258063,-174602,128,-63602,-4.587079833,4080,0.294256245,3456,18105.46875
-15.17482342,-210406,128,-12.66614469,-175622,128,-65032,-4.690213763,2072,0.149436015,4096,18125
-14.58602245,-202242,128,-12.33323125,-171006,128,-62465,-4.505077541,16864,1.216259148,4736,18144.53125
-14.10100449,-195517,128,-12.28620795,-170354,128,-49274,-3.553721136,3,2.16E-04,5376,18164.0625
-14.9480009,-207261,128,-12.66715439,-175636,128,-65504,-4.724255171,5107,0.368325158,6016,18183.59375
-15.05986155,-208812,128,-12.56676108,-174244,128,-65028,-4.689925276,7792,0.561971731,6656,18203.125
-15.11013032,-209509,128,-12.61176498,-174868,128,-61428,-4.430287412,3288,0.237135915,7296,18222.65625
-15.138402,-209901,128,-12.62330444,-175028,128,-64768,-4.671173653,2574,0.185641072,7936,18242.1875
-15.12758376,-209751,128,-12.60101886,-174719,128,-57888,-4.174976847,3072,0.221557644,8576,18261.71875
-15.12455465,-209709,128,-12.57938237,-174419,128,-61440,-4.431152872,2913,0.210090305,9216,18281.25
-15.0913787,-209249,128,-12.55197615,-174039,128,-65503,-4.72418305,3743,0.269951257,9856,18300.78125
-15.12780012,-209754,128,-12.5931576,-174610,128,-64257,-4.6343195,3298,0.237857132,10496,18320.3125
-15.07911802,-209079,128,-12.53740758,-173837,128,-63373,-4.57056398,3905,0.28163496,11136,18339.84375
-15.06491006,-208882,128,-12.53856153,-173853,128,-65293,-4.709037508,6159,0.444197112,11776,18359.375
-15.01896858,-208245,128,-12.48886973,-173164,128,-58476,-4.217384364,7808,0.563125677,12416,18378.90625
-14.93509113,-207082,128,-12.39893405,-171917,128,-57281,-4.131199018,7942,0.572789976,13056,18398.4375
-14.89859759,-206576,128,-12.42814331,-172322,128,-57359,-4.136824505,7175,0.517472686,13696,18417.96875
-14.95773732,-207396,128,-12.49124974,-173197,128,-57487,-4.146056073,8159,0.588440369,14336,18437.5
-14.9673295,-207529,128,-12.51461715,-173521,128,-65017,-4.689131938,7679,0.553821987,14976,18457.03125
-15.08344532,-209139,128,-12.5868109,-174522,128,-63993,-4.61527939,3973,0.286539231,15616,18476.5625
-15.12491526,-209714,128,-12.61876078,-174965,128,-61437,-4.430936507,3327,0.239948659,16256,18496.09375
-15.09628297,-209317,128,-12.60534616,-174779,128,-63497,-4.579507062,3935,0.283798609,16896,18515.625
-15.18131437,-210496,128,-12.65864404,-175518,128,-57760,-4.165745278,2240,0.161552448,17536,18535.15625
-15.19682052,-210711,128,-12.66628893,-175624,128,-65041,-4.690862857,2552,0.184054397,18176,18554.6875
-15.1420802,-209952,128,-12.62121291,-174999,128,-64000,-4.615784242,3056,0.220403698,18816,18574.21875
-15.18794956,-210588,128,-12.63823362,-175235,128,-64576,-4.6573263,3078,0.221990373,19456,18593.75
-15.15715363,-210161,128,-12.63296874,-175162,128,-65050,-4.691511952,2823,0.203599358,20096,18613.28125
-15.14532568,-209997,128,-12.60700495,-174802,128,-63737,-4.596816253,3971,0.286394988,20736,18632.8125
-15.19285383,-210656,128,-12.64306577,-175302,128,-60998,-4.399275112,2304,0.166168233,21376,18652.34375
-15.16717853,-210300,128,-12.62301595,-175024,128,-65472,-4.721947279,3588,0.258772404,22016,18671.875
-15.13198318,-209812,128,-12.59460003,-174630,128,-64445,-4.647878366,3967,0.286106501,22656,18691.40625
-15.1823962,-210511,128,-12.64710458,-175358,128,-65280,-4.708099926,2481,0.178933761,23296,18710.9375
-15.2137691,-210946,128,-12.65922101,-175526,128,-63505,-4.580084035,3063,0.220908549,23936,18730.46875
-15.16075971,-210211,128,-12.61190922,-174870,128,-64401,-4.644705015,3709,0.267499121,24576,18750
-15.19999387,-210755,128,-12.65359553,-175448,128,-64626,-4.660932381,2300,0.165879746,25216,18769.53125
-15.22112551,-211048,128,-12.67378958,-175728,128,-57920,-4.177284739,920,0.066351898,25856,18789.0625
-15.21023514,-210897,128,-12.66636105,-175625,128,-65040,-4.690790736,2095,0.151094812,26496,18808.59375
-15.21715882,-210993,128,-12.65539857,-175473,128,-64832,-4.675789437,961,0.069308885,27136,18828.125
-15.2244431,-211094,128,-12.66939016,-175667,128,-65331,-4.71177813,1000,0.072121629,27776,18847.65625
-15.22502008,-211102,128,-12.67840537,-175792,128,-57472,-4.144974249,2307,0.166384598,28416,18867.1875
-15.19790235,-210726,128,-12.65777858,-175506,128,-65536,-4.726563063,3099,0.223504928,29056,18886.71875
-15.11734249,-209609,128,-12.635493,-175197,128,-65289,-4.708749021,2798,0.201796317,29696,18906.25
-15.04276872,-208575,128,-12.59899945,-174691,128,-65123,-4.696776831,7233,0.521655741,30336,18925.78125
-15.10998608,-209507,128,-12.63808938,-175233,128,-64737,-4.668937882,3471,0.250334173,30976,18945.3125
-15.15520634,-210134,128,-12.65208097,-175427,128,-64963,-4.68523737,2862,0.206412102,31616,18964.84375
-15.18715622,-210577,128,-12.64126273,-175277,128,-57584,-4.153051871,2559,0.184559248,32256,18984.375
-15.21961096,-211027,128,-12.68489631,-175882,128,-65424,-4.718485441,1007,0.07262648,32896,19003.90625
-15.20150843,-210776,128,-12.62554021,-175059,128,-58353,-4.208513404,2236,0.161263962,33536,19023.4375
-15.23172739,-211195,128,-12.64162334,-175282,128,-62212,-4.486830769,911,0.065702804,34176,19042.96875
-14.39634256,-199612,128,-12.35234348,-171271,128,-49412,-3.563673921,28736,2.072487125,34816,19062.5
-14.39886682,-199647,128,-12.38588004,-171736,128,-40672,-2.933330886,14081,1.015544655,35456,19082.03125
-15.2421129,-211339,128,-12.7392039,-176635,128,-63611,-4.587728928,1855,0.133785621,36096,19101.5625
-15.22617402,-211118,128,-12.6841751,-175872,128,-65536,-4.726563063,798,0.05755306,36736,19121.09375
-15.19400778,-210672,128,-12.64566215,-175338,128,-64752,-4.670019706,2496,0.180015585,37376,19140.625
-15.21831277,-211009,128,-12.65813919,-175511,128,-61313,-4.421993425,927,0.06685675,38016,19160.15625
-15.19790235,-210726,128,-12.61126013,-174861,128,-63503,-4.579939792,3295,0.237640767,38656,19179.6875
-15.26108089,-211602,128,-12.68691572,-175910,128,-59378,-4.282438073,303,0.021852854,39296,19199.21875
-15.20720604,-210855,128,-12.61421712,-174902,128,-63805,-4.601720524,3080,0.222134617,39936,19218.75
-15.17078461,-210350,128,-12.57678599,-174383,128,-64771,-4.671390017,3056,0.220403698,40576,19238.28125
-15.1977581,-210724,128,-12.59128244,-174584,128,-63602,-4.587079833,3100,0.223577049,41216,19257.8125
-15.14446022,-209985,128,-12.54332156,-173919,128,-61471,-4.433388642,3007,0.216869738,41856,19277.34375
-15.11085154,-209519,128,-12.51216501,-173487,128,-65471,-4.721875158,3473,0.250478417,42496,19296.875
-15.03916264,-208525,128,-12.44357734,-172536,128,-61952,-4.468079146,6520,0.47023302,43136,19316.40625
-15.04918755,-208664,128,-12.46752172,-172868,128,-61824,-4.458847577,6392,0.461001451,43776,19335.9375
-15.11020244,-209510,128,-12.52961845,-173729,128,-57418,-4.141079681,6151,0.443620139,44416,19355.46875
-15.21239879,-210927,128,-12.59661944,-174658,128,-57346,-4.135886924,2077,0.149796623,45056,19375
-15.26526395,-211660,128,-12.64032515,-175264,128,-64528,-4.653864462,272,0.019617083,45696,19394.53125
-15.32310549,-212462,128,-12.67955931,-175808,128,-65088,-4.694252574,30,0.002163649,46336,19414.0625
-15.27673129,-211819,128,-12.61897714,-174968,128,-64512,-4.652710516,1279,0.092243563,46976,19433.59375
-15.30788783,-212251,128,-12.64897974,-175384,128,-57844,-4.171803495,119,0.008582474,47616,19453.125
-15.33060614,-212566,128,-12.67494353,-175744,128,-61056,-4.403458167,8,5.77E-04,48256,19472.65625
-15.30933026,-212271,128,-12.63109358,-175136,128,-57346,-4.135886924,192,0.013847353,48896,19492.1875
-15.36753242,-213078,128,-12.67566474,-175754,128,-58109,-4.190915727,16354,1.179477117,49536,19511.71875
-15.28827075,-211979,128,-12.58241148,-174461,128,-63757,-4.598258686,1020,0.073564061,50176,19531.25
-15.3438044,-212749,128,-12.65568705,-175477,128,-57629,-4.156297345,248,0.017886164,50816,19550.78125
-15.35051171,-212842,128,-12.60080249,-174716,128,-57472,-4.144974249,7,5.05E-04,51456,19570.3125
-15.3994823,-213521,128,-12.64897974,-175384,128,-65284,-4.708388413,16367,1.180414698,52096,19589.84375
-15.38188462,-213277,128,-12.61306317,-174886,128,-65457,-4.720865455,15904,1.147022384,52736,19609.375
-15.41441147,-213728,128,-12.64522942,-175332,128,-64569,-4.656821448,15360,1.107788218,53376,19628.90625
-15.43597584,-214027,128,-12.651504,-175419,128,-64576,-4.6573263,16369,1.180558941,54016,19648.4375
-15.43532675,-214018,128,-12.62828083,-175097,128,-65505,-4.724327293,15362,1.107932461,54656,19667.96875
-15.48299914,-214679,128,-12.65503796,-175468,128,-57852,-4.172380468,15481,1.116514935,55296,19687.5
-15.48343187,-214685,128,-12.64876338,-175381,128,-60417,-4.357372446,15360,1.107788218,55936,19707.03125
-15.53139276,-215350,128,-12.66895743,-175661,128,-59392,-4.283447776,16352,1.179332874,56576,19726.5625
-15.5122084,-215084,128,-12.62965114,-175116,128,-64522,-4.653431732,16326,1.177457711,57216,19746.09375
-15.52627212,-215279,128,-12.63412269,-175178,128,-65026,-4.689781033,16369,1.180558941,57856,19765.625
-15.57271845,-215923,128,-12.64559002,-175337,128,-59361,-4.281212006,16324,1.177313468,58496,19785.15625
-15.57819969,-215999,128,-12.63974817,-175256,128,-64520,-4.653287489,15424,1.112404002,59136,19804.6875
-15.62421329,-216637,128,-12.66477438,-175603,128,-64761,-4.670668801,14787,1.066462525,59776,19824.21875
-15.5455286,-215546,128,-12.63123782,-175138,128,-60477,-4.361699743,15872,1.144714492,60416,19843.75
-15.51091021,-215066,128,-12.63419481,-175179,128,-64768,-4.671173653,16374,1.18091955,61056,19863.28125
-15.48999494,-214776,128,-12.57757933,-174394,128,-59454,-4.287919317,15630,1.127261058,61696,19882.8125
-15.63034363,-216722,128,-12.63022812,-175124,128,-58356,-4.208729769,15164,1.093652379,62976,19921.875
-15.67931422,-217401,128,-12.64111848,-175275,128,-59392,-4.283447776,15583,1.123871341,63616,19941.40625
-15.74105033,-218257,128,-12.6915315,-175974,128,-58432,-4.214211013,16382,1.181496523,64256,19960.9375
-15.69265672,-217586,128,-12.65294643,-175439,128,-59248,-4.273062262,16134,1.163610359,64896,19980.46875
-15.53132064,-215349,128,-12.48302787,-173083,128,-57567,-4.151825804,883,0.063683398,0,20000
-14.51404506,-201244,128,-12.22259667,-169472,128,-52256,-3.768787833,16403,1.183011077,640,20019.53125
-15.66099532,-217147,128,-12.73891541,-176631,128,-65025,-4.689708911,895,0.064548858,1280,20039.0625
-15.76485047,-218587,128,-12.66809197,-175649,128,-61473,-4.433532886,14847,1.070789822,1920,20058.59375
-15.77307233,-218701,128,-12.6578507,-175507,128,-57346,-4.135886924,15347,1.106850637,2560,20078.125
-15.79398761,-218991,128,-12.64342638,-175307,128,-59337,-4.279481087,15484,1.1167313,3200,20097.65625
-15.77473113,-218724,128,-12.62193413,-175009,128,-58304,-4.204979444,15408,1.111250056,3840,20117.1875
-15.81043134,-219219,128,-12.6611683,-175553,128,-60942,-4.395236301,16367,1.180414698,4480,20136.71875
-15.75597951,-218464,128,-12.58601756,-174511,128,-58241,-4.200435782,16320,1.177024982,5120,20156.25
-15.74487278,-218310,128,-12.59178729,-174591,128,-58368,-4.209595228,15896,1.146445411,5760,20175.78125
-15.69013246,-217551,128,-12.54952402,-174005,128,-57358,-4.136752383,15409,1.111322178,6400,20195.3125
-15.72979936,-218101,128,-12.55572648,-174091,128,-57601,-4.154277939,16256,1.172409197,7040,20214.84375
-15.64527281,-216929,128,-12.48641759,-173130,128,-57466,-4.144541519,16383,1.181568644,7680,20234.375
-15.60199983,-216329,128,-12.45684772,-172720,128,-65280,-4.708099926,15366,1.108220948,8320,20253.90625
-15.57228572,-215917,128,-12.44862586,-172606,128,-65122,-4.696704709,16376,1.181063793,8960,20273.4375
-15.55533714,-215682,128,-12.44884222,-172609,128,-65281,-4.708172048,16159,1.165413399,9600,20292.96875
-15.65847107,-217112,128,-12.54130215,-173891,128,-57345,-4.135814802,14880,1.073169836,10240,20312.5
-15.75439283,-218442,128,-12.60534616,-174779,128,-57384,-4.138627546,16140,1.164043088,10880,20332.03125
-15.756268,-218468,128,-12.60592313,-174787,128,-57345,-4.135814802,15367,1.108293069,11520,20351.5625
-15.79817066,-219049,128,-12.6481864,-175373,128,-59184,-4.268446477,14344,1.034512643,12160,20371.09375
-15.7786257,-218778,128,-12.63397844,-175176,128,-59264,-4.274216208,15404,1.11096157,12800,20390.625
-15.78713605,-218896,128,-12.63614209,-175206,128,-60449,-4.359680338,16153,1.16498067,13440,20410.15625
-15.75020978,-218384,128,-12.59813399,-174679,128,-57345,-4.135814802,16376,1.181063793,14080,20429.6875
-15.75720558,-218481,128,-12.63022812,-175124,128,-60445,-4.359391851,14540,1.048648482,14720,20449.21875
-15.76355228,-218569,128,-12.60260553,-174741,128,-57736,-4.164014359,16383,1.181568644,15360,20468.75
-15.77653417,-218749,128,-12.62532385,-175056,128,-59387,-4.283087168,15359,1.107716096,16000,20488.28125
-15.72301992,-218007,128,-12.59034486,-174571,128,-57412,-4.140646951,16307,1.1760874,16640,20507.8125
-15.75006554,-218382,128,-12.60952921,-174837,128,-58885,-4.24688211,15999,1.153873939,17280,20527.34375
-15.73015997,-218106,128,-12.60000916,-174705,128,-58207,-4.197983646,15936,1.149330276,17920,20546.875
-15.72388538,-218019,128,-12.57851691,-174407,128,-57872,-4.173822901,16259,1.172625562,18560,20566.40625
-15.73758849,-218209,128,-12.63909908,-175247,128,-57805,-4.168990751,15873,1.144786614,19200,20585.9375
-15.7336218,-218154,128,-12.61969836,-174978,128,-58306,-4.205123687,16343,1.178683779,19840,20605.46875
-15.74710855,-218341,128,-12.63037236,-175126,128,-57441,-4.142738479,16147,1.16454794,20480,20625
-15.73730001,-218205,128,-12.62424202,-175041,128,-57397,-4.139565127,15358,1.107643975,21120,20644.53125
-15.7246066,-218029,128,-12.63888271,-175244,128,-57345,-4.135814802,16382,1.181496523,21760,20664.0625
-15.74018487,-218245,128,-12.63022812,-175124,128,-59007,-4.255680949,15359,1.107716096,22400,20683.59375
-15.65839895,-217111,128,-12.57007868,-174290,128,-57602,-4.154350061,15859,1.143776911,23040,20703.125
-15.74105033,-218257,128,-12.66239436,-175570,128,-57626,-4.15608098,15847,1.142911451,23680,20722.65625
-15.71378836,-217879,128,-12.62496324,-175051,128,-58361,-4.209090377,16365,1.180270455,24320,20742.1875
-15.67938634,-217402,128,-12.60087461,-174717,128,-57856,-4.172668954,16263,1.172914049,24960,20761.71875
-15.64916738,-216983,128,-12.62546809,-175058,128,-58335,-4.207215215,16368,1.18048682,25600,20781.25
-15.56117899,-215763,128,-12.57635326,-174377,128,-57741,-4.164374967,16359,1.179837725,26240,20800.78125
-15.55447168,-215670,128,-12.57671387,-174382,128,-57345,-4.135814802,16268,1.173274657,26880,20820.3125
-15.62435754,-216639,128,-12.59676368,-174660,128,-65534,-4.72641882,15087,1.088099013,27520,20839.84375
-15.67044326,-217278,128,-12.60512979,-174776,128,-58138,-4.193007254,16348,1.179044387,28160,20859.375
-15.67534753,-217346,128,-12.60008128,-174706,128,-57844,-4.171803495,15360,1.107788218,28800,20878.90625
-15.70087858,-217700,128,-12.63780089,-175229,128,-57593,-4.153700966,16258,1.172553441,29440,20898.4375
-15.68984398,-217547,128,-12.62503536,-175052,128,-58346,-4.208008553,15933,1.149113911,30080,20917.96875
-15.23129466,-211189,128,-12.34563617,-171178,128,-65250,-4.705936278,247,0.017814042,30720,20937.5
-14.53488821,-201533,128,-12.2443774,-169774,128,-51137,-3.688083731,24606,1.774624798,31360,20957.03125
-15.65912016,-217121,128,-12.67126532,-175693,128,-65281,-4.708172048,16243,1.171471616,32000,20976.5625
-15.62017448,-216581,128,-12.58911879,-174554,128,-65536,-4.726563063,16372,1.180775306,32640,20996.09375
-15.64649888,-216946,128,-12.5948164,-174633,128,-58368,-4.209595228,16359,1.179837725,33280,21015.625
-15.60647137,-216391,128,-12.56185681,-174176,128,-57405,-4.1401421,15469,1.115649476,33920,21035.15625
-15.63770004,-216824,128,-12.57873327,-174410,128,-57801,-4.168702265,15360,1.107788218,34560,21054.6875
-15.62003024,-216579,128,-12.56365985,-174201,128,-57345,-4.135814802,15502,1.118029489,35200,21074.21875
-15.59204705,-216191,128,-12.55558223,-174089,128,-57345,-4.135814802,15297,1.103244555,35840,21093.75
-15.5598808,-215745,128,-12.52348811,-173644,128,-65416,-4.717908468,16191,1.167721292,36480,21113.28125
-15.50708777,-215013,128,-12.47603208,-172986,128,-65344,-4.712715711,16369,1.180558941,37120,21132.8125
-15.49641377,-214865,128,-12.47588783,-172984,128,-64520,-4.653287489,16067,1.15877821,37760,21152.34375
-15.44636136,-214171,128,-12.42302268,-172251,128,-65298,-4.709398116,15822,1.14110841,38400,21171.875
-15.363133,-213017,128,-12.39366918,-171844,128,-63489,-4.578930089,15612,1.125962868,39040,21191.40625
-15.28062585,-211873,128,-12.33510641,-171032,128,-57089,-4.117351665,560,0.040388112,39680,21210.9375
-15.33457283,-212621,128,-12.42251783,-172244,128,-61690,-4.449183279,497,0.03584445,40320,21230.46875
-15.42472487,-213871,128,-12.5114438,-173477,128,-64629,-4.661148746,16334,1.178034684,40960,21250
-15.48069125,-214647,128,-12.55752952,-174116,128,-65533,-4.726346699,14528,1.047783023,41600,21269.53125
-15.51667994,-215146,128,-12.57217021,-174319,128,-65533,-4.726346699,14336,1.03393567,42240,21289.0625
-15.53471035,-215396,128,-12.60224493,-174736,128,-57345,-4.135814802,14479,1.044249063,42880,21308.59375
-15.47672456,-214592,128,-12.5674823,-174254,128,-57839,-4.171442887,15612,1.125962868,43520,21328.125
-15.51740116,-215156,128,-12.6011631,-174721,128,-57586,-4.153196115,16222,1.169957062,44160,21347.65625
-15.50196713,-214942,128,-12.58745999,-174531,128,-64993,-4.687401019,14384,1.037397508,44800,21367.1875
-15.46064144,-214369,128,-12.55435616,-174072,128,-64761,-4.670668801,15612,1.125962868,45440,21386.71875
-15.45097714,-214235,128,-12.55724103,-174112,128,-65028,-4.689925276,16128,1.163177629,46080,21406.25
-15.46843057,-214477,128,-12.57779569,-174397,128,-65530,-4.726130334,15296,1.103172434,46720,21425.78125
-15.4608578,-214372,128,-12.57664175,-174381,128,-57457,-4.143892425,15583,1.123871341,47360,21445.3125
-15.42652791,-213896,128,-12.54873068,-173994,128,-65473,-4.722019401,15588,1.124231949,48000,21464.84375
-15.43878859,-214066,128,-12.56438107,-174211,128,-65344,-4.712715711,16354,1.179477117,48640,21484.375
-15.3934962,-213438,128,-12.52615661,-173681,128,-65085,-4.694036209,15872,1.144714492,49280,21503.90625
-15.43099945,-213958,128,-12.58471937,-174493,128,-63967,-4.613404228,15344,1.106634272,49920,21523.4375
-15.43179279,-213969,128,-12.56351561,-174199,128,-57400,-4.139781492,15399,1.110600962,50560,21542.96875
-15.44405346,-214139,128,-12.58832545,-174543,128,-63519,-4.581093738,16095,1.160797615,51200,21562.5
-15.43489402,-214012,128,-12.58818121,-174541,128,-65262,-4.706801737,15358,1.107643975,51840,21582.03125
-15.43395644,-213999,128,-12.57577629,-174369,128,-65296,-4.709253873,16188,1.167504927,52480,21601.5625
-15.44455832,-214146,128,-12.59272487,-174604,128,-57401,-4.139853613,16040,1.156830926,53120,21621.09375
-15.43662494,-214036,128,-12.61710198,-174942,128,-65249,-4.705864156,16231,1.170606157,53760,21640.625
-15.41794543,-213777,128,-12.58118541,-174444,128,-65519,-4.725336996,15372,1.108653678,54400,21660.15625
-15.33543829,-212633,128,-12.55284161,-174051,128,-63483,-4.57849736,103,0.007428528,55040,21679.6875
-15.26483122,-211654,128,-12.55536587,-174086,128,-65522,-4.725553361,386,0.027838949,55680,21699.21875
-15.25603238,-211532,128,-12.53264755,-173771,128,-65249,-4.705864156,404,0.029137138,56320,21718.75
-15.3481317,-212809,128,-12.5764975,-174379,128,-63489,-4.578930089,163,0.011755825,56960,21738.28125
-15.36818151,-213087,128,-12.55572648,-174091,128,-63620,-4.588378023,16327,1.177529833,57600,21757.8125
-15.39306347,-213432,128,-12.59827824,-174681,128,-63744,-4.597321105,14,0.001009703,58240,21777.34375
-15.41390662,-213721,128,-12.60491343,-174773,128,-57568,-4.151897925,15614,1.126107112,58880,21796.875
-15.40993993,-213666,128,-12.60556252,-174782,128,-63742,-4.597176861,15390,1.109951867,59520,21816.40625
-14.37232606,-199279,128,-12.22216394,-169466,128,-56834,-4.09896065,17535,1.264652761,60160,21835.9375
-14.71612987,-204046,128,-12.42093115,-172222,128,-61576,-4.440961413,9200,0.663518985,60800,21855.46875
-15.36839788,-213090,128,-12.60902436,-174830,128,-64449,-4.648166853,304,0.021924975,61440,21875
-15.37539367,-213187,128,-12.61998685,-174982,128,-65509,-4.724615779,16135,1.16368248,62080,21894.53125
-15.37171547,-213136,128,-12.6001534,-174707,128,-64060,-4.620111539,16272,1.173563143,62720,21914.0625
-15.34611229,-212781,128,-12.55716891,-174111,128,-64640,-4.661942084,13,9.38E-04,63360,21933.59375
-15.33853952,-212676,128,-12.56228954,-174182,128,-65232,-4.704638088,896,0.064620979,64000,21953.125
-15.3454632,-212772,128,-12.55796225,-174122,128,-63506,-4.580156157,16190,1.16764917,64640,21972.65625
-15.32086972,-212431,128,-12.55363495,-174062,128,-65536,-4.726563063,16,0.001153946,65280,21992.1875
-15.31719152,-212380,128,-12.55002887,-174012,128,-65409,-4.717403617,783,0.056471235,384,22011.71875
-15.27146641,-211746,128,-12.52449781,-173658,128,-63482,-4.578425238,1151,0.083011995,1024,22031.25
-15.20439329,-210816,128,-12.44797676,-172597,128,-64626,-4.660932381,1473,0.106235159,1664,22050.78125
-15.18261256,-210514,128,-12.42258995,-172245,128,-63493,-4.579218576,3603,0.259854228,2304,22070.3125
-15.0880611,-209203,128,-12.37477331,-171582,128,-61468,-4.433172278,3999,0.288414393,2944,22089.84375
-15.06721795,-208914,128,-12.40506439,-172002,128,-53233,-3.839250665,3620,0.261080296,3584,22109.375
-15.13227166,-209816,128,-12.46413201,-172821,128,-61445,-4.43151348,3902,0.281418595,4224,22128.90625
-15.23497286,-211240,128,-12.54303307,-173915,128,-64636,-4.661653598,2240,0.161552448,4864,22148.4375
-15.26915851,-211714,128,-12.5584671,-174129,128,-64513,-4.652782637,254,0.018318894,5504,22167.96875
-15.31077269,-212291,128,-12.61061103,-174852,128,-64257,-4.6343195,1016,0.073275575,6144,22187.5
-15.33904437,-212683,128,-12.59539337,-174641,128,-65521,-4.725481239,496,0.035772328,6784,22207.03125
-15.3427947,-212735,128,-12.6338342,-175174,128,-65055,-4.69187256,377,0.027189854,7424,22226.5625
-15.31221513,-212311,128,-12.62034745,-174987,128,-65501,-4.724038806,384,0.027694705,8064,22246.09375
-15.29173258,-212027,128,-12.58169026,-174451,128,-63996,-4.615495755,193,0.013919474,8704,22265.625
-15.28754953,-211969,128,-12.56510229,-174221,128,-64141,-4.625953391,99,0.007140041,9344,22285.15625
-15.32036487,-212424,128,-12.60498555,-174774,128,-64254,-4.634103135,14,0.001009703,9984,22304.6875
-15.30651752,-212232,128,-12.59337397,-174613,128,-65284,-4.708388413,785,0.056615479,10624,22324.21875
-15.28848711,-211982,128,-12.58306057,-174470,128,-63494,-4.579290697,1023,0.073780426,11264,22343.75
-15.32476429,-212485,128,-12.58861394,-174547,128,-65535,-4.726490942,1016,0.073275575,11904,22363.28125
-15.31668667,-212373,128,-12.59755702,-174671,128,-64516,-4.652999002,1009,0.072770723,12544,22382.8125
-15.29591564,-212085,128,-12.56798715,-174261,128,-63545,-4.582968901,116,0.008366109,13184,22402.34375
-15.35166566,-212858,128,-12.6101783,-174846,128,-63940,-4.611456944,6,4.33E-04,13824,22421.875
-15.32202367,-212447,128,-12.58493573,-174496,128,-57488,-4.146128195,568,0.040965085,14464,22441.40625
-15.34070317,-212706,128,-12.5948164,-174633,128,-63878,-4.606985403,1007,0.07262648,15104,22460.9375
-15.37171547,-213136,128,-12.6305166,-175128,128,-64536,-4.654441435,16248,1.171832224,15744,22480.46875
-15.35390143,-212889,128,-12.60224493,-174736,128,-65032,-4.690213763,639,0.046085721,16384,22500
