Device,Device,Device,Device,Device,Device,Device,Device,Device,Device,Device,Device
ECG LL-RA,ECG LL-RA,EXG2 Status,ECG LA-RA,ECG LA-RA,EXG1 Status,ECG Vx-RL,ECG Vx-RL,ExG2 CH1,ExG2 CH1,Timestamp,Timestamp
CAL,RAW,RAW,CAL,RAW,RAW,CAL,RAW,CAL,RAW,CAL,RAW
mV,No Units,No Units,mV,No Units,No Units,mV,No Units,mV,No Units,mSecs,No Units
7.974560615,110571,128,-7.010510804,-97204,128,-0.572429368,-7937,1.111250056,15408,58.59375,1920
7.971026656,110522,128,-6.961251731,-96521,128,-9.445192748,-130962,1.16368248,16135,78.125,2560
7.962083574,110398,128,-6.966588732,-96595,128,-9.444038802,-130946,1.181568644,16383,97.65625,3200
7.937417977,110056,128,-6.936441891,-96177,128,2.509183587,34791,1.171832224,16248,117.1875,3840
7.920325151,109819,128,-6.936730377,-96181,128,-4.761469932,-66020,1.108004583,15363,136.71875,4480
7.903809298,109590,128,-6.944952243,-96295,128,0.058923371,817,1.123654976,15580,156.25,5120
7.88311039,109303,128,-6.921440592,-95969,128,2.88E-04,4,1.181063793,16376,175.78125,5760
7.887437688,109363,128,-6.924181214,-96007,128,0.147921461,2051,1.174428603,16284,195.3125,6400
7.895443189,109474,128,-6.876436696,-95345,128,-0.12931408,-1793,1.180558941,16369,214.84375,7040
7.932657949,109990,128,-6.870811209,-95267,128,0.286178623,3968,1.145002978,15876,234.375,7680
7.913617839,109726,128,-6.875787601,-95336,128,0.286106501,3967,1.108220948,15366,253.90625,8320
7.874527916,109184,128,-6.916392078,-95899,128,-2.297506606,-31856,1.16368248,16135,273.4375,8960
7.787332867,107975,128,-6.958438988,-96482,128,2.363281532,32768,1.050090915,14560,292.96875,9600
7.716581549,106994,128,-7.034671549,-97539,128,2.372224614,32892,1.069707998,14832,312.5,10240
7.646767813,106026,128,-7.092585217,-98342,128,-2.36407487,-32779,0.525838795,7291,332.03125,10880
7.621741607,105679,128,-7.155763764,-99218,128,-2.363425775,-32770,0.589594315,8175,351.5625,11520
7.583733509,105152,128,-7.162903805,-99317,128,-2.381311939,-33018,0.583824585,8095,371.09375,12160
7.543345397,104592,128,-7.219879892,-100107,128,-2.509904803,-34801,0.462660249,6415,390.625,12800
7.528199855,104382,128,-7.247069746,-100484,128,-2.395375657,-33213,0.524973336,7279,410.15625,13440
7.510746421,104140,128,-7.282625709,-100977,128,-2.536517684,-35170,0.570121475,7905,429.6875,14080
7.482474742,103748,128,-7.313421644,-101404,128,-2.652994115,-36785,0.531175796,7365,449.21875,14720
7.479661999,103709,128,-7.342919391,-101813,128,-2.640372829,-36610,0.531320039,7367,468.75,15360
7.460117037,103438,128,-7.385543273,-102404,128,2.289428984,31744,0.516967835,7168,488.28125,16000
7.429753832,103017,128,-7.448072725,-103271,128,-2.806613184,-38915,0.516895713,7167,507.8125,16640
7.406097937,102689,128,-7.540749018,-104556,128,-2.917247762,-40449,0.480546413,6663,527.34375,17280
7.360661311,102059,128,-7.564404913,-104884,128,1.832394222,25407,0.292958056,4062,546.875,17920
7.347174567,101872,128,-7.606019092,-105461,128,-2.815628387,-39040,0.291299259,4039,566.40625,18560
7.391817855,102491,128,-7.637319879,-105895,128,-2.953597063,-40953,0.287260447,3983,585.9375,19200
7.39780395,102574,128,-7.619505837,-105648,128,-2.88082634,-39944,0.544446176,7549,605.46875,19840
7.373643204,102239,128,-7.54925937,-104674,128,-2.822696307,-39138,0.293030178,4063,625,20480
7.253488571,100573,128,-7.587844442,-105209,128,1.845953089,25595,0.259637864,3600,644.53125,21120
7.193050646,99735,128,-7.62628527,-105742,128,1.790852164,24831,0.069236764,960,664.0625,21760
7.160091062,99278,128,-7.648354488,-106048,128,-2.363858505,-32776,0.074934372,1039,683.59375,22400
7.105062259,98515,128,-7.78214011,-107903,128,-2.954174036,-40961,0.029930476,415,703.125,23040
8.099835885,112308,128,-7.191391848,-99712,128,2.054168231,28482,0.003461838,48,722.65625,23680
8.205566192,113774,128,-7.159009237,-99263,128,0.003173352,44,0.581588814,8064,742.1875,24320
7.025656346,97414,128,-7.837024669,-108664,128,1.731496064,24008,1.144714492,15872,761.71875,24960
7.104990137,98514,128,-7.664077003,-106266,128,-2.364435478,-32784,2.36320941,32767,781.25,25600
7.091431271,98326,128,-7.599383902,-105369,128,1.774985406,24611,4.33E-04,6,800.78125,26240
7.060130484,97892,128,-7.505048812,-104061,128,1.781620596,24703,2.359531207,32716,820.3125,26880
7.067631134,97996,128,-7.441221171,-103176,128,-2.919483533,-40480,2.326138893,32253,839.84375,27520
7.044696456,97678,128,-7.396000909,-102549,128,-2.887750016,-40040,1.181280158,16379,859.375,28160
7.042821293,97652,128,-7.338087241,-101746,128,-2.649388033,-36735,2.291664754,31775,878.90625,28800
7.02760363,97441,128,-7.292362129,-101112,128,-2.43713408,-33792,1.179693482,16357,898.4375,29440
7.055731065,97831,128,-7.297122156,-101178,128,-2.38181679,-33025,1.164836426,16151,917.96875,30080
7.048518902,97731,128,-7.305344022,-101292,128,-2.436845593,-33788,2.324263731,32227,937.5,30720
7.097561609,98411,128,-7.234664826,-100312,128,-2.500673235,-34673,2.362199707,32753,957.03125,31360
7.092657339,98343,128,-7.176029942,-99499,128,2.217667963,30749,2.363137288,32766,976.5625,32000
7.066909917,97986,128,-7.22601023,-100192,128,-2.478748259,-34369,1.177529833,16327,996.09375,32640
6.97271907,96680,128,-7.286303912,-101028,128,2.342726868,32483,1.109807624,15388,1015.625,33280
6.872830614,95295,128,-7.386552976,-102418,128,2.103571547,29167,1.140098708,15808,1035.15625,33920
6.837707381,94808,128,-7.496249973,-103939,128,1.994235157,27651,1.106634272,15344,1054.6875,34560
6.80799327,94396,128,-7.521420422,-104288,128,-2.93794667,-40736,1.158489723,16063,1074.21875,35200
6.79558835,94224,128,-7.531733815,-104431,128,2.34503476,32515,2.06787134,28672,1093.75,35840
6.791910147,94173,128,-7.469420727,-103567,128,-2.381744669,-33024,1.806863166,25053,1113.28125,36480
6.778928254,93993,128,-7.414103438,-102800,128,1.781620596,24703,1.790924286,24832,1132.8125,37120
6.783832524,94061,128,-7.368017717,-102161,128,-2.950567955,-40911,1.780755136,24691,1152.34375,37760
6.749214142,93581,128,-7.344289701,-101832,128,-2.622991517,-36369,1.781620596,24703,1171.875,38400
6.727433411,93279,128,-7.364339514,-102110,128,2.077030787,28799,1.179477117,16354,1191.40625,39040
6.702984178,92940,128,-7.365854069,-102131,128,2.076886544,28797,1.17918863,16350,1210.9375,39680
6.682501636,92656,128,-7.419079831,-102869,128,1.777004811,24639,1.149618763,15940,1230.46875,40320
6.657475431,92309,128,-7.444106036,-103216,128,1.780538771,24688,1.172697684,16260,1250,40960
6.637209253,92028,128,-7.513703407,-104181,128,1.77253327,24577,1.1220683,15558,1269.53125,41600
6.641536551,92088,128,-7.551783627,-104709,128,2.356285734,32671,1.171976468,16250,1289.0625,42240
6.680121622,92623,128,-7.608182741,-105491,128,2.219903734,30780,1.162312169,16116,1308.59375,42880
6.723394599,93223,128,-7.599888754,-105376,128,-2.492595612,-34561,1.181568644,16383,1328.125,43520
6.695916259,92842,128,-7.525531355,-104345,128,-2.953597063,-40953,1.78046665,24687,1347.65625,44160
6.608072115,91624,128,-7.540099924,-104547,128,-2.494615018,-34589,1.181568644,16383,1367.1875,44800
6.578862855,91219,128,-7.495384514,-103927,128,1.77253327,24577,1.772461149,24576,1386.71875,45440
6.535085027,90612,128,-7.474757728,-103641,128,-2.363353653,-32769,1.781187866,24697,1406.25,46080
6.504866064,90193,128,-7.459323699,-103427,128,1.809315301,25087,1.18048682,16368,1425.78125,46720
7.045994645,97696,128,-7.008707763,-97179,128,2.224231031,30840,1.850352508,25656,1445.3125,47360
7.837385277,108669,128,-6.674063405,-92539,128,-2.333278934,-32352,0.001081824,15,1464.84375,48000
6.413560082,88927,128,-7.54659087,-104637,128,-2.926407209,-40576,0.923084727,12799,1484.375,48640
6.482147751,89878,128,-7.341332715,-101791,128,1.902784932,26383,1.237030177,17152,1503.90625,49280
6.498952091,90111,128,-7.299574292,-101212,128,2.358665747,32704,1.774192068,24600,1523.4375,49920
6.479839859,89846,128,-7.278803263,-100924,128,-2.543946212,-35273,1.183876536,16415,1542.96875,50560
6.486186562,89934,128,-7.25875345,-100646,128,-2.585271905,-35846,1.201185727,16655,1562.5,51200
6.486402927,89937,128,-7.274331722,-100862,128,-2.630492166,-36473,0.590748261,8191,1582.03125,51840
6.504577578,90189,128,-7.214326526,-100030,128,-2.400640535,-33286,1.778158757,24655,1601.5625,52480
6.504000605,90181,128,-7.191247605,-99710,128,2.252719075,31235,1.199671173,16634,1621.09375,53120
6.507678808,90232,128,-7.12417449,-98780,128,-2.366887613,-32818,1.772677514,24579,1640.625,53760
6.526646796,90495,128,-7.101384056,-98464,128,2.356069369,32668,1.800444341,24964,1660.15625,54400
6.549509352,90812,128,-7.066549309,-97981,128,-0.590748261,-8191,1.807728625,25065,1679.6875,55040
6.564582773,91021,128,-7.055009848,-97821,128,0.035988693,499,1.790635799,24828,1699.21875,55680
6.515179457,90336,128,-7.047581321,-97718,128,-0.519347849,-7201,1.781620596,24703,1718.75,56320
6.463684614,89622,128,-7.090710055,-98316,128,-2.364435478,-32784,0.55439896,7687,1738.28125,56960
6.382764147,88500,128,-7.182448767,-99588,128,2.362055464,32751,0.590531896,8188,1757.8125,57600
6.359468861,88177,128,-7.187569402,-99659,128,-2.400207806,-33280,1.199599051,16633,1777.34375,58240
6.305666125,87431,128,-7.229255704,-100237,128,2.216225531,30729,1.181785009,16386,1796.875,58880
6.29080907,87225,128,-7.21937504,-100100,128,-2.391264724,-33156,1.201185727,16655,1816.40625,59520
6.263547094,86847,128,-7.258969815,-100649,128,-2.508750857,-34785,0.582670639,8079,1835.9375,60160
6.29304484,87256,128,-7.228173879,-100222,128,2.138189928,29647,1.183371685,16408,1855.46875,60800
6.310931004,87504,128,-7.185982726,-99637,128,2.287337457,31715,1.213951256,16832,1875,61440
6.280207191,87078,128,-7.174299022,-99475,128,-2.377128884,-32960,1.200031781,16639,1894.53125,62080
6.266864689,86893,128,-7.206465269,-99921,128,-2.372008249,-32889,0.590604018,8189,1914.0625,62720
6.239314227,86511,128,-7.288395439,-101057,128,2.132708685,29571,0.590387653,8186,1933.59375,63360
6.221067455,86258,128,-7.318253794,-101471,128,2.085252653,28913,1.182506225,16396,1953.125,64000
6.195897006,85909,128,-7.319191375,-101484,128,-2.43626862,-33780,1.18979051,16497,1972.65625,64640
6.19517579,85899,128,-7.317316212,-101458,128,2.126145616,29480,1.183227442,16406,1992.1875,65280
6.213927414,86159,128,-7.356694622,-102004,128,-2.643978911,-36660,0.582670639,8079,2011.71875,384
6.285327826,87149,128,-7.307074941,-101316,128,-2.367680951,-32829,1.19599297,16583,2031.25,1024
6.2425597,86556,128,-7.31457559,-101420,128,2.358954234,32708,0.590531896,8188,2050.78125,1664
6.134305136,85055,128,-7.43054717,-103028,128,2.306233323,31977,0.294833218,4088,2070.3125,2304
6.082738171,84340,128,-7.458169753,-103411,128,-2.43936985,-33823,0.260431202,3611,2089.84375,2944
6.045234924,83820,128,-7.526901666,-104364,128,-2.409511496,-33409,0.147056001,2039,2109.375,3584
5.996985554,83151,128,-7.550269073,-104688,128,2.344818395,32512,0.117702498,1632,2128.90625,4224
6.155004043,85342,128,-7.411002208,-102757,128,-2.827528456,-39205,1.410049964,19551,2148.4375,4864
7.275341424,100876,128,-6.896486508,-95623,128,0.111283673,1543,0.258772404,3588,2167.96875,5504
6.017900827,83441,128,-7.77463946,-107799,128,1.743035524,24168,0.082507143,1144,2187.5,6144
6.018694165,83452,128,-7.625347689,-105729,128,-2.476151881,-34333,1.18358805,16411,2207.03125,6784
5.987753986,83023,128,-7.664653977,-106274,128,-2.657609899,-36849,1.18272259,16399,2226.5625,7424
5.996913433,83150,128,-7.695305669,-106699,128,-2.963405605,-41089,0.055605776,771,2246.09375,8064
5.960347767,82643,128,-7.702662075,-106801,128,-3.25189212,-45089,0.071328291,989,2265.625,8704
5.962872024,82678,128,-7.749541134,-107451,128,1.718658414,23830,0.055389411,768,2285.15625,9344
5.958039875,82611,128,-7.791299557,-108030,128,1.440052562,19967,0.039234166,544,2304.6875,9984
5.958905334,82623,128,-7.783005569,-107915,128,-3.258815796,-45185,0.073780426,1023,2324.21875,10624
5.967704173,82745,128,-7.786683772,-107966,128,1.734092442,24044,1.183660171,16412,2343.75,11264
5.956453199,82589,128,-7.801973558,-108178,128,-3.259969742,-45201,1.219648864,16911,2363.28125,11904
6.000591636,83201,128,-7.722495523,-107076,128,-3.258671553,-45183,1.182001374,16389,2382.8125,12544
5.994389176,83115,128,-7.738722889,-107301,128,-3.307714261,-45863,0.139266865,1931,2402.34375,13184
5.978810904,82899,128,-7.77153823,-107756,128,-3.25852731,-45181,0.131333486,1821,2421.875,13824
5.893995868,81723,128,-7.858949644,-108968,128,1.710364426,23715,0.017886164,248,2441.40625,14464
5.84048162,80981,128,-7.887654053,-109366,128,-3.470925506,-48126,1.146229046,15893,2460.9375,15104
5.768864843,79988,128,-7.922560921,-109850,128,-3.528767053,-48928,1.181280158,16379,2480.46875,15744
5.75061807,79735,128,-7.909795393,-109673,128,-3.517011227,-48765,0.009159447,127,2500,16384
5.732371298,79482,128,-7.868397578,-109099,128,-3.434071354,-47615,0.009159447,127,2519.53125,17024
5.712826337,79211,128,-7.854694468,-108909,128,-3.492417752,-48424,0.021852854,303,2539.0625,17664
5.712393607,79205,128,-7.822167614,-108458,128,-3.086877833,-42801,0.020987394,291,2558.59375,18304
5.737491934,79553,128,-7.817407586,-108392,128,1.186184428,16447,0.009231568,128,2578.125,18944
5.718235459,79286,128,-7.782356475,-107906,128,-3.059687979,-42424,0.004543663,63,2597.65625,19584
5.696959579,78991,128,-7.737785308,-107288,128,-3.323220411,-46078,7.21E-05,1,2617.1875,20224
5.691766821,78919,128,-7.68427106,-106546,128,-3.253983647,-45118,5.05E-04,7,2636.71875,20864
5.64120956,78218,128,-7.65152784,-106092,128,-3.267758878,-45309,0.036998396,513,2656.25,21504
5.635944681,78145,128,-7.622823432,-105694,128,2.088786613,28962,0.004615784,64,2675.78125,22144
5.608105732,77759,128,-7.598518443,-105357,128,-2.587147067,-35872,0.011467339,159,2695.3125,22784
5.650441128,78346,128,-7.54745633,-104649,128,2.136459009,29623,1.44E-04,2,2714.84375,23424
5.672582468,78653,128,-7.544499343,-104608,128,1.911511649,26504,0.009231568,128,2734.375,24064
5.69126197,78912,128,-7.497403919,-103955,128,-2.508822979,-34786,0.035988693,499,2753.90625,24704
5.640488343,78208,128,-7.453193361,-103342,128,2.335442583,32382,0,0,2773.4375,25344
5.535190765,76748,128,-7.489254175,-103842,128,-2.471824583,-34273,0.008726717,121,2792.96875,25984
5.500716627,76270,128,-7.470791038,-103586,128,-2.365661545,-32801,0.009159447,127,2812.5,26624
5.462564285,75741,128,-7.456078226,-103382,128,-2.381744669,-33024,0.02877653,399,2832.03125,27264
5.509876074,76397,128,-7.441004806,-103173,128,2.344457787,32507,0.062601574,868,2851.5625,27904
6.915454497,95886,128,-6.623434022,-91837,128,0.290722286,4031,1.744333714,24186,2871.09375,28544
5.692776524,78933,128,-7.304694927,-101283,128,-0.470305141,-6521,0.554110474,7683,2890.625,29184
5.373710438,74509,128,-7.468483146,-103554,128,2.363137288,32766,1.164043088,16140,2910.15625,29824
5.4269362,75247,128,-7.3822978,-102359,128,2.058639772,28544,0.001153946,16,2929.6875,30464
5.423041633,75193,128,-7.364411636,-102111,128,-2.437061958,-33791,0.004110933,57,2949.21875,31104
5.405443955,74949,128,-7.346741837,-101866,128,2.06787134,28672,0.021780732,302,2968.75,31744
5.411069442,75027,128,-7.312628306,-101393,128,-2.584911297,-35841,0.019689205,273,2988.28125,32384
5.423113754,75194,128,-7.279452357,-100933,128,2.146051186,29756,0.001009703,14,3007.8125,33024
5.417776754,75120,128,-7.25211826,-100554,128,2.19761815,30471,0.009087325,126,3027.34375,33664
5.416622808,75104,128,-7.186848186,-99649,128,-2.507019938,-34761,3.61E-04,5,3046.875,34304
5.415685226,75091,128,-7.180140874,-99556,128,-2.474204597,-34306,0.001081824,15,3066.40625,34944
5.428090147,75263,128,-7.133766667,-98913,128,-2.37027733,-32865,0.036854152,511,3085.9375,35584
5.443596297,75478,128,-7.075925121,-98111,128,2.355708761,32663,0.018318894,254,3105.46875,36224
5.42556589,75228,128,-7.083642135,-98218,128,-0.585988234,-8125,0.00223577,31,3125,36864
5.360728545,74329,128,-7.092296731,-98338,128,-2.363497897,-32771,0.036854152,511,3144.53125,37504
5.271297726,73089,128,-7.168673535,-99397,128,-2.37027733,-32865,7.21E-05,1,3164.0625,38144
5.20595553,72183,128,-7.192040943,-99721,128,-2.399125981,-33265,0.58627672,8129,3183.59375,38784
5.171120783,71700,128,-7.207979823,-99942,128,-2.508822979,-34786,5.05E-04,7,3203.125,39424
5.154965538,71476,128,-7.194276714,-99752,128,2.217307355,30744,0.003750325,52,3222.65625,40064
5.144724267,71334,128,-7.166149278,-99362,128,-2.494326531,-34585,0.001081824,15,3242.1875,40704
5.125612035,71069,128,-7.184179686,-99612,128,-2.382033155,-33028,0.001081824,15,3261.71875,41344
5.110394372,70858,128,-7.158792872,-99260,128,2.282433186,31647,0.008510352,118,3281.25,41984
5.096691262,70668,128,-7.144584911,-99063,128,-2.363353653,-32769,0.001081824,15,3300.78125,42624
5.100730074,70724,128,-7.140618222,-99008,128,2.328735272,32289,0.589666437,8176,3320.3125,43264
5.083060274,70479,128,-7.125616923,-98800,128,-2.367897316,-32832,0.019544961,271,3339.84375,43904
5.042311554,69914,128,-7.121433869,-98742,128,2.333783786,32359,0,0,3359.375,44544
5.029185418,69732,128,-7.132612721,-98897,128,-2.39155321,-33160,0.590748261,8191,3378.90625,45184
5.017573836,69571,128,-7.105494989,-98521,128,2.348496598,32563,0.290794407,4032,3398.4375,45824
4.987138508,69149,128,-7.14011337,-99001,128,-2.366671248,-32815,0.287404691,3985,3417.96875,46464
4.976176021,68997,128,-7.083930622,-98222,128,1.44E-04,2,0,0,3437.5,47104
4.958289857,68749,128,-7.118044152,-98695,128,2.36320941,32767,0.258483918,3584,3457.03125,47744
4.96506929,68843,128,-7.063664444,-97941,128,0.036565666,507,0.016155245,224,3476.5625,48384
4.997019171,69286,128,-7.073545107,-98078,128,-1.165485521,-16160,0.286683474,3975,3496.09375,49024
5.018078687,69578,128,-7.049961334,-97751,128,-1.121924057,-15556,0.034834747,483,3515.625,49664
5.041950946,69909,128,-7.018227818,-97311,128,-1.145219343,-15879,0.020698907,287,3535.15625,50304
4.928864232,68341,128,-7.042460685,-97647,128,0.117197647,1625,0.290505921,4028,3554.6875,50944
4.890495526,67809,128,-7.032291535,-97506,128,-1.16101398,-16098,0.293174421,4065,3574.21875,51584
4.853713495,67299,128,-7.04224432,-97644,128,-1.156253953,-16032,0.12931408,1793,3593.75,52224
4.836115818,67055,128,-7.051908618,-97778,128,-1.180558941,-16369,0.1107067,1535,3613.28125,52864
5.174438378,71746,128,-6.748925656,-93577,128,-1.153729696,-15997,0.110995187,1539,3632.8125,53504
6.271624717,86959,128,-6.225538996,-86320,128,-0.003461838,-48,1.24734357,17295,3652.34375,54144
5.073900828,70352,128,-6.990172504,-96922,128,0.14655115,2032,0.041542058,576,3671.875,54784
4.816498735,66783,128,-7.016280534,-97284,128,-2.363570018,-32772,2.16E-04,3,3691.40625,55424
4.856237752,67334,128,-6.976830003,-96737,128,0.113014592,1567,0.027838949,386,3710.9375,56064
4.856021387,67331,128,-6.964569326,-96567,128,0.069308885,961,0.017309191,240,3730.46875,56704
4.825009087,66901,128,-6.990172504,-96922,128,-1.107355488,-15354,0.008438231,117,3750,57344
4.818229654,66807,128,-6.964208718,-96562,128,-1.10786034,-15361,0.01637161,227,3769.53125,57984
4.808421112,66671,128,-6.958871717,-96488,128,-1.179404995,-16353,0.009159447,127,3789.0625,58624
4.830995182,66984,128,-6.907665361,-95778,128,0.15232088,2112,0.018463137,256,3808.59375,59264
4.822340586,66864,128,-6.903554428,-95721,128,0.291010772,4035,0.001153946,16,3828.125,59904
4.82912002,66958,128,-6.842755895,-94878,128,-1.174572846,-16286,0.036854152,511,3847.65625,60544
4.859483225,67379,128,-6.824509123,-94625,128,-1.121130719,-15545,0.01637161,227,3867.1875,61184
4.843183737,67153,128,-6.783039186,-94050,128,-0.728284207,-10098,0.036998396,513,3886.71875,61824
4.844914656,67177,128,-6.793713187,-94198,128,0.138978379,1927,0,0,3906.25,62464
4.801208949,66571,128,-6.807344175,-94387,128,-0.572285124,-7935,2.16E-04,3,3925.78125,63104
4.704854453,65235,128,-6.891005265,-95547,128,-1.089469324,-15106,0.001081824,15,3945.3125,63744
4.695622885,65107,128,-6.902905333,-95712,128,-1.181640766,-16384,1.165413399,16159,3964.84375,64384
4.632877068,64237,128,-6.933124296,-96131,128,-1.177097103,-16321,2.233967451,30975,3984.375,65024
4.623861864,64112,128,-6.914661159,-95875,128,0.036854152,511,2.216730382,30736,4003.90625,128
4.62148185,64079,128,-6.930239431,-96091,128,-1.163466115,-16132,2.216081287,30727,4023.4375,768
4.620183661,64061,128,-6.878167615,-95369,128,0.010241271,142,2.247886926,31168,4042.96875,1408
4.628694013,64179,128,-6.882278548,-95426,128,-0.974002597,-13505,2.233101992,30963,4062.5,2048
4.621409729,64078,128,-6.862300856,-95149,128,-1.116803422,-15485,2.252430588,31231,4082.03125,2688
4.60287447,63821,128,-6.84520803,-94912,128,0.082507143,1144,2.238655357,31040,4101.5625,3328
4.568905183,63350,128,-6.891870724,-95559,128,0.038152342,529,1.177169225,16322,4121.09375,3968
4.55282206,63127,128,-6.875066385,-95326,128,-1.0060246,-13949,2.083954463,28895,4140.625,4608
4.542797153,62988,128,-6.887399183,-95497,128,0.155999083,2163,2.06787134,28672,4160.15625,5248
4.531834666,62836,128,-6.88768767,-95501,128,0.184703491,2561,1.181063793,16376,4179.6875,5888
4.512722434,62571,128,-6.858694775,-95099,128,-1.098484528,-15231,2.068953165,28687,4199.21875,6528
4.47976285,62114,128,-6.897351968,-95635,128,-0.961886163,-13337,1.170173427,16225,4218.75,7168
4.47579616,62059,128,-6.853502018,-95027,128,-1.180775306,-16372,2.068087705,28675,4238.28125,7808
4.531906787,62837,128,-6.848165017,-94953,128,-1.179116509,-16349,2.068953165,28687,4257.8125,8448
4.560611196,63235,128,-6.82039819,-94568,128,0.070967683,984,2.103643668,29168,4277.34375,9088
4.57453067,63428,128,-6.778423402,-93986,128,0.311421193,4318,2.13739659,29636,4296.875,9728
4.477959809,62089,128,-6.831432799,-94721,128,-0.92322897,-12801,1.154595155,16009,4316.40625,10368
4.427258304,61386,128,-6.818018176,-94535,128,0.276370081,3832,1.807079531,25056,4335.9375,11008
4.406198788,61094,128,-6.835327367,-94775,128,0.113591565,1575,1.773615095,24592,4355.46875,11648
4.369921609,60591,128,-6.838644962,-94821,128,-1.179693482,-16357,1.181568644,16383,4375,12288
4.762479635,66034,128,-6.506236375,-90212,128,0.276874933,3839,1.919589271,26616,4394.53125,12928
5.773913357,80058,128,-6.128607527,-84976,128,-0.295410191,-4096,0.011467339,159,4414.0625,13568
4.334005038,60093,128,-7.017506602,-97301,128,0.037070517,514,1.110240353,15394,4433.59375,14208
4.338332336,60153,128,-6.805469013,-94361,128,-0.901880968,-12505,1.81854687,25215,4453.125,14848
4.384706543,60796,128,-6.788376187,-94124,128,-1.181135914,-16377,1.777004811,24639,4472.65625,15488
4.391558098,60891,128,-6.752748102,-93630,128,0.295482313,4097,1.788616394,24800,4492.1875,16128
4.381965921,60758,128,-6.733058898,-93357,128,-0.858607991,-11905,1.781043623,24695,4511.71875,16768
4.367036744,60551,128,-6.733347384,-93361,128,-1.181424401,-16381,1.790275191,24823,4531.25,17408
4.39119749,60886,128,-6.691516839,-92781,128,0.434100084,6019,1.78977034,24816,4550.78125,18048
4.393649625,60920,128,-6.670313081,-92487,128,-1.167577048,-16189,1.790852164,24831,4570.3125,18688
4.410093356,61148,128,-6.658917863,-92329,128,0.31437818,4359,1.781404231,24700,4589.84375,19328
4.412401249,61180,128,-6.603456331,-91560,128,0.449966842,6239,1.790780043,24830,4609.375,19968
4.436994724,61521,128,-6.567972489,-91068,128,-0.595436167,-8256,2.072559246,28737,4628.90625,20608
4.430503777,61431,128,-6.557731218,-90926,128,-1.038335089,-14397,1.790852164,24831,4648.4375,21248
4.394442963,60931,128,-6.561265178,-90975,128,0.59024341,8184,2.069025286,28688,4667.96875,21888
4.371580407,60614,128,-6.600138736,-91514,128,0.452563221,6275,1.179332874,16352,4687.5,22528
4.294410264,59544,128,-6.692959272,-92801,128,-0.591974329,-8208,1.17781832,16331,4707.03125,23168
4.254166395,58986,128,-6.666130026,-92429,128,-1.10786034,-15361,1.772677514,24579,4726.5625,23808
4.200580025,58243,128,-6.713802423,-93090,128,0.297645962,4127,1.172409197,16256,4746.09375,24448
4.208369161,58351,128,-6.729380695,-93306,128,-0.886230574,-12288,1.790852164,24831,4765.625,25088
4.190482997,58103,128,-6.714379396,-93098,128,-1.098628771,-15233,1.790275191,24823,4785.15625,25728
4.198993349,58221,128,-6.700676286,-92908,128,-1.105768812,-15332,1.795467948,24895,4804.6875,26368
4.187886618,58067,128,-6.702551449,-92934,128,0.018391015,255,1.773615095,24592,4824.21875,27008
4.174976847,57888,128,-6.702479327,-92933,128,-0.807834364,-11201,1.772966,24583,4843.75,27648
4.173822901,57872,128,-6.705508435,-92975,128,0.38657193,5360,1.774480554,24604,4863.28125,28288
4.152763385,57580,128,-6.698945367,-92884,128,-1.167793413,-16192,1.775995109,24625,4882.8125,28928
4.128097788,57238,128,-6.707095111,-92997,128,-0.88514875,-12273,1.183876536,16415,4902.34375,29568
4.106461299,56938,128,-6.71322545,-93082,128,0.002452135,34,1.183948658,16416,4921.875,30208
4.095066082,56780,128,-6.721375194,-93195,128,0.369190618,5119,1.197796011,16608,4941.40625,30848
4.058356173,56271,128,-6.734717695,-93380,128,-1.116154327,-15476,1.187338375,16463,4960.9375,31488
4.065784701,56374,128,-6.716831531,-93132,128,0.368974253,5116,1.185102604,16432,4980.46875,32128
4.112014665,57015,128,-6.734429209,-93376,128,-0.88161479,-12224,1.186184428,16447,5000,32768
4.140719073,57413,128,-6.683222852,-92666,128,-1.180558941,-16369,1.200031781,16639,5019.53125,33408
4.127448693,57229,128,-6.687333785,-92723,128,0.147632974,2047,1.191737794,16524,5039.0625,34048
4.052514321,56190,128,-6.704642976,-92963,128,0.013919474,193,0.581444571,8062,5058.59375,34688
3.958107109,54881,128,-6.735655276,-93393,128,-0.88514875,-12273,0.590748261,8191,5078.125,35328
3.931566349,54513,128,-6.743877142,-93507,128,-0.885942088,-12284,1.199022078,16625,5097.65625,35968
3.866152032,53606,128,-6.780587051,-94016,128,-1.777076933,-24640,0.589017342,8167,5117.1875,36608
3.980464814,55191,128,-6.684376798,-92682,128,-1.144858735,-15874,1.321340361,18321,5136.71875,37248
5.287741457,73317,128,-6.043215518,-83792,128,0.582742761,8080,0.311565436,4320,5156.25,37888
3.921613565,54375,128,-6.888264643,-95509,128,-1.17738559,-16325,0.076376805,1059,5175.78125,38528
3.825980285,53049,128,-6.768975469,-93855,128,0.553894109,7680,1.190583848,16508,5195.3125,39168
3.84256826,53279,128,-6.738972871,-93439,128,-1.117019786,-15488,1.183876536,16415,5214.84375,39808
3.842207651,53274,128,-6.699450219,-92891,128,0.074357399,1031,1.182361982,16394,5234.375,40448
3.822879055,53006,128,-6.722889748,-93216,128,-0.879306898,-12192,1.182145617,16391,5253.90625,41088
3.827639082,53072,128,-6.683511339,-92670,128,0.129241959,1792,1.190295361,16504,5273.4375,41728
3.806507445,52779,128,-6.714090909,-93094,128,0.574665138,7968,1.198949957,16624,5292.96875,42368
3.799511647,52682,128,-6.709907855,-93036,128,-1.097402703,-15216,1.195704483,16579,5312.5,43008
3.810041405,52828,128,-6.639228659,-92056,128,-1.814003207,-25152,1.238112001,17167,5332.03125,43648
3.844876152,53311,128,-6.620044305,-91790,128,-0.88738452,-12304,1.183876536,16415,5351.5625,44288
3.856199247,53468,128,-6.581964085,-91262,128,0.286322866,3970,1.19995966,16638,5371.09375,44928
3.855045301,53452,128,-6.558740921,-90940,128,0.230500726,3196,1.195488119,16576,5390.625,45568
3.861464126,53541,128,-6.539123838,-90668,128,-0.886519061,-12292,1.184453509,16423,5410.15625,46208
3.779750321,52408,128,-6.628987387,-91914,128,0.589666437,8176,0.269879135,3742,5429.6875,46848
3.700055921,51303,128,-6.666706999,-92437,128,-1.109519137,-15384,0.277451906,3847,5449.21875,47488
3.642647105,50507,128,-6.701974476,-92926,128,0.332264344,4607,1.182217739,16392,5468.75,48128
3.622020319,50221,128,-6.705796922,-92979,128,-1.093580257,-15163,1.186184428,16447,5488.28125,48768
3.632117347,50361,128,-6.706878746,-92994,128,0.424507907,5886,1.19952693,16632,5507.8125,49408
3.610697223,50064,128,-6.71942791,-93168,128,0.002019406,28,1.213951256,16832,5527.34375,50048
3.61098571,50068,128,-6.700243557,-92902,128,0.01904011,264,1.209335471,16768,5546.875,50688
3.590575289,49785,128,-6.707095111,-92997,128,-0.884499655,-12264,0.073347696,1017,5566.40625,51328
3.598003816,49888,128,-6.666923364,-92440,128,0.147128123,2040,1.190295361,16504,5585.9375,51968
3.605937196,49998,128,-6.667356094,-92446,128,0.590748261,8191,1.18668928,16454,5605.46875,52608
3.576223084,49586,128,-6.712432112,-93071,128,0.29887203,4144,0.035772328,496,5625,53248
3.595840168,49858,128,-6.675866446,-92564,128,-1.180270455,-16365,1.190800213,16511,5644.53125,53888
3.5742758,49559,128,-6.697142326,-92859,128,-1.77253327,-24577,0.029930476,415,5664.0625,54528
3.557543583,49327,128,-6.696565353,-92851,128,-1.181135914,-16377,1.185030482,16431,5683.59375,55168
3.533238594,48990,128,-6.711061801,-93052,128,-1.781187866,-24697,1.181568644,16383,5703.125,55808
3.523285809,48852,128,-6.695555651,-92837,128,0.006851555,95,0.017309191,240,5722.65625,56448
3.520977917,48820,128,-6.715605463,-93115,128,0.377340362,5232,0.004327298,60,5742.1875,57088
3.550187176,49225,128,-6.704859341,-92966,128,0.017886164,248,1.18625655,16448,5761.71875,57728
3.591152262,49793,128,-6.651777822,-92230,128,-1.180775306,-16372,1.200176024,16641,5781.25,58368
3.577160666,49599,128,-6.638218956,-92042,128,-1.181135914,-16377,1.218494918,16895,5800.78125,59008
3.491263806,48408,128,-6.685963474,-92704,128,0.145397204,2016,1.181496523,16382,5820.3125,59648
3.426210097,47506,128,-6.700171435,-92901,128,0.583391855,8089,0.029569868,410,5839.84375,60288
3.42058461,47428,128,-6.709907855,-93036,128,0.139627473,1936,0.023367408,324,5859.375,60928
3.357622428,46555,128,-6.737818925,-93423,128,-1.126251355,-15616,0.017958286,249,5878.90625,61568
3.901635874,54098,128,-6.325138965,-87701,128,0.25725785,3567,1.246117502,17278,5898.4375,62208
4.120813503,57137,128,-6.414209177,-88936,128,0.084165941,1167,0.581588814,8064,5917.96875,62848
3.339519899,46304,128,-6.866339668,-95205,128,0.223793414,3103,1.125097409,15600,5937.5,63488
3.442653828,47734,128,-6.663605769,-92394,128,0.110490335,1532,0,0,5957.03125,64128
3.425993732,47503,128,-6.677308879,-92584,128,-1.929469935,-26753,0.010313393,143,5976.5625,64768
3.42238765,47453,128,-6.639661388,-92062,128,-1.181640766,-16384,0.03454626,479,5996.09375,65408
3.424262813,47479,128,-6.644926267,-92135,128,0.443115287,6144,0.008077622,112,6015.625,512
3.427868894,47529,128,-6.625741914,-91869,128,-1.181640766,-16384,0.027766827,385,6035.15625,1152
3.440273814,47701,128,-6.603023601,-91554,128,-1.809243179,-25086,5.05E-04,7,6054.6875,1792
3.457150275,47935,128,-6.564294286,-91017,128,-1.77253327,-24577,0.019544961,271,6074.21875,2432
3.48304194,48294,128,-6.550374812,-90824,128,-0.892000305,-12368,0.001081824,15,6093.75,3072
3.492922603,48431,128,-6.521021309,-90417,128,-1.065164335,-14769,0.034834747,483,6113.28125,3712
3.498475969,48508,128,-6.489648401,-89982,128,-1.329345862,-18432,0.009159447,127,6132.8125,4352
3.510592402,48676,128,-6.45950156,-89564,128,0,0,2.88E-04,4,6152.34375,4992
3.480157075,48254,128,-6.479911981,-89847,128,-0.562548704,-7800,1.172337076,16255,6171.875,5632
3.407458473,47246,128,-6.584488342,-91297,128,-1.850857359,-25663,1.122717395,15567,6191.40625,6272
3.373705551,46778,128,-6.594369005,-91434,128,0.588368248,8158,1.181496523,16382,6210.9375,6912
3.301295436,45774,128,-6.654013592,-92261,128,-1.034296278,-14341,1.181568644,16383,6230.46875,7552
3.283914123,45533,128,-6.681059203,-92636,128,0.437850408,6071,1.181352279,16380,6250,8192
3.290693556,45627,128,-6.642546254,-92102,128,-1.029752616,-14278,0.004255176,59,6269.53125,8832
3.288313542,45594,128,-6.666202148,-92430,128,0.414843609,5752,1.17298617,16264,6289.0625,9472
3.310454882,45901,128,-6.641897159,-92093,128,-1.029103521,-14269,0.001081824,15,6308.59375,10112
3.327908317,46143,128,-6.642257767,-92098,128,-1.177169225,-16322,0.004543663,63,6328.125,10752
3.318388262,46011,128,-6.645647484,-92145,128,-1.91908442,-26609,0.018102529,251,6347.65625,11392
3.295669949,45696,128,-6.647883254,-92176,128,0.589666437,8176,0,0,6367.1875,12032
3.301656044,45779,128,-6.646873551,-92162,128,-2.031017188,-28161,0.017958286,249,6386.71875,12672
3.267326148,45303,128,-6.668149432,-92457,128,-1.110168232,-15393,0.017525556,243,6406.25,13312
3.252036363,45091,128,-6.681203447,-92638,128,-2.028637174,-28128,2.16E-04,3,6425.78125,13952
3.258383066,45179,128,-6.691516839,-92781,128,0.434100084,6019,0.004038811,56,6445.3125,14592
3.230832604,44797,128,-6.676804027,-92577,128,0.563053556,7807,0.01817465,252,6464.84375,15232
3.234366564,44846,128,-6.687838636,-92730,128,-2.326499501,-32258,5.05E-04,7,6484.375,15872
3.272302541,45372,128,-6.665553053,-92421,128,0.147344488,2043,0.028560165,396,6503.90625,16512
3.33115379,46188,128,-6.670457324,-92489,128,0.571708151,7927,0.006923676,96,6523.4375,17152
3.262710364,45239,128,-6.679833136,-92619,128,-1.804988003,-25027,0.013775231,191,6542.96875,17792
3.195637249,44309,128,-6.723322478,-93222,128,-1.883312092,-26113,0.00223577,31,6562.5,18432
3.162605543,43851,128,-6.721303072,-93194,128,-1.107932461,-15362,0.019544961,271,6582.03125,19072
3.133179919,43443,128,-6.717480626,-93141,128,-2.247959047,-31169,0.031372909,435,6601.5625,19712
4.093335163,56756,0,-6.192723655,-85865,128,-604.9839169,-8388384,0.018391015,255,6640.625,20992
4.174039265,57875,128,-6.297804868,-87322,128,-1.44E-04,-2,1.112331881,15423,6660.15625,21632
3.051970965,42317,128,-6.826672772,-94655,128,0.12751104,1768,1.181352279,16380,6679.6875,22272
3.137146608,43498,128,-6.734573452,-93378,128,0.313801207,4351,0.065197952,904,6699.21875,22912
3.125462905,43336,128,-6.719644275,-93171,128,-1.913026203,-26525,5.05E-04,7,6718.75,23552
3.107793106,43091,128,-6.702046597,-92927,128,0.443043166,6143,0.013847353,192,6738.28125,24192
3.093945753,42899,128,-6.726135221,-93261,128,0.43395584,6017,1.181063793,16376,6757.8125,24832
3.098561537,42963,128,-6.709763612,-93034,128,-1.949087018,-27025,0.00223577,31,6777.34375,25472
3.092431199,42878,128,-6.710701193,-93047,128,-1.844582778,-25576,7.21E-05,1,6796.875,26112
3.100797308,42994,128,-6.669952472,-92482,128,-1.774769041,-24608,0.036132936,501,6816.40625,26752
3.106711281,43076,128,-6.660288174,-92348,128,0.581444571,8062,0.004471541,62,6835.9375,27392
3.140464203,43544,128,-6.627400711,-91892,128,-1.903866756,-26398,7.21E-05,1,6855.46875,28032
3.152075786,43705,128,-6.622712806,-91827,128,0.55569715,7705,0.018463137,256,6875,28672
3.160297651,43819,128,-6.587878059,-91344,128,0.59067614,8190,0.004327298,60,6894.53125,29312
3.129213229,43388,128,-6.631511644,-91949,128,0.480546413,6663,1.163177629,16128,6914.0625,29952
3.047355181,42253,128,-6.689064704,-92747,128,-1.924565664,-26685,1.114928259,15459,6933.59375,30592
2.950856441,40915,128,-6.771932456,-93896,128,0.368325158,5107,1.144714492,15872,6953.125,31232
2.910684694,40358,128,-6.796670174,-94239,128,0.299737489,4156,0.581588814,8064,6972.65625,31872
2.883639083,39983,128,-6.804603553,-94349,128,-2.067366489,-28665,0.571852395,7929,6992.1875,32512
2.886956678,40029,128,-6.789890741,-94145,128,-2.051211244,-28441,0.590604018,8189,7011.71875,33152
2.868926271,39779,128,-6.807488419,-94389,128,-2.292962944,-31793,0.004255176,59,7031.25,33792
2.875200853,39866,128,-6.795371985,-94221,128,-2.293035065,-31794,0.001081824,15,7050.78125,34432
2.8923658,40104,128,-6.821191528,-94579,128,-2.345395368,-32520,0.590171288,8183,7070.3125,35072
2.871306285,39812,128,-6.80402658,-94341,128,-2.069674381,-28697,0.018391015,255,7089.84375,35712
2.872388109,39827,128,-6.823283055,-94608,128,-2.081430206,-28860,0.002380014,33,7109.375,36352
2.821253874,39118,128,-6.84520803,-94912,128,0.230212239,3192,1.44E-04,2,7128.90625,36992
2.834452133,39301,128,-6.852059585,-95007,128,0.295121705,4092,5.77E-04,8,7148.4375,37632
2.805819846,38904,128,-6.862517221,-95152,128,0.033392314,463,0.581011841,8056,7167.96875,38272
2.78562579,38624,128,-6.855232937,-95051,128,-2.36010818,-32724,0.590315532,8185,7187.5,38912
2.800482845,38830,128,-6.866411789,-95206,128,0.279110703,3870,0.004471541,62,7207.03125,39552
2.799833751,38821,128,-6.859704478,-95113,128,0.226101306,3135,0.590531896,8188,7226.5625,40192
2.839572768,39372,128,-6.867926343,-95227,128,0.29447261,4083,0.003317595,46,7246.09375,40832
2.850607377,39525,128,-6.816647865,-94516,128,-2.358160896,-32697,0.005697609,79,7265.625,41472
2.802574373,38859,128,-6.814989068,-94493,128,-2.298660552,-31872,0.588584612,8161,7285.15625,42112
2.697637403,37404,128,-6.862228735,-95148,128,-2.14403178,-29728,0.590459775,8187,7304.6875,42752
2.654652912,36808,128,-6.905718077,-95751,128,-2.072559246,-28737,0.554975933,7695,7324.21875,43392
2.654364425,36804,128,-6.891798603,-95558,128,-2.142084496,-29701,0.293607151,4071,7343.75,44032
2.63950737,36598,128,-6.926128498,-96034,128,0.004904271,68,0.276947054,3840,7363.28125,44672
3.573193976,49544,128,-6.359108252,-88172,128,0.005120636,71,0.294256245,4080,7382.8125,45312
2.951649779,40926,128,-6.78628466,-94095,128,1.179909847,16360,0.277379784,3846,7402.34375,45952
2.545244401,35291,128,-6.996663451,-97012,128,-2.358737869,-32705,0.212830927,2951,7421.875,46592
2.63683887,36561,128,-6.873768195,-95308,128,-2.143382686,-29719,0.00223577,31,7441.40625,47232
2.623280003,36373,128,-6.865762695,-95197,128,-2.14179601,-29697,0.009159447,127,7460.9375,47872
2.617005422,36286,128,-6.870162114,-95258,128,0.292885934,4061,0.294688975,4086,7480.46875,48512
2.619962409,36327,128,-6.840159516,-94842,128,-2.105374587,-29192,0.014352204,199,7500,49152
2.625155166,36399,128,-6.818018176,-94535,128,-2.10414852,-29175,0.288991367,4007,7519.53125,49792
2.622847274,36367,128,-6.801141715,-94301,128,-2.100109708,-29119,0.004543663,63,7539.0625,50432
2.636045532,36550,128,-6.79472289,-94212,128,0.265551837,3682,0.014280082,198,7558.59375,51072
2.647152263,36704,128,-6.742074101,-93482,128,0.008149744,113,0.019328597,268,7578.125,51712
2.653066236,36786,128,-6.707455719,-93002,128,-2.293828403,-31805,0.018967988,263,7597.65625,52352
2.656816561,36838,128,-6.692093812,-92789,128,-2.216153409,-30728,0.29533807,4095,7617.1875,52992
2.676505765,37111,128,-6.650046903,-92206,128,0.316036977,4382,0.027694705,384,7636.71875,53632
2.64174314,36629,128,-6.701830232,-92924,128,-2.261734278,-31360,0.279038582,3869,7656.25,54272
2.564572998,35559,128,-6.765802117,-93811,128,-2.321883717,-32194,0.293318664,4067,7675.78125,54912
2.501899302,34690,128,-6.807849027,-94394,128,-2.355708761,-32663,0.265912445,3687,7695.3125,55552
2.444274121,33891,128,-6.844270449,-94899,128,-2.222427991,-30815,0.138545649,1921,7714.84375,56192
2.458698447,34091,128,-6.807272054,-94386,128,-2.100470316,-29124,0.001081824,15,7734.375,56832
2.41989701,33553,128,-6.815854527,-94505,128,-2.069962867,-28701,0.134074108,1859,7753.90625,57472
2.425883106,33636,128,-6.818955757,-94548,128,-2.245074182,-31129,0.071616777,993,7773.4375,58112
2.429705552,33689,128,-6.797535634,-94251,128,-2.216153409,-30728,0.004543663,63,7792.96875,58752
2.411314536,33434,128,-6.798833823,-94269,128,0.146190542,2027,0,0,7812.5,59392
2.434681944,33758,128,-6.790034984,-94147,128,0.002091527,29,0.018318894,254,7832.03125,60032
2.403525401,33326,128,-6.800132012,-94287,128,-2.36320941,-32767,0.032382611,449,7851.5625,60672
2.377777979,32969,128,-6.793568944,-94196,128,0.147632974,2047,0.009231568,128,7871.09375,61312
2.37914829,32988,128,-6.786789511,-94102,128,-2.217379477,-30745,0.032526855,451,7890.625,61952
2.35614149,32669,128,-6.789313768,-94137,128,-2.363065167,-32765,7.21E-05,1,7910.15625,62592
2.340491097,32452,128,-6.788808917,-94130,128,0.138473527,1920,2.347126287,32544,7929.6875,63232
2.317556419,32134,128,-6.768398496,-93847,128,0.018967988,263,2.327220717,32268,7949.21875,63872
2.311642446,32052,128,-6.798545337,-94265,128,0.14655115,2032,1.165341278,16158,7968.75,64512
2.345828098,32526,128,-6.756859035,-93687,128,5.77E-04,8,2.340202611,32448,7988.28125,65152
2.361911221,32749,128,-6.77611551,-93954,128,-2.361117883,-32738,2.36320941,32767,8007.8125,256
2.3751816,32933,128,-6.756137819,-93677,128,-2.28971747,-31748,0.033248071,461,8027.34375,896
2.294982349,31821,128,-6.774528834,-93932,128,-2.299814498,-31888,0.00223577,31,8046.875,1536
2.204397584,30565,128,-6.788159822,-94121,128,0.059933074,831,2.216009166,30726,8066.40625,2176
2.171365878,30107,128,-6.809579946,-94418,128,0.001081824,15,1.1734189,16270,8085.9375,2816
2.160619755,29958,128,-6.812536933,-94459,128,0.018967988,263,1.163321872,16130,8105.46875,3456
2.375037357,32931,128,-6.629347995,-91919,128,0.226678279,3143,2.178794405,30210,8125,4096
3.554730839,49288,128,-6.011049272,-83346,128,0.009159447,127,1.190872334,16512,8144.53125,4736
2.095493924,29055,128,-7.018516304,-97315,128,2.88E-04,4,0.147705096,2048,8164.0625,5376
2.095926654,29061,128,-6.81506119,-94494,128,-2.214566733,-30706,1.77253327,24577,8183.59375,6016
2.130689279,29543,128,-6.805180526,-94357,128,-2.361045761,-32737,2.070107111,28703,8203.125,6656
2.125135914,29466,128,-6.775538537,-93946,128,0.036854152,511,2.086334477,28928,8222.65625,7296
2.126361981,29483,128,-6.779360983,-93999,128,5.05E-04,7,1.181496523,16382,8242.1875,7936
2.095638167,29057,128,-6.787005876,-94105,128,0.027622584,383,2.070179232,28704,8261.71875,8576
2.10991825,29255,128,-6.767028185,-93828,128,-2.326643744,-32260,2.072991976,28743,8281.25,9216
2.112514628,29291,128,-6.765513631,-93807,128,0.00223577,31,2.072487125,28736,8300.78125,9856
2.133429901,29581,128,-6.735150425,-93386,128,-2.359386964,-32714,2.100253952,29121,8320.3125,10496
2.136963861,29630,128,-6.688271366,-92736,128,-2.356285734,-32671,2.133862631,29587,8339.84375,11136
2.150739092,29821,128,-6.647162038,-92166,128,0.034834747,483,2.104509128,29180,8359.375,11776
2.166100999,30034,128,-6.647162038,-92166,128,0.147416609,2044,2.085324774,28914,8378.90625,12416
2.130905644,29546,128,-6.645719605,-92146,128,-2.344890516,-32513,2.070395597,28707,8398.4375,13056
2.120015278,29395,128,-6.685891352,-92703,128,-1.774769041,-24608,1.179260752,16351,8417.96875,13696
2.036786918,28241,128,-6.732554046,-93350,128,2.88E-04,4,1.168803116,16206,8437.5,14336
1.950817937,27049,128,-6.819604852,-94557,128,0.258556039,3585,1.03393567,14336,8457.03125,14976
1.769143554,24530,128,-6.979498503,-96774,128,-2.226611045,-30873,0.583824585,8095,8476.5625,15616
1.790347313,24824,128,-6.961828704,-96529,128,-2.319431581,-32160,1.180414698,16367,8496.09375,16256
1.828643898,25355,128,-6.921656957,-95972,128,0.222639468,3087,1.805925585,25040,8515.625,16896
1.844582778,25576,128,-6.893673765,-95584,128,0.221629765,3073,1.772461149,24576,8535.15625,17536
1.865786536,25870,128,-6.875859723,-95337,128,-2.078256855,-28816,1.773542973,24591,8554.6875,18176
1.852299792,25683,128,-6.887399183,-95497,128,0.147705096,2048,1.781404231,24700,8574.21875,18816
1.833908777,25428,128,-6.899804103,-95669,128,0.18463137,2560,1.781404231,24700,8593.75,19456
1.810469247,25103,128,-6.926849714,-96044,128,0.156576056,2171,1.158561845,16064,8613.28125,20096
1.818835356,25219,128,-6.894755589,-95599,128,0.156936664,2176,1.172409197,16256,8632.8125,20736
1.780394528,24686,128,-6.93240308,-96121,128,-2.072342881,-28734,1.17781832,16331,8652.34375,21376
1.747939795,24236,128,-6.925190917,-96021,128,-2.344890516,-32513,1.190511726,16507,8671.875,22016
1.711662616,23733,128,-6.945457094,-96302,128,0.222062495,3079,0.581300328,8060,8691.40625,22656
1.715917792,23792,128,-6.934422485,-96149,128,0.003606081,50,1.184525631,16424,8710.9375,23296
1.730414239,23993,128,-6.918916335,-95934,128,-2.339986246,-32445,1.218062188,16889,8730.46875,23936
1.767773243,24511,128,-6.928508512,-96067,128,-2.215576436,-30720,1.182578347,16397,8750,24576
1.758830161,24387,128,-6.921224227,-95966,128,-2.340779584,-32456,1.237246542,17155,8769.53125,25216
1.702719534,23609,128,-6.931321255,-96106,128,0.166096111,2303,0.581588814,8064,8789.0625,25856
1.627352432,22564,128,-6.981950639,-96808,128,0.106163038,1472,1.185391091,16436,8808.59375,26496
1.591652225,22069,128,-6.944735878,-96292,128,-2.358737869,-32705,1.197291159,16601,8828.125,27136
1.585161279,21979,128,-6.976830003,-96737,128,-2.215648558,-30721,0.587286423,8143,8847.65625,27776
1.551624721,21514,128,-7.012818696,-97236,128,-2.289428984,-31744,1.182434104,16395,8867.1875,28416
2.893447625,40119,128,-6.262753756,-86836,128,-1.772389027,-24575,2.250122696,31199,8886.71875,29056
2.091815721,29004,128,-6.75931117,-93721,128,-1.883889065,-26121,1.060404308,14703,8906.25,29696
1.516934218,21033,128,-6.998538613,-97038,128,0.58137245,8061,1.183660171,16412,8925.78125,30336
1.573910305,21823,128,-6.928292147,-96064,128,-2.347126287,-32544,1.213879134,16831,8945.3125,30976
1.550903505,21504,128,-6.946899527,-96322,128,-2.215864923,-30724,1.203782106,16691,8964.84375,31616
1.587397049,22010,128,-6.934061877,-96144,128,7.21E-05,1,1.21856704,16896,8984.375,32256
1.546215599,21439,128,-6.90586232,-95753,128,-2.359819694,-32720,1.200031781,16639,9003.90625,32896
1.572467872,21803,128,-6.91163205,-95833,128,-2.345395368,-32520,1.202339673,16671,9023.4375,33536
1.563380547,21677,128,-6.888913737,-95518,128,-2.291736876,-31776,1.181712887,16385,9042.96875,34176
1.571602413,21791,128,-6.860569937,-95125,128,0.174245855,2416,1.197796011,16608,9062.5,34816
1.565255709,21703,128,-6.828331569,-94678,128,-2.100758803,-29128,1.198300862,16615,9082.03125,35456
1.591435861,22066,128,-6.789962863,-94146,128,-2.103138817,-29161,1.181857131,16387,9101.5625,36096
1.601028037,22199,128,-6.770778509,-93880,128,-1.887278782,-26168,1.182145617,16391,9121.09375,36736
1.580473373,21914,128,-6.754334778,-93652,128,0.295915043,4103,1.182650469,16398,9140.625,37376
1.559413857,21622,128,-6.793424701,-94194,128,0.475642142,6595,0.586204599,8128,9160.15625,38016
1.495514094,20736,128,-6.835976462,-94784,128,0.110634579,1534,0.544662541,7552,9179.6875,38656
1.413656046,19601,128,-6.916536321,-95901,128,0.021924975,304,0.258483918,3584,9199.21875,39296
1.389206813,19262,128,-6.915742983,-95890,128,-2.069746503,-28698,0.288414393,3999,9218.75,39936
1.365839406,18938,128,-6.903338063,-95718,128,-2.355203909,-32656,1.185318969,16435,9238.28125,40576
1.345068377,18650,128,-6.916536321,-95901,128,0.008293987,115,1.188420199,16478,9257.8125,41216
1.348890823,18703,128,-6.89259194,-95569,128,5.05E-04,7,1.201834822,16664,9277.34375,41856
1.356679959,18811,128,-6.914733281,-95876,128,-2.328158299,-32281,0.293607151,4071,9296.875,42496
1.354372067,18779,128,-6.908602942,-95791,128,-2.086622964,-28932,1.190800213,16511,9316.40625,43136
1.333096186,18484,128,-6.910766591,-95821,128,0.015866758,220,1.188564442,16480,9335.9375,43776
1.346150201,18665,128,-6.933340661,-96134,128,-2.067943462,-28673,1.199599051,16633,9355.46875,44416
1.310377873,18169,128,-6.917978754,-95921,128,-2.362416072,-32756,1.20262816,16675,9375,45056
1.303526318,18074,128,-6.919998159,-95949,128,-2.086118112,-28925,1.193108105,16543,9394.53125,45696
1.29739598,17989,128,-6.92930185,-96078,128,0.03231049,448,1.190728091,16510,9414.0625,46336
1.297323858,17988,128,-6.918844213,-95933,128,0.284087096,3939,1.18625655,16448,9433.59375,46976
1.288813506,17870,128,-6.958006258,-96476,128,-2.231875924,-30946,0.147056001,2039,9453.125,47616
1.261479409,17491,128,-6.957285041,-96466,128,0.130035297,1803,1.183371685,16408,9472.65625,48256
1.28542379,17823,128,-6.920647254,-95958,128,-2.327581325,-32273,1.21416762,16835,9492.1875,48896
1.343337458,18626,128,-6.939110391,-96214,128,-2.229640154,-30915,1.182145617,16391,9511.71875,49536
1.367714568,18964,128,-6.929806701,-96085,128,7.93E-04,11,1.181640766,16384,9531.25,50176
1.348241728,18694,128,-6.904996861,-95741,128,0.071761021,995,1.181640766,16384,9550.78125,50816
1.255853922,17413,128,-6.939903729,-96225,128,-2.214494612,-30705,0.145469325,2017,9570.3125,51456
1.237030177,17152,128,-6.952452892,-96399,128,0.112509741,1560,0.073708305,1022,9589.84375,52096
1.216403391,16866,128,-6.963054772,-96546,128,0.14525296,2014,1.189718388,16496,9609.375,52736
1.175726792,16302,128,-6.973873016,-96696,128,-2.22459164,-30845,1.153873939,15999,9628.90625,53376
2.059721596,28559,128,-6.400722432,-88749,128,-1.995172738,-27664,1.450438076,20111,9648.4375,54016
2.350011152,32584,128,-6.359324617,-88175,128,0.61858721,8577,1.170966765,16236,9667.96875,54656
1.120553746,15537,128,-7.032363657,-97507,128,0.131477729,1823,0.004038811,56,9687.5,55296
1.197651767,16606,128,-6.935648553,-96166,128,-2.134944455,-29602,1.18272259,16399,9707.03125,55936
1.2017627,16663,128,-6.903410185,-95719,128,-2.137252347,-29634,1.200031781,16639,9726.5625,56576
1.217196729,16877,128,-6.903698671,-95723,128,-2.306666053,-31983,1.200031781,16639,9746.09375,57216
1.218639161,16897,128,-6.886605845,-95486,128,-2.100758803,-29128,1.181712887,16385,9765.625,57856
1.241285353,17211,128,-6.870955452,-95269,128,0.069236764,960,1.181640766,16384,9785.15625,58496
1.239049582,17180,128,-6.912353267,-95843,128,0.028199557,391,1.183804415,16414,9804.6875,59136
1.270494613,17616,128,-6.888408886,-95511,128,0.219466116,3043,1.186112307,16446,9824.21875,59776
1.304391778,18086,128,-6.854728085,-95044,128,-2.130472914,-29540,1.182145617,16391,9843.75,60416
1.299920237,18024,128,-6.827826718,-94671,128,-2.298155701,-31865,1.184165023,16419,9863.28125,61056
1.358266635,18833,128,-6.768398496,-93847,128,-2.060370691,-28568,1.190944456,16513,9882.8125,61696
1.371248528,19013,128,-6.796598053,-94238,128,0.475642142,6595,1.189574145,16494,9902.34375,62336
1.361512108,18878,128,-6.790395592,-94152,128,0.004327298,60,0.290650164,4030,9921.875,62976
1.274533424,17672,128,-6.837995867,-94812,128,0.224154022,3108,0.129241959,1792,9941.40625,63616
1.199599051,16633,128,-6.934494607,-96150,128,0.277451906,3847,0.037935977,526,9960.9375,64256
1.173346779,16269,128,-6.951875919,-96391,128,-2.30385331,-31944,1.173491022,16271,9980.46875,64896
1.1397381,15803,128,-6.944014662,-96282,128,-2.359242721,-32712,0.004543663,63,10000,0
1.163177629,16128,128,-6.975099084,-96713,128,0,0,1.163177629,16128,10019.53125,640
1.208686377,16759,128,-6.951154703,-96381,128,0.00223577,31,1.195776605,16580,10039.0625,1280
1.124087706,15586,128,-6.936225526,-96174,128,0,0,1.180631063,16370,10058.59375,1920
1.148248452,15921,128,-6.942355864,-96259,128,-4.727500645,-65549,0.008005501,111,10078.125,2560
1.117236151,15491,128,-6.955554122,-96442,128,-2.217884328,-30752,0.017525556,243,10097.65625,3200
1.126684085,15622,128,-6.983104585,-96824,128,0.014424326,200,1.172409197,16256,10117.1875,3840
1.04367209,14471,128,-6.965723272,-96583,128,-2.224808004,-30848,0.00930369,129,10136.71875,4480
1.015184047,14076,128,-6.988153099,-96894,128,0.138473527,1920,1.162889142,16124,10156.25,5120
0.99051845,13734,128,-7.001711965,-97082,128,-2.358160896,-32697,0.027766827,385,10175.78125,5760
0.986191152,13674,128,-7.017722966,-97304,128,-2.291736876,-31776,1.181568644,16383,10195.3125,6400
0.957270379,13273,128,-7.030416373,-97480,128,0.074357399,1031,1.181352279,16380,10214.84375,7040
0.940682404,13043,128,-7.011953236,-97224,128,0.004543663,63,0.004038811,56,10234.375,7680
0.897481548,12444,128,-7.038349752,-97590,128,-2.362488194,-32757,1.181568644,16383,10253.90625,8320
0.970108029,13451,128,-7.005245925,-97131,128,0.066784628,926,0.017309191,240,10273.4375,8960
0.972415921,13483,128,-7.018372061,-97313,128,-2.328735272,-32289,0.016948583,235,10292.96875,9600
1.026002291,14226,128,-6.971132394,-96658,128,-2.361262126,-32740,0.013919474,193,10312.5,10240
0.924527159,12819,128,-7.011592628,-97219,128,0.133785621,1855,1.145868438,15888,10332.03125,10880
0.874402627,12124,128,-7.044263726,-97672,128,0.004110933,57,1.18048682,16368,10351.5625,11520
0.824999312,11439,128,-7.057389862,-97854,128,-2.330971042,-32320,1.180414698,16367,10371.09375,12160
0.804877377,11160,128,-7.114942922,-98652,128,-4.579939792,-63503,1.161951561,16111,10390.625,12800
0.9776808,13556,128,-6.927354566,-96051,128,0.154628772,2144,0.08279563,1148,10410.15625,13440
2.197113299,30464,128,-6.266431959,-86887,128,0.883345709,12248,2.06787134,28672,10429.6875,14080
0.800045228,11093,128,-7.177760861,-99523,128,0.055605776,771,0.01817465,252,10449.21875,14720
0.771629306,10699,128,-7.08119,-98184,128,-2.354626936,-32648,1.177097103,16321,10468.75,15360
0.801271296,11110,128,-7.060130484,-97892,128,-4.731178848,-65600,1.177097103,16321,10488.28125,16000
0.805093742,11163,128,-7.036763076,-97568,128,4.624438837,64120,0.014424326,200,10507.8125,16640
0.794347619,11014,128,-7.037844901,-97583,128,4.670885166,64764,1.177313468,16324,10527.34375,17280
0.806175566,11178,128,-7.029767278,-97471,128,-2.307819999,-31999,0.034834747,483,10546.875,17920
0.787784551,10923,128,-7.053783781,-97804,128,4.597176861,63742,0,0,10566.40625,18560
0.829326609,11499,128,-7.023925426,-97390,128,4.651484448,64495,0.002452135,34,10585.9375,19200
0.82535992,11444,128,-6.992552518,-96955,128,0.078973184,1095,0.017741921,246,10605.46875,19840
0.867190464,12024,128,-6.956924433,-96461,128,0.002019406,28,0.005192757,72,10625,20480
0.866036518,12008,128,-6.950072879,-96366,128,0.138473527,1920,0.016732218,232,10644.53125,21120
0.889980899,12340,128,-6.914228429,-95869,128,0.225524333,3127,0.008943082,124,10664.0625,21760
0.864017113,11980,128,-6.917257538,-95911,128,5.77E-04,8,1.177024982,16320,10683.59375,22400
0.837548475,11613,128,-6.962622042,-96540,128,-2.217595842,-30748,1.168875238,16207,10703.125,23040
0.743069141,10303,128,-7.033950333,-97529,128,-4.728798834,-65567,1.145796316,15887,10722.65625,23680
0.709099854,9832,128,-7.088907014,-98291,128,4.724327293,65505,1.147022384,15904,10742.1875,24320
0.670009931,9290,128,-7.110615624,-98592,128,-2.360757275,-32733,1.146661776,15899,10761.71875,24960
0.661788066,9176,128,-7.092440974,-98340,128,0.073708305,1022,8.65E-04,12,10781.25,25600
0.656378943,9101,128,-7.116241111,-98670,128,-7.092657339,-98343,1.167721292,16191,10800.78125,26240
0.653277713,9058,128,-7.079963932,-98167,128,4.589171361,63631,0.008798839,122,10820.3125,26880
0.666692336,9244,128,-7.101239813,-98462,128,2.362416072,32756,1.44E-04,2,10839.84375,27520
0.652989227,9054,128,-7.092440974,-98340,128,-4.581454346,-63524,0.009159447,127,10859.375,28160
0.638853388,8858,128,-7.138887303,-98984,128,-4.717908468,-65416,1.145796316,15887,10878.90625,28800
0.642675834,8911,128,-7.100879204,-98457,128,-7.091070663,-98321,0.028199557,391,10898.4375,29440
0.652268011,9044,128,-7.099220407,-98434,128,2.36320941,32767,0.008077622,112,10917.96875,30080
0.597527694,8285,128,-7.146027344,-99083,128,2.324047366,32224,0.008077622,112,10937.5,30720
0.605533195,8396,128,-7.178121469,-99528,128,2.348857206,32568,1.181352279,16380,10957.03125,31360
0.583536098,8091,128,-7.164274116,-99336,128,2.333423177,32354,0.027694705,384,10976.5625,32000
0.577189395,8003,128,-7.17018809,-99418,128,-4.708749021,-65289,2.16E-04,3,10996.09375,32640
0.608345939,8435,128,-7.174082658,-99472,128,-4.689925276,-65028,0.017525556,243,11015.625,33280
0.647652226,8980,128,-7.182232402,-99585,128,2.289356862,31743,0,0,11035.15625,33920
0.684145771,9486,128,-7.14364733,-99050,128,-7.108307732,-98560,0.033392314,463,11054.6875,34560
0.552740163,7664,128,-7.202498579,-99866,128,-7.111264719,-98601,1.180558941,16369,11074.21875,35200
0.505716861,7012,128,-7.219302919,-100099,128,-7.21937504,-100100,0.581516693,8063,11093.75,35840
0.503192604,6977,128,-7.223846581,-100162,128,0.00223577,31,2.88E-04,4,11113.28125,36480
0.463309343,6424,128,-7.245555192,-100463,128,2.095638167,29057,0.581588814,8064,11132.8125,37120
0.788938497,10939,128,-6.919853916,-95947,128,-7.232429055,-100281,0.0230068,319,11152.34375,37760
1.901414621,26364,128,-6.364805861,-88251,128,0.062817939,871,1.84602521,25596,11171.875,38400
0.642170983,8904,128,-7.173000833,-99457,128,0.073780426,1023,0.590820383,8192,11191.40625,39040
0.489128886,6782,128,-7.218437459,-100087,128,-4.693314993,-65075,0.581516693,8063,11210.9375,39680
0.488479792,6773,128,-7.207042242,-99929,128,-7.153960723,-99193,0.009015204,125,11230.46875,40320
0.478959737,6641,128,-7.198459768,-99810,128,2.219903734,30780,0.59067614,8190,11250,40960
0.492807089,6833,128,-7.171414157,-99435,128,0.073780426,1023,0.004038811,56,11269.53125,41600
0.472324547,6549,128,-7.175164482,-99487,128,-7.163769265,-99329,0.586132477,8127,11289.0625,42240
0.490499197,6801,128,-7.170765063,-99426,128,2.356213612,32670,0.587935518,8152,11308.59375,42880
0.493816792,6847,128,-7.144440668,-99061,128,-7.107225908,-98545,0.013775231,191,11328.125,43520
0.513289632,7117,128,-7.114149584,-98641,128,-7.089916717,-98305,0.018391015,255,11347.65625,44160
0.518987241,7196,128,-7.097273123,-98407,128,2.354049963,32640,4.33E-04,6,11367.1875,44800
0.547980135,7598,128,-7.04887951,-97736,128,0.017164948,238,0.029569868,410,11386.71875,45440
0.573583314,7953,128,-7.024430278,-97397,128,-4.952520126,-68669,7.21E-05,1,11406.25,46080
0.562115975,7794,128,-7.02010298,-97337,128,0,0,0.59067614,8190,11425.78125,46720
0.506221712,7019,128,-7.061645038,-97913,128,-4.9894464,-69181,0.590748261,8191,11445.3125,47360
0.456241424,6326,128,-7.121794477,-98747,128,-7.107802881,-98553,0.518626633,7191,11464.84375,48000
0.38476889,5335,128,-7.172568103,-99451,128,-7.091791879,-98331,0.587863396,8151,11484.375,48640
0.367171212,5091,128,-7.183314226,-99600,128,-7.118116274,-98696,0.589882802,8179,11503.90625,49280
0.377051875,5228,128,-7.172568103,-99451,128,0.018391015,255,0.561827488,7790,11523.4375,49920
0.380946443,5282,128,-7.152734655,-99176,128,2.298660552,31872,0.588656734,8162,11542.96875,50560
0.391115593,5423,128,-7.138021843,-98972,128,-7.112274422,-98615,0.009159447,127,11562.5,51200
0.382533119,5304,128,-7.171197792,-99432,128,0.073708305,1022,0.583319734,8088,11582.03125,51840
0.358011765,4964,128,-7.175164482,-99487,128,2.278971348,31599,0.59024341,8184,11601.5625,52480
0.361473603,5012,128,-7.184540294,-99617,128,2.328591028,32287,0.581877301,8068,11621.09375,53120
0.359309955,4982,128,-7.199613714,-99826,128,2.34503476,32515,0.572357246,7936,11640.625,53760
0.329235235,4565,128,-7.189949416,-99692,128,-7.22687569,-100204,3.61E-04,5,11660.15625,54400
0.33918802,4703,128,-7.194637322,-99757,128,-7.108235611,-98559,0.587286423,8143,11679.6875,55040
0.316109099,4383,128,-7.221466568,-100129,128,-7.237549691,-100352,0.572285124,7935,11699.21875,55680
0.322888532,4477,128,-7.198243403,-99807,128,-7.126698747,-98815,0.581516693,8063,11718.75,56320
0.375825808,5211,128,-7.179419658,-99546,128,2.356862707,32679,0.017309191,240,11738.28125,56960
0.427464894,5927,128,-7.173072955,-99458,128,-7.089916717,-98305,0.572429368,7937,11757.8125,57600
0.448812896,6223,128,-7.143791573,-99052,128,-7.163192292,-99321,0.004832149,67,11777.34375,58240
0.336880128,4671,128,-7.201416755,-99851,128,-7.089916717,-98305,0.558437772,7743,11796.875,58880
0.289424096,4013,128,-7.233366636,-100294,128,-7.090421568,-98312,0.288558637,4001,11816.40625,59520
0.265984567,3688,128,-7.235674529,-100326,128,2.291664754,31775,0.258483918,3584,11835.9375,60160
0.248459011,3445,128,-7.282192979,-100971,128,2.174322864,30148,0.257329971,3568,11855.46875,60800
1.104037893,15308,128,-6.634973482,-91997,128,-2.358737869,-32705,0.221485522,3071,11875,61440
1.396707463,19366,128,-6.413560082,-88927,128,0.016155245,224,0.294400489,4082,11894.53125,62080
0.224730995,3116,128,-7.316883483,-101452,128,2.307603634,31996,0.295121705,4092,11914.0625,62720
0.338827412,4698,128,-7.199469471,-99824,128,2.273201617,31519,0,0,11933.59375,63360
0.336303155,4663,128,-7.174659631,-99480,128,-7.092152487,-98336,0.004543663,63,11953.125,64000
0.35289113,4893,128,-7.168529292,-99395,128,2.289212619,31741,0,0,11972.65625,64640
0.35909359,4979,128,-7.170404455,-99421,128,-7.094820988,-98373,0.589738558,8177,11992.1875,65280
0.363925739,5046,128,-7.152085561,-99167,128,-4.717259373,-65407,0.590748261,8191,12011.71875,384
0.382965849,5310,128,-7.147686141,-99106,128,-7.089916717,-98305,0.586132477,8127,12031.25,1024
0.405539919,5623,128,-7.117250814,-98684,128,-4.680477343,-64897,0.00223577,31,12050.78125,1664
0.427969745,5934,128,-7.09402765,-98362,128,2.36097364,32736,0.003317595,46,12070.3125,2304
0.460640843,6387,128,-7.070876607,-98041,128,-4.800199246,-66557,0.018391015,255,12089.84375,2944
0.469439682,6509,128,-7.019165399,-97324,128,4.4669252,61936,0.003173352,44,12109.375,3584
0.491581022,6816,128,-6.993562221,-96969,128,0.00396669,55,0,0,12128.90625,4224
0.471747574,6541,128,-7.004524708,-97121,128,-5.019737484,-69601,0.582526396,8077,12148.4375,4864
0.399481702,5539,128,-7.062222011,-97921,128,-4.994350671,-69249,0.551802582,7651,12167.96875,5504
0.351088089,4868,128,-7.118332639,-98699,128,-7.094460379,-98368,0.590459775,8187,12187.5,6144
0.313729085,4350,128,-7.153960723,-99193,128,-4.652638394,-64511,0.558437772,7743,12207.03125,6784
0.29223684,4052,128,-7.158504386,-99256,128,2.289428984,31744,0.292813813,4060,12226.5625,7424
0.325412789,4512,128,-7.149128574,-99126,128,2.359386964,32714,0.002307892,32,12246.09375,8064
0.298078692,4133,128,-7.145883101,-99081,128,-7.145883101,-99081,0.004399419,61,12265.625,8704
0.328802506,4559,128,-7.147325533,-99101,128,-7.090998541,-98320,0.587286423,8143,12285.15625,9344
0.326206127,4523,128,-7.132179991,-98891,128,-4.648383218,-64452,0.012621285,175,12304.6875,9984
0.30860845,4279,128,-7.15028252,-99142,128,-4.708172048,-65281,0.017525556,243,12324.21875,10624
0.320075789,4438,128,-7.165211697,-99349,128,-7.165932914,-99359,0.588440369,8159,12343.75,11264
0.297068989,4119,128,-7.168817779,-99399,128,2.363137288,32766,0.59024341,8184,12363.28125,11904
0.285457407,3958,128,-7.187785767,-99662,128,-7.095470082,-98382,0.285529528,3959,12382.8125,12544
0.278389487,3860,128,-7.180717847,-99564,128,2.216730382,30736,0.287621056,3988,12402.34375,13184
0.280985866,3896,128,-7.192545795,-99728,128,2.326355258,32256,0.295265948,4094,12421.875,13824
0.295987164,4104,128,-7.207186485,-99931,128,2.225312856,30855,0.553894109,7680,12441.40625,14464
0.366522117,5082,128,-7.174443266,-99477,128,-7.091070663,-98321,2.16E-04,3,12460.9375,15104
0.380513713,5276,128,-7.160235305,-99280,128,2.363137288,32766,0,0,12480.46875,15744
0.278317365,3859,128,-7.208989526,-99956,128,2.344818395,32512,0.59024341,8184,12500,16384
0.223937657,3105,128,-7.202642823,-99868,128,2.307603634,31996,0.279254947,3872,12519.53125,17024
0.21030667,2916,128,-7.208989526,-99956,128,-7.09359492,-98356,0.293607151,4071,12539.0625,17664
0.194944763,2703,128,-7.23264542,-100284,128,-7.118260517,-98698,0.286250745,3969,12558.59375,18304
0.221990373,3078,128,-7.171702644,-99439,128,-7.204013134,-99887,0.074357399,1031,12578.125,18944
1.561072655,21645,128,-6.393366026,-88647,128,-2.216153409,-30728,1.200031781,16639,12597.65625,19584
0.34892444,4838,128,-7.28442875,-101002,128,-4.690285884,-65033,0.007140041,99,12617.1875,20224
0.206195737,2859,128,-7.220528987,-100116,128,-7.160523791,-99284,0.030218962,419,12636.71875,20864
0.249829322,3464,128,-7.193122768,-99736,128,2.344818395,32512,0.009808542,136,12656.25,21504
0.243410497,3375,128,-7.168385049,-99393,128,2.220047977,30782,0.010097028,140,12675.78125,22144
0.275648865,3822,128,-7.151292223,-99156,128,-7.160523791,-99284,0.009159447,127,12695.3125,22784
0.262089999,3634,128,-7.153023142,-99180,128,2.28971747,31748,0.295265948,4094,12714.84375,23424
0.285673772,3961,128,-7.14718129,-99099,128,-7.124462977,-98784,0.29490534,4089,12734.375,24064
0.291515624,4042,128,-7.135569708,-98938,128,2.322172203,32198,0.29093865,4034,12753.90625,24704
0.290866529,4033,128,-7.134415762,-98922,128,-7.092873704,-98346,0.29490534,4089,12773.4375,25344
0.3241146,4494,128,-7.066837796,-97985,128,4.140286343,57407,0.017164948,238,12792.96875,25984
0.33565406,4654,128,-7.044407969,-97674,128,0.039162044,543,0.576828787,7998,12812.5,26624
0.343010466,4756,128,-7.017506602,-97301,128,0.07349194,1019,0.58317549,8086,12832.03125,27264
0.336591641,4667,128,-7.029623035,-97469,128,-5.02175689,-69629,0.573150584,7947,12851.5625,27904
0.308752693,4281,128,-7.077511797,-98133,128,-4.874051794,-67581,0.558005042,7737,12871.09375,28544
0.249468714,3459,128,-7.137733357,-98968,128,-4.717403617,-65409,0.286394988,3971,12890.625,29184
0.202012682,2801,128,-7.17018809,-99418,128,-7.165572305,-99354,0.00353396,49,12910.15625,29824
0.181241653,2513,128,-7.199397349,-99823,128,2.327581325,32273,0.294256245,4080,12929.6875,30464
0.203743601,2825,128,-7.20740285,-99934,128,-7.209854985,-99968,0.287260447,3983,12949.21875,31104
0.212326075,2944,128,-7.176246306,-99502,128,2.362127586,32752,0.013847353,192,12968.75,31744
0.250262052,3470,128,-7.157783169,-99246,128,-7.122443571,-98756,0.001081824,15,12988.28125,32384
0.243771105,3380,128,-7.178986928,-99540,128,2.347991746,32556,0,0,13007.8125,33024
0.246583849,3419,128,-7.158288021,-99253,128,-7.12107326,-98737,0.009159447,127,13027.34375,33664
0.235765604,3269,128,-7.186343334,-99642,128,2.287265335,31714,0.295121705,4092,13046.875,34304
0.236342577,3277,128,-7.178337834,-99531,128,-7.107153786,-98544,5.05E-04,7,13066.40625,34944
0.231726793,3213,128,-7.188218497,-99668,128,-7.117539301,-98688,7.21E-05,1,13085.9375,35584
0.228697685,3171,128,-7.189372443,-99684,128,-7.097056758,-98404,7.21E-05,1,13105.46875,36224
0.291659867,4044,128,-7.187713645,-99661,128,0.012909772,179,0.004615784,64,13125,36864
0.332913438,4616,128,-7.159225602,-99266,128,2.326571623,32259,0.001009703,14,13144.53125,37504
0.360391779,4997,128,-7.146027344,-99083,128,-7.145306128,-99073,0.016227366,225,13164.0625,38144
0.265479716,3681,128,-7.173649928,-99466,128,-7.103836191,-98498,0.26302758,3647,13183.59375,38784
0.213191535,2956,128,-7.186415456,-99643,128,2.342510503,32480,0.293390786,4068,13203.125,39424
0.161263962,2236,128,-7.216922905,-100066,128,-7.23531392,-100321,0.29533807,4095,13222.65625,40064
0.165735503,2298,128,-7.21317258,-100014,128,-7.23531392,-100321,0.29533807,4095,13242.1875,40704
0.126717702,1757,128,-7.261782558,-100688,128,0.018391015,255,0,0,13261.71875,41344
1.558909006,21615,0,-6.543162649,-90724,128,-294.2285507,-4079616,2.355708761,32663,13281.25,41984
0.466122087,6463,128,-7.338952701,-101758,128,4.25481549,58995,0.017309191,240,13300.78125,42624
0.143738406,1993,128,-7.439634495,-103154,128,-7.496177852,-103938,0.069453129,963,13320.3125,43264
0.180304072,2500,128,-7.468843754,-103559,128,-7.402563978,-102640,0.290866529,4033,13339.84375,43904
0.184487126,2558,128,-7.540460532,-104552,128,1.95716464,27137,0.294112002,4078,13359.375,44544
0.191627168,2657,128,-7.530796234,-104418,128,1.920166245,26624,0.290650164,4030,13378.90625,45184
0.208359386,2889,128,-7.497764528,-103960,128,1.938268773,26875,0.004615784,64,13398.4375,45824
0.193574452,2684,128,-7.48326808,-103759,128,2.032099012,28176,0.009231568,128,13417.96875,46464
0.221269157,3068,128,-7.450236374,-103301,128,2.012409808,27903,0.002019406,28,13437.5,47104
0.235404996,3264,128,-7.387274192,-102428,128,-7.403501559,-102653,0.017958286,249,13457.03125,47744
0.258411796,3583,128,-7.345010918,-101842,128,-7.378186867,-102302,0.00973642,135,13476.5625,48384
0.252569944,3502,128,-7.303685224,-101269,128,-7.375590488,-102266,0.001081824,15,13496.09375,49024
0.263532432,3654,128,-7.241588502,-100408,128,2.214999463,30712,4.33E-04,6,13515.625,49664
0.252137214,3496,128,-7.233871488,-100301,128,2.216441896,30732,0.293679272,4072,13535.15625,50304
0.192564749,2670,128,-7.288972412,-101065,128,-7.381215975,-102344,0.267643364,3711,13554.6875,50944
0.141358392,1960,128,-7.325105348,-101566,128,-7.089988838,-98306,0.275720987,3823,13574.21875,51584
0.101691497,1410,128,-7.352006716,-101939,128,-7.126770869,-98816,0.146479028,2031,13593.75,52224
0.084959279,1178,128,-7.374436542,-102250,128,2.086262356,28927,0.140637176,1950,13613.28125,52864
0.06022156,835,128,-7.359507365,-102043,128,-7.108956827,-98569,2.16E-04,3,13632.8125,53504
0.054307586,753,128,-7.341981809,-101800,128,2.298083579,31864,0.008510352,118,13652.34375,54144
0.055461533,769,128,-7.355324311,-101985,128,-7.200479174,-99838,0.065125831,903,13671.875,54784
0.064116128,889,128,-7.363401933,-102097,128,2.252214223,31228,0.069669493,966,13691.40625,55424
0.041253572,572,128,-7.410497357,-102750,128,-7.1635529,-99326,0.050845748,705,13710.9375,56064
0.033464436,464,128,-7.417565276,-102848,128,2.058207042,28538,0.055966384,776,13730.46875,56704
0.013991596,194,128,-7.434369616,-103081,128,-7.537647788,-104513,0.032094125,445,13750,57344
-0.001226068,-17,128,-7.439706616,-103155,128,1.996326685,27680,0.006923676,96,13769.53125,57984
-0.016876461,-234,128,-7.478075323,-103687,128,1.930479637,26767,1.166639467,16176,13789.0625,58624
0.04031599,559,128,-7.447712117,-103266,128,1.938196652,26874,0.018463137,256,13808.59375,59264
0.046590572,646,128,-7.428239277,-102996,128,1.952476734,27072,0.008943082,124,13828.125,59904
0.059572465,826,128,-7.37522988,-102261,128,-7.390159057,-102468,7.21E-05,1,13847.65625,60544
-0.031084422,-431,128,-7.40357368,-102654,128,2.068376192,28679,0.002019406,28,13867.1875,61184
-0.106379402,-1475,128,-7.39556818,-102543,128,-7.3876348,-102433,2.233967451,30975,13886.71875,61824
-0.102124226,-1416,128,-7.368378326,-102166,128,-7.38539903,-102402,2.250699669,31207,13906.25,62464
-0.123832837,-1717,128,-7.403790045,-102657,128,-7.403790045,-102657,1.181568644,16383,13925.78125,63104
0.212326075,2944,128,-7.073833594,-98082,128,-7.346309107,-101860,2.289068376,31739,13945.3125,63744
1.263859423,17524,128,-6.592565965,-91409,128,-2.321883717,-32194,0.294328367,4081,13964.84375,64384
-0.178933761,-2481,128,-7.553730911,-104736,128,-7.236251502,-100334,0.140709298,1951,13984.375,65024
-0.139122622,-1929,128,-7.314719834,-101422,128,-7.392250585,-102497,2.070107111,28703,14003.90625,128
-0.110418214,-1531,128,-7.299213684,-101207,128,2.293972646,31807,1.181352279,16380,14023.4375,768
-0.114312782,-1585,128,-7.265965613,-100746,128,2.326787988,32262,2.229712275,30916,14042.96875,1408
-0.110490335,-1532,128,-7.246637016,-100478,128,2.354049963,32640,1.172841927,16262,14062.5,2048
-0.092387806,-1281,128,-7.230842379,-100259,128,-7.094460379,-98368,1.180558941,16369,14082.03125,2688
-0.078035602,-1082,128,-7.204517985,-99894,128,2.335514705,32383,2.226538924,30872,14101.5625,3328
-0.0796944,-1105,128,-7.20430162,-99891,128,2.233101992,30963,1.173563143,16272,14121.09375,3968
-0.067145236,-931,128,-7.178554199,-99534,128,2.252358467,31230,2.290438687,31758,14140.625,4608
-0.016011002,-222,128,-7.097561609,-98411,128,2.362848802,32762,2.362127586,32752,14160.15625,5248
-0.030291084,-420,128,-7.062222011,-97921,128,4.137978451,57375,2.344241422,32504,14179.6875,5888
-0.029353503,-407,128,-7.044840699,-97680,128,4.435840778,61505,2.335442583,32382,14199.21875,6528
-0.044138437,-612,128,-7.068135985,-98003,128,4.209523107,58367,1.164331575,16144,14218.75,7168
-0.088276874,-1224,128,-7.119991436,-98722,128,2.363137288,32766,1.1734189,16270,14238.28125,7808
-0.157297272,-2181,128,-7.166942616,-99373,128,-7.098787677,-98428,1.181280158,16379,14257.8125,8448
-0.164365192,-2279,128,-7.198820376,-99815,128,2.328591028,32287,1.159715791,16080,14277.34375,9088
-0.18463137,-2560,128,-7.185766361,-99634,128,2.288924132,31737,1.163321872,16130,14296.875,9728
-0.190689586,-2644,128,-7.199613714,-99826,128,-7.124751464,-98788,1.151854533,15971,14316.40625,10368
-0.182034991,-2524,128,-7.191536092,-99714,128,-7.232789663,-100286,1.181280158,16379,14335.9375,11008
-0.164365192,-2279,128,-7.203003431,-99873,128,2.275293145,31548,1.16764917,16190,14355.46875,11648
-0.161263962,-2236,128,-7.179347536,-99545,128,2.35657422,32675,1.181496523,16382,14375,12288
-0.165086408,-2289,128,-7.169827481,-99413,128,2.346621435,32537,1.172409197,16256,14394.53125,12928
-0.179150126,-2484,128,-7.171702644,-99439,128,-7.099004042,-98431,1.145796316,15887,14414.0625,13568
-0.208215142,-2887,128,-7.182520888,-99589,128,-7.094244015,-98365,1.180703185,16371,14433.59375,14208
-0.208359386,-2889,128,-7.16045167,-99283,128,-7.166005035,-99360,1.179837725,16359,14453.125,14848
-0.223865536,-3104,128,-7.180212996,-99557,128,-7.163769265,-99329,1.181568644,16383,14472.65625,15488
-0.173236152,-2402,128,-7.184468172,-99616,128,2.36320941,32767,1.181352279,16380,14492.1875,16128
-0.142368095,-1974,128,-7.187713645,-99661,128,2.334072272,32363,1.181352279,16380,14511.71875,16768
-0.148065704,-2053,128,-7.132756964,-98899,128,-7.162903805,-99317,2.218100693,30755,14531.25,17408
-0.233674077,-3240,128,-7.175308725,-99489,128,2.28704897,31711,1.163754602,16136,14550.78125,18048
-0.347049278,-4812,128,-7.20826831,-99946,128,-7.094460379,-98368,1.172481319,16257,14570.3125,18688
-0.33298556,-4617,128,-7.21627381,-100057,128,-7.235890893,-100329,1.167721292,16191,14589.84375,19328
-0.383398579,-5316,128,-7.310320414,-101361,128,-7.237549691,-100352,1.116947665,15487,14609.375,19968
-0.156431813,-2169,128,-7.077367553,-98131,128,-7.239857583,-100384,1.817969897,25207,14628.90625,20608
0.79701612,11051,128,-6.713802423,-93090,128,-2.330466191,-32313,0.110850943,1537,14648.4375,21248
-0.40561204,-5624,128,-7.478580174,-103694,128,2.347198409,32545,0.035772328,496,14667.96875,21888
-0.412752081,-5723,128,-7.301305211,-101236,128,-7.311113752,-101372,1.776427838,24631,14687.5,22528
-0.373301551,-5176,128,-7.289116655,-101067,128,2.164658566,30014,1.773470852,24590,14707.03125,23168
-0.408352662,-5662,128,-7.275269303,-100875,128,2.215504314,30719,1.78977034,24816,14726.5625,23808
-0.405395675,-5621,128,-7.262864383,-100703,128,2.196969056,30462,1.172409197,16256,14746.09375,24448
-0.413329055,-5731,128,-7.215913202,-100052,128,2.214999463,30712,1.790347313,24824,14765.625,25088
-0.417295744,-5786,128,-7.217932608,-100080,128,2.348712963,32566,1.179332874,16352,14785.15625,25728
-0.423930934,-5878,128,-7.191319727,-99711,128,2.223654058,30832,1.788616394,24800,14804.6875,26368
-0.418161204,-5798,128,-7.154681939,-99203,128,2.293972646,31807,1.774192068,24600,14824.21875,27008
-0.395587134,-5485,128,-7.118332639,-98699,128,2.358088774,32696,1.790924286,24832,14843.75,27648
-0.381667659,-5292,128,-7.096119177,-98391,128,2.354915423,32652,1.808521963,25076,14863.28125,28288
-0.36089663,-5004,128,-7.048302537,-97728,128,-5.317167081,-73725,1.772677514,24579,14882.8125,28928
-0.391404079,-5427,128,-7.066188701,-97976,128,4.163725872,57732,1.177601955,16328,14902.34375,29568
-0.474343952,-6577,128,-7.128429667,-98839,128,-7.089916717,-98305,1.17695286,16319,14921.875,30208
-0.547114676,-7586,128,-7.174371144,-99476,128,-7.163625021,-99327,1.179404995,16353,14941.40625,30848
-0.589522194,-8174,128,-7.186054848,-99638,128,-7.200911903,-99844,1.180414698,16367,14960.9375,31488
-0.622481778,-8631,128,-7.204157377,-99889,128,2.36320941,32767,1.183804415,16414,14980.46875,32128
-0.640656428,-8883,128,-7.213965918,-100025,128,-7.158576507,-99257,1.182578347,16397,15000,32768
-0.647075253,-8972,128,-7.20343616,-99879,128,2.314166703,32087,1.196353578,16588,15019.53125,33408
-0.665105661,-9222,128,-7.169106265,-99403,128,-7.09049369,-98313,1.200031781,16639,15039.0625,34048
-0.657821376,-9121,128,-7.179131172,-99542,128,2.31005577,32030,1.181640766,16384,15058.59375,34688
-0.68811246,-9541,128,-7.196440363,-99782,128,-7.237333326,-100349,0.57343907,7951,15078.125,35328
-0.698425853,-9684,128,-7.185549997,-99631,128,2.216081287,30727,0.58981068,8178,15097.65625,35968
-0.718764152,-9966,128,-7.168312927,-99392,128,2.340202611,32448,1.183804415,16414,15117.1875,36608
-0.726769653,-10077,128,-7.226659325,-100201,128,-7.226082352,-100193,0.570121475,7905,15136.71875,37248
-0.754824967,-10466,128,-7.203796769,-99884,128,-7.1635529,-99326,0.585843991,8123,15156.25,37888
-0.743862479,-10314,128,-7.205094958,-99902,128,2.358665747,32704,0.586060355,8126,15175.78125,38528
-0.701599205,-9728,128,-7.190310024,-99697,128,2.244352966,31119,0.586204599,8128,15195.3125,39168
-0.668567499,-9270,128,-7.174226901,-99474,128,2.289356862,31743,0.586781572,8136,15214.84375,39808
-0.677726946,-9397,128,-7.139608519,-98994,128,2.326355258,32256,1.181929252,16388,15234.375,40448
-0.786269997,-10902,128,-7.190382146,-99698,128,2.342510503,32480,0.571347543,7922,15253.90625,41088
-0.827379325,-11472,128,-7.20033493,-99836,128,-7.235241799,-100320,0.560745664,7775,15273.4375,41728
-0.855651004,-11864,128,-7.221971419,-100136,128,2.285029565,31683,0.570049354,7904,15292.96875,42368
-0.869858965,-12061,128,-7.22420719,-100167,128,-7.227380541,-100211,0.534493391,7411,15312.5,43008
-0.488119184,-6768,128,-6.872253641,-95287,128,-7.164346238,-99337,1.185895942,16443,15332.03125,43648
0.543003743,7529,128,-6.398270297,-88715,128,4.717259373,65407,0,0,15351.5625,44288
-0.953592176,-13222,128,-7.364339514,-102110,128,-7.101384056,-98464,0.221629765,3073,15371.09375,44928
-0.886519061,-12292,128,-7.169827481,-99413,128,-7.349482459,-101904,1.190655969,16509,15390.625,45568
-0.886374818,-12290,128,-7.156701345,-99231,128,-7.094460379,-98368,0.590748261,8191,15410.15625,46208
-0.877864465,-12172,128,-7.122299328,-98754,128,2.323326149,32214,1.195488119,16576,15429.6875,46848
-0.892577278,-12376,128,-7.121361747,-98741,128,2.333351056,32353,0.288486515,4000,15449.21875,47488
-0.888971196,-12326,128,-7.092152487,-98336,128,-7.099725258,-98441,1.182289861,16393,15468.75,48128
-0.860122545,-11926,128,-7.110255016,-98587,128,-7.09049369,-98313,0.579497287,8035,15488.28125,48768
-0.875340208,-12137,128,-7.073977837,-98084,128,2.360324545,32727,0.294256245,4080,15507.8125,49408
-0.8493043,-11776,128,-7.067991742,-98001,128,4.138555424,57383,0.589666437,8176,15527.34375,50048
-0.822691419,-11407,128,-7.025151494,-97407,128,-5.243458777,-72703,0.58670945,8135,15546.875,50688
-0.799107647,-11080,128,-6.979210017,-96770,128,4.142738479,57441,1.181640766,16384,15566.40625,51328
-0.805742837,-11172,128,-6.996230721,-97006,128,-5.206532503,-72191,0.581805179,8067,15585.9375,51968
-0.834591488,-11572,128,-6.976397273,-96731,128,-5.778745506,-80125,0.589017342,8167,15605.46875,52608
-0.871734127,-12087,128,-6.996447086,-97009,128,-5.800958967,-80433,0.588584612,8161,15625,53248
-0.967295285,-13412,128,-7.082343946,-98200,128,-5.275841388,-73152,0.257546336,3571,15644.53125,53888
-0.989869355,-13725,128,-7.094388258,-98367,128,-7.092080366,-98335,0.266633662,3697,15664.0625,54528
-1.014823439,-14071,128,-7.11927022,-98712,128,-7.089916717,-98305,0.29490534,4089,15683.59375,55168
-1.022612574,-14179,128,-7.090421568,-98312,128,-7.126698747,-98815,1.189934753,16499,15703.125,55808
-1.033430819,-14329,128,-7.101095569,-98460,128,-5.904741991,-81872,0.279182825,3871,15722.65625,56448
-1.040426617,-14426,128,-7.127924815,-98832,128,-7.094388258,-98367,0.143305676,1987,15742.1875,57088
-1.017780425,-14112,128,-7.142998236,-99041,128,2.310127891,32031,0.275793108,3824,15761.71875,57728
-1.035450224,-14357,128,-7.183963321,-99609,128,-7.23040965,-100253,0.14301719,1983,15781.25,58368
-1.052038199,-14587,128,-7.207979823,-99942,128,2.354266328,32643,0.129530445,1796,15800.78125,59008
-1.068049201,-14809,128,-7.212162878,-100000,128,-7.106071962,-98529,0.145469325,2017,15820.3125,59648
-1.070357093,-14841,128,-7.209350134,-99961,128,-7.227813271,-100217,1.181712887,16385,15839.84375,60288
-1.102956069,-15293,128,-7.206825877,-99926,128,-7.146460074,-99089,0.138978379,1927,15859.375,60928
-1.104686988,-15317,128,-7.209061648,-99957,128,2.354554815,32647,0.064620979,896,15878.90625,61568
-1.148392695,-15923,128,-7.206032539,-99915,128,-7.089916717,-98305,0.032671098,453,15898.4375,62208
-1.083194743,-15019,128,-7.178554199,-99534,128,-7.16398563,-99332,0.129458324,1795,15917.96875,62848
-1.07158316,-14858,128,-7.192978524,-99734,128,-7.230049042,-100248,0.147632974,2047,15937.5,63488
-1.020593169,-14151,128,-7.140906708,-99012,128,2.36320941,32767,0.145397204,2016,15957.03125,64128
-1.113990678,-15446,128,-7.171558401,-99437,128,2.358882112,32707,0.036782031,510,15976.5625,64768
-1.197868132,-16609,128,-7.198820376,-99815,128,2.328591028,32287,1.181352279,16380,15996.09375,65408
-1.221956756,-16943,128,-7.196945214,-99789,128,-7.196368241,-99781,1.178251049,16337,16015.625,512
-1.249435097,-17324,128,-7.201560998,-99853,128,2.33089892,32319,1.16721644,16184,16035.15625,1152
-1.20529666,-16712,128,-7.152446169,-99172,128,-7.329360524,-101625,1.165413399,16159,16054.6875,1792
-0.134290473,-1862,128,-6.573814341,-91149,128,4.652638394,64511,2.307459391,31994,16074.21875,2432
-1.117308273,-15492,128,-7.301160967,-101234,128,4.246016651,58873,0.734053938,10178,16093.75,3072
-1.323864618,-18356,128,-7.239352732,-100377,128,2.36320941,32767,0.004615784,64,16113.28125,3712
-1.229890136,-17053,128,-7.160812278,-99288,128,-7.163625021,-99327,1.181135914,16377,16132.8125,4352
-1.255204827,-17404,128,-7.147902506,-99109,128,2.359747572,32719,1.163466115,16132,16152.34375,4992
-1.255637557,-17410,128,-7.139103668,-98987,128,-7.089916717,-98305,1.146950262,15903,16171.875,5632
-1.246694475,-17286,128,-7.119342341,-98713,128,2.354049963,32640,1.181496523,16382,16191.40625,6272
-1.231332568,-17073,128,-7.099725258,-98441,128,-7.090782176,-98317,1.168875238,16207,16210.9375,6912
-1.217917945,-16887,128,-7.070732364,-98039,128,2.363137288,32766,1.181496523,16382,16230.46875,7552
-1.206666971,-16731,128,-7.075203905,-98101,128,-5.889812814,-81665,1.172481319,16257,16250,8192
-1.195632362,-16578,128,-7.035032157,-97544,128,3.609759642,50051,1.180342577,16366,16269.53125,8832
-1.163754602,-16136,128,-6.992119788,-96949,128,4.142666357,57440,1.19952693,16632,16289.0625,9472
-1.172048589,-16251,128,-6.958727474,-96486,128,-5.202565813,-72136,0.007428528,103,16308.59375,10112
-1.1964257,-16589,128,-6.969257232,-96632,128,3.683972798,51080,1.18048682,16368,16328.125,10752
-1.248858124,-17316,128,-7.029478792,-97467,128,3.677626095,50992,1.181352279,16380,16347.65625,11392
-1.289462601,-17879,128,-7.050610429,-97760,128,3.563457556,49409,1.167793413,16192,16367.1875,12032
-1.336125295,-18526,128,-7.081766973,-98192,128,3.55299992,49264,1.179477117,16354,16386.71875,12672
-1.388341354,-19250,128,-7.11573626,-98663,128,2.36320941,32767,1.164187332,16142,16406.25,13312
-1.377234623,-19096,128,-7.109461678,-98576,128,2.362704559,32760,1.179909847,16360,16425.78125,13952
-1.394183206,-19331,128,-7.103403461,-98492,128,-7.12193872,-98749,1.181568644,16383,16445.3125,14592
-1.386105583,-19219,128,-7.087897311,-98277,128,-5.907987464,-81917,1.181568644,16383,16464.84375,15232
-1.375215217,-19068,128,-7.070371755,-98034,128,-5.903876532,-81860,0.018391015,255,16484.375,15872
-1.413872411,-19604,128,-7.105206502,-98517,128,2.354266328,32643,1.148753303,15928,16503.90625,16512
-1.418199708,-19664,128,-7.086454879,-98257,128,3.54946596,49215,1.176448009,16312,16523.4375,17152
-1.42360883,-19739,128,-7.084219108,-98226,128,-7.09272946,-98344,1.170461913,16229,16542.96875,17792
-1.452457482,-20139,128,-7.096479785,-98396,128,-7.090998541,-98320,1.172192832,16253,16562.5,18432
-1.467603024,-20349,128,-7.097777974,-98414,128,-5.905679572,-81885,1.173491022,16271,16582.03125,19072
-1.470704254,-20392,128,-7.089988838,-98306,128,2.36320941,32767,1.163177629,16128,16601.5625,19712
-1.51303965,-20979,128,-7.117034449,-98681,128,-7.098066461,-98418,1.17695286,16319,16621.09375,20352
-1.504889906,-20866,128,-7.105494989,-98521,128,2.36320941,32767,1.165341278,16158,16640.625,20992
-1.497172892,-20759,128,-7.113139881,-98627,128,-7.122443571,-98756,1.181424401,16381,16660.15625,21632
-1.4408459,-19978,128,-7.094893109,-98374,128,-5.903660167,-81857,1.17695286,16319,16679.6875,22272
-1.41206937,-19579,128,-7.066188701,-97976,128,-5.875316367,-81464,1.177097103,16321,16699.21875,22912
-1.486571012,-20612,128,-7.062294133,-97922,128,-5.889812814,-81665,1.179404995,16353,16718.75,23552
-1.563741155,-21682,128,-7.112779273,-98622,128,-7.109245313,-98573,1.181568644,16383,16738.28125,24192
-1.604922605,-22253,128,-7.127564207,-98827,128,-7.126698747,-98815,1.171760103,16247,16757.8125,24832
-1.606869889,-22280,128,-7.075059661,-98099,128,3.55213446,49252,0.004471541,62,16777.34375,25472
-1.554293222,-21551,128,-7.064241417,-97949,128,-7.12193872,-98749,1.15748002,16049,16796.875,26112
-0.431215218,-5979,128,-6.441326909,-89312,128,-5.244684845,-72720,2.063183434,28607,16816.40625,26752
-0.806608296,-11184,128,-6.691661083,-92783,128,3.985513328,55261,0.118856444,1648,16835.9375,27392
-1.684184275,-23352,128,-7.162471075,-99311,128,2.067943462,28673,1.109807624,15388,16855.46875,28032
-1.605283213,-22258,128,-7.074915418,-98097,128,3.545138662,49155,1.172841927,16262,16875,28672
-1.612855984,-22363,128,-7.078160891,-98142,128,-5.894140112,-81725,1.181568644,16383,16894.53125,29312
-1.616029336,-22407,128,-7.045850402,-97694,128,-5.90113591,-81822,1.167721292,16191,16914.0625,29952
-1.611557795,-22345,128,-7.037700658,-97581,128,3.601537776,49937,1.163610359,16134,16933.59375,30592
-1.614226295,-22382,128,-7.034310941,-97534,128,3.600528073,49923,1.172553441,16258,16953.125,31232
-1.610980822,-22337,128,-7.031209711,-97491,128,-5.848270756,-81089,1.149258155,15935,16972.65625,31872
-1.574631521,-21833,128,-6.994788288,-96986,128,-5.778457019,-80121,1.178106806,16335,16992.1875,32512
-1.573333332,-21815,128,-6.980580328,-96789,128,3.627934292,50303,1.180198333,16364,17011.71875,33152
-1.520035448,-21076,128,-6.944519513,-96289,128,3.685703717,51104,1.181352279,16380,17031.25,33792
-1.527175489,-21175,128,-6.907304753,-95773,128,3.54946596,49215,1.177601955,16328,17050.78125,34432
-1.511597218,-20959,128,-6.874200925,-95314,128,-5.645320492,-78275,1.181135914,16377,17070.3125,35072
-1.540085261,-21354,128,-6.923171511,-95993,128,3.766696306,52227,1.107788218,15360,17089.84375,35712
-1.625909999,-22544,128,-7.00813079,-97171,128,-5.769730302,-80000,1.070789822,14847,17109.375,36352
-1.679784856,-23291,128,-7.04224432,-97644,128,-5.83781312,-80944,1.135555045,15745,17128.90625,36992
-1.712095346,-23739,128,-7.074482688,-98091,128,3.563313313,49407,1.163177629,16128,17148.4375,37632
-1.708705629,-23692,128,-7.034022455,-97530,128,3.54903323,49209,1.145579951,15884,17167.96875,38272
-1.720100846,-23850,128,-7.060274727,-97894,128,-5.879715786,-81525,1.177241347,16323,17187.5,38912
-1.724428144,-23910,128,-7.046571618,-97704,128,3.617620899,50160,1.181063793,16376,17207.03125,39552
-1.708849872,-23694,128,-7.047220713,-97713,128,3.549538082,49216,1.164475818,16146,17226.5625,40192
-1.703296507,-23617,128,-7.057389862,-97854,128,3.600239587,49919,1.181496523,16382,17246.09375,40832
-1.69456979,-23496,128,-7.06748689,-97994,128,3.581127355,49654,1.164908548,16152,17265.625,41472
-1.685698829,-23373,128,-7.046499496,-97703,128,-5.907626856,-81912,1.148969668,15931,17285.15625,42112
-1.724572387,-23912,128,-7.079531202,-98161,128,-5.873369083,-81437,1.177674076,16329,17304.6875,42752
-1.706469858,-23661,128,-7.053351051,-97798,128,3.563241191,49406,1.172409197,16256,17324.21875,43392
-1.73178455,-24012,128,-7.078809986,-98151,128,3.581271598,49656,1.149330276,15936,17343.75,44032
-1.699618304,-23566,128,-7.040224915,-97616,128,3.613005115,50096,1.181496523,16382,17363.28125,44672
-1.724211779,-23907,128,-7.068857201,-98013,128,-5.898106801,-81780,1.163105507,16127,17382.8125,45312
-1.727024523,-23946,128,-7.077728162,-98136,128,-5.904814113,-81873,1.165413399,16159,17402.34375,45952
-1.73135182,-24006,128,-7.057101376,-97850,128,-5.903443802,-81854,1.17695286,16319,17421.875,46592
-1.7189469,-23834,128,-7.062943228,-97931,128,-5.871566042,-81412,1.179837725,16359,17441.40625,47232
-1.657499273,-22982,128,-7.035104279,-97545,128,3.618125751,50167,0.004183054,58,17460.9375,47872
-1.614947512,-22392,128,-7.036690955,-97567,128,3.563962408,49416,1.18048682,16368,17480.46875,48512
-1.585377644,-21982,128,-6.99132645,-96938,128,3.563385435,49408,1.44E-04,2,17500,49152
-1.725726333,-23928,128,-7.048735267,-97734,128,-5.907194127,-81906,1.146950262,15903,17519.53125,49792
-1.765970202,-24486,128,-7.049384361,-97743,128,-5.839544039,-80968,1.153873939,15999,17539.0625,50432
-1.788039421,-24792,128,-7.062077768,-97919,128,-5.905968059,-81889,0.590171288,8183,17558.59375,51072
-1.815950491,-25179,128,-7.076357851,-98117,128,-5.905968059,-81889,0.551946825,7653,17578.125,51712
-1.655984718,-22961,128,-6.920719376,-95959,128,-5.723644581,-79361,0.038008098,527,17597.65625,52352
-0.540695851,-7497,128,-6.454813654,-89499,128,-4.735866754,-65665,1.03790236,14391,17617.1875,52992
-1.743251889,-24171,128,-7.26055649,-100671,128,2.358665747,32704,0.88738452,12304,17636.71875,53632
-1.747939795,-24236,128,-7.02053571,-97343,128,3.549538082,49216,0.008077622,112,17656.25,54272
-1.75082466,-24276,128,-7.01786721,-97306,128,-5.905895937,-81888,1.16368248,16135,17675.78125,54912
-1.743396132,-24173,128,-6.999115586,-97046,128,-5.904741991,-81872,1.180703185,16371,17695.3125,55552
-1.744477957,-24188,128,-6.966228123,-96590,128,3.673226675,50931,0,0,17714.84375,56192
-1.75392589,-24319,128,-6.985196112,-96853,128,3.554153866,49280,1.172409197,16256,17734.375,56832
-1.745992511,-24209,128,-6.978560922,-96761,128,-5.764609666,-79929,1.179837725,16359,17753.90625,57472
-1.742530673,-24161,128,-6.968463894,-96621,128,-5.843366485,-81021,1.172625562,16259,17773.4375,58112
-1.71981236,-23846,128,-6.918411484,-95927,128,-5.862118109,-81281,1.17695286,16319,17792.96875,58752
-1.687141262,-23393,128,-6.899804103,-95669,128,-5.759705396,-79861,1.174644968,16287,17812.5,59392
-1.669543585,-23149,128,-6.867926343,-95227,128,3.70755657,51407,1.176736495,16316,17832.03125,60032
-1.678919396,-23279,128,-6.860353572,-95122,128,3.773908469,52327,1.172409197,16256,17851.5625,60672
-1.721687522,-23872,128,-6.892014967,-95561,128,-5.705109323,-79104,1.149258155,15935,17871.09375,61312
-1.737482159,-24091,128,-6.923748484,-96001,128,3.711018409,51455,1.18048682,16368,17890.625,61952
-1.811839558,-25122,128,-6.982599733,-96817,128,3.691401326,51183,0.550288028,7630,17910.15625,62592
-1.858502252,-25769,128,-7.025151494,-97407,128,-5.838967066,-80960,0.586420964,8131,17929.6875,63232
-1.888288485,-26182,128,-7.024863008,-97403,128,3.609543277,50048,0.59067614,8190,17949.21875,63872
-1.898529756,-26324,128,-7.047797686,-97721,128,-5.907194127,-81906,0.554110474,7683,17968.75,64512
-1.887350903,-26169,128,-7.04931224,-97742,128,-5.904741991,-81872,0.58670945,8135,17988.28125,65152
-1.877975092,-26039,128,-7.009573222,-97191,128,3.582930396,49679,0.59067614,8190,18007.8125,256
-1.883023606,-26109,128,-7.017578723,-97302,128,-5.836442809,-80925,0.581805179,8067,18027.34375,896
-1.876893267,-26024,128,-7.021329048,-97354,128,3.618702724,50175,0.57783849,8012,18046.875,1536
-1.896293985,-26293,128,-7.021689656,-97359,128,3.56316907,49405,0.586204599,8128,18066.40625,2176
-1.901775229,-26369,128,-7.042749172,-97651,128,-5.838894944,-80959,0.572285124,7935,18085.9375,2816
-1.926801434,-26716,128,-7.04621101,-97699,128,3.617548778,50159,0.590531896,8188,18105.46875,3456
-1.940576665,-26907,128,-7.012385966,-97230,128,3.655917484,50691,0.006923676,96,18125,4096
-1.958895559,-27161,128,-7.049240118,-97741,128,-5.899621355,-81801,0.577189395,8003,18144.53125,4736
-1.987239359,-27554,128,-7.062222011,-97921,128,-5.871349677,-81409,0.554975933,7695,18164.0625,5376
-2.004260064,-27790,128,-7.065972336,-97973,128,3.578314612,49615,0.589666437,8176,18183.59375,6016
-2.004043699,-27787,128,-7.045129185,-97684,128,-5.903660167,-81857,0.576900909,7999,18203.125,6656
-2.008298875,-27846,128,-7.042027955,-97641,128,3.582353423,49671,0.574088165,7960,18222.65625,7296
-1.977719304,-27422,128,-7.047437077,-97716,128,2.363786383,32775,0.588656734,8162,18242.1875,7936
-1.945480936,-26975,128,-7.03690732,-97570,128,-5.907194127,-81906,7.21E-05,1,18261.71875,8576
-1.911655892,-26506,128,-7.019381764,-97327,128,-5.872431501,-81424,0.581516693,8063,18281.25,9216
-1.970507141,-27322,128,-6.978416679,-96759,128,3.581848572,49664,0.588945221,8166,18300.78125,9856
-2.075227746,-28774,128,-7.038349752,-97590,128,3.616466953,50144,0.570482084,7910,18320.3125,10496
-2.101263654,-29135,128,-7.053206808,-97796,128,-5.871566042,-81412,0.262883337,3645,18339.84375,11136
-2.108764304,-29239,128,-7.045057064,-97683,128,-5.899044382,-81793,0.291731988,4045,18359.375,11776
-2.125712887,-29474,128,-7.062438376,-97924,128,-5.88079761,-81540,0.001081824,15,18378.90625,12416
-1.169452211,-16215,128,-6.515107335,-90335,128,4.117279544,57088,1.185679577,16440,18398.4375,13056
-1.829942087,-25373,128,-6.976397273,-96731,128,-5.868897542,-81375,0.295049583,4091,18417.96875,13696
-2.212186719,-30673,128,-7.113572611,-98633,128,-7.117034449,-98681,0.222062495,3079,18437.5,14336
-2.125208035,-29467,128,-7.003515006,-97107,128,-5.908203829,-81920,0.01637161,227,18457.03125,14976
-2.104292763,-29177,128,-6.993490099,-96968,128,-5.811416603,-80578,0.29533807,4095,18476.5625,15616
-2.139920847,-29671,128,-6.979137895,-96769,128,3.58177645,49663,0.001730919,24,18496.09375,16256
-2.116769805,-29350,128,-6.958222623,-96479,128,-5.769730302,-80000,2.16E-04,3,18515.625,16896
-2.132275955,-29565,128,-6.967886921,-96613,128,-5.760570855,-79873,0.286394988,3971,18535.15625,17536
-2.139704483,-29668,128,-6.959665055,-96499,128,-6.950505608,-96372,0.279182825,3871,18554.6875,18176
-2.114750399,-29322,128,-6.952525014,-96400,128,3.691473447,51184,0.295265948,4094,18574.21875,18816
-2.097585451,-29084,128,-6.874777898,-95322,128,-6.868286952,-95232,0.002380014,33,18593.75,19456
-2.07847322,-28819,128,-6.814484217,-94486,128,-5.631401018,-78082,0.019400718,269,18613.28125,20096
-2.032315377,-28179,128,-6.786717389,-94101,128,3.821941474,52993,0.008077622,112,18632.8125,20736
-2.034695391,-28212,128,-6.793280458,-94192,128,3.544922298,49152,0.58937795,8172,18652.34375,21376
-2.062245853,-28594,128,-6.807488419,-94389,128,3.822085717,52995,0.522593322,7246,18671.875,22016
-2.137973563,-29644,128,-6.886100994,-95479,128,-5.760498734,-79872,0.226101306,3135,18691.40625,22656
-2.193435096,-30413,128,-6.910333861,-95815,128,-5.876181826,-81476,0.244275957,3387,18710.9375,23296
-2.248319655,-31174,128,-6.92886912,-96072,128,-5.903876532,-81860,0.129458324,1795,18730.46875,23936
-2.235482006,-30996,128,-6.966156002,-96589,128,3.674092135,50943,0.147560852,2046,18750,24576
-2.262383373,-31369,128,-6.955986852,-96448,128,-5.761003585,-79879,0.147488731,2045,18769.53125,25216
-2.265845211,-31417,128,-6.936441891,-96177,128,-5.900198329,-81809,2.16E-04,3,18789.0625,25856
-2.276663456,-31567,128,-6.936081283,-96172,128,-5.752132625,-79756,0.140709298,1951,18808.59375,26496
-2.283298645,-31659,128,-6.938966148,-96212,128,-6.937595837,-96193,0.134362594,1863,18828.125,27136
-2.28704897,-31711,128,-6.947404378,-96329,128,-5.760570855,-79873,0.110850943,1537,18847.65625,27776
-2.30962304,-32024,128,-6.94394254,-96281,128,2.435331039,33767,0.072410115,1004,18867.1875,28416
-2.301761782,-31915,128,-6.931321255,-96106,128,-6.854006869,-95034,0.069597372,965,18886.71875,29056
-2.337389867,-32409,128,-6.957068677,-96463,128,-5.837885241,-80945,0.064260371,891,18906.25,29696
-2.331692258,-32330,128,-6.951226825,-96382,128,-6.944231027,-96285,0.029353503,407,18925.78125,30336
-2.339625637,-32440,128,-6.952813501,-96404,128,-5.860026581,-81252,0.011467339,159,18945.3125,30976
-2.354915423,-32652,128,-6.966444488,-96593,128,2.50976056,34799,0.008077622,112,18964.84375,31616
-2.392562913,-33174,128,-6.958943839,-96489,128,3.691978299,51191,1.181496523,16382,18984.375,32256
-2.418382456,-33532,128,-6.983248828,-96826,128,2.509111465,34790,1.163177629,16128,19003.90625,32896
-2.427469781,-33658,128,-6.964713569,-96569,128,2.510049046,34803,1.179765604,16358,19023.4375,33536
-2.414055158,-33472,128,-6.967959043,-96614,128,3.665942391,50830,1.163177629,16128,19042.96875,34176
-2.434177093,-33751,128,-6.964641448,-96568,128,2.506370843,34752,2.290005957,31752,19062.5,34816
-2.399702954,-33273,128,-6.938677661,-96208,128,-5.760570855,-79873,2.294405376,31813,19082.03125,35456
-2.372152492,-32891,128,-6.946827405,-96321,128,-5.834423403,-80897,1.177529833,16327,19101.5625,36096
-2.378571317,-32980,128,-6.898361671,-95649,128,3.582930396,49679,2.349289936,32574,19121.09375,36736
-2.489999233,-34525,128,-6.96384811,-96557,128,-6.961540218,-96525,1.163393994,16131,19140.625,37376
-2.488628923,-34506,128,-6.95764565,-96471,128,-5.907626856,-81912,2.220120099,30783,19160.15625,38016
-2.525483075,-35017,128,-6.960169907,-96506,128,-6.960097785,-96505,1.180703185,16371,19179.6875,38656
-2.561904497,-35522,128,-7.012818696,-97236,128,3.545210784,49156,1.16764917,16190,19199.21875,39296
-1.512462677,-20971,128,-6.360839172,-88196,128,4.504716933,62460,2.88E-04,4,19218.75,39936
-1.547874397,-21462,128,-6.460222776,-89574,128,4.136463897,57354,1.107788218,15360,19238.28125,40576
-2.561183281,-35512,128,-7.136218802,-98947,128,1.14464237,15871,0.904693711,12544,19257.8125,41216
-2.490648328,-34534,128,-6.926128498,-96034,128,-6.93730735,-96189,2.217812206,30751,19277.34375,41856
-2.489927112,-34524,128,-6.878528223,-95374,128,3.728543964,51698,2.219326761,30772,19296.875,42496
-2.494542896,-34588,128,-6.901390779,-95691,128,2.418959429,33540,2.215576436,30720,19316.40625,43136
-2.496345937,-34613,128,-6.870811209,-95267,128,3.579324315,49629,2.224231031,30840,19335.9375,43776
-2.499519288,-34657,128,-6.860425694,-95123,128,-5.683256469,-78801,2.21665826,30735,19355.46875,44416
-2.474565205,-34311,128,-6.831865529,-94727,128,-5.761003585,-79879,2.224303153,30841,19375,45056
-2.466703947,-34202,128,-6.82349942,-94611,128,2.656672318,36836,1.17298617,16264,19394.53125,45696
-2.432951025,-33734,128,-6.799771404,-94282,128,3.834995489,53174,2.289573227,31746,19414.0625,46336
-2.417300632,-33517,128,-6.745463818,-93529,128,-6.646657186,-92159,2.289645349,31747,19433.59375,46976
-2.368257924,-32837,128,-6.674568257,-92546,128,-5.834495525,-80898,2.356285734,32671,19453.125,47616
-2.384268926,-33059,128,-6.676082811,-92567,128,-5.908203829,-81920,1.181568644,16383,19472.65625,48256
-2.3981884,-33252,128,-6.682213149,-92652,128,3.618630602,50174,2.326787988,32262,19492.1875,48896
-2.42739766,-33657,128,-6.749718994,-93588,128,-5.899116504,-81794,1.159066696,16071,19511.71875,49536
-2.507236303,-34764,128,-6.797319269,-94248,128,3.840044003,53244,1.145002978,15876,19531.25,50176
-2.538032238,-35191,128,-6.801502323,-94306,128,-5.615245773,-77858,1.181135914,16377,19550.78125,50816
-2.560606308,-35504,128,-6.817224838,-94524,128,3.55299992,49264,1.18048682,16368,19570.3125,51456
-2.540556495,-35226,128,-6.795083498,-94217,128,3.840260367,53247,2.074795017,28768,19589.84375,52096
-2.543657725,-35269,128,-6.766883942,-93826,128,-5.903732288,-81858,2.068664678,28683,19609.375,52736
-2.521227899,-34958,128,-6.756498427,-93682,128,-6.793352579,-94193,2.070107111,28703,19628.90625,53376
-2.525771561,-35021,128,-6.77344701,-93917,128,-5.908203829,-81920,2.071549543,28723,19648.4375,54016
-2.516323628,-34890,128,-6.764431806,-93792,128,3.562231488,49392,2.079266558,28830,19667.96875,54656
-2.51906425,-34928,128,-6.769985172,-93869,128,2.826230267,39187,2.069025286,28688,19687.5,55296
-2.516035141,-34886,128,-6.768975469,-93855,128,-6.50602001,-90209,2.071261057,28719,19707.03125,55936
-2.547768658,-35326,128,-6.774889442,-93937,128,2.936720602,40719,1.177169225,16322,19726.5625,56576
-2.559524484,-35489,128,-6.808137513,-94398,128,-5.838750701,-80957,1.165413399,16159,19746.09375,57216
-2.553033537,-35399,128,-6.783688281,-94059,128,-5.897313463,-81769,2.081646571,28863,19765.625,57856
-2.58238704,-35806,128,-6.802800513,-94324,128,-5.838967066,-80960,1.172625562,16259,19785.15625,58496
-2.594503474,-35974,128,-6.775466415,-93945,128,-6.775466415,-93945,2.088570248,28959,19804.6875,59136
-2.612317516,-36221,128,-6.798112607,-94259,128,-6.946683162,-96319,1.172481319,16257,19824.21875,59776
-2.608422948,-36167,128,-6.79248712,-94181,128,3.546004122,49167,2.06787134,28672,19843.75,60416
-2.628328517,-36443,128,-6.808426,-94402,128,-6.956058974,-96449,1.179404995,16353,19863.28125,61056
-2.593782257,-35964,128,-6.786573146,-94099,128,-5.903660167,-81857,2.077030787,28799,19882.8125,61696
-2.538969819,-35204,128,-6.763854833,-93784,128,2.662730534,36920,2.069890746,28700,19902.34375,62336
-2.512717547,-34840,128,-6.747483223,-93557,128,1.032781724,14320,0,0,19921.875,62976
-2.610947205,-36202,128,-6.75664267,-93684,128,-6.580016801,-91235,2.070684084,28711,19941.40625,63616
-2.669149359,-37009,128,-6.79472289,-94212,128,2.806685305,38916,1.17918863,16350,19960.9375,64256
-2.709537471,-37569,128,-6.774096104,-93926,128,2.898640382,40191,1.181496523,16382,19980.46875,64896
-2.725909081,-37796,128,-6.794073796,-94203,128,3.547735041,49191,1.16764917,16190,20000,0
-2.715884175,-37657,128,-6.814123608,-94481,128,-5.779033992,-80129,1.920094123,26623,20019.53125,640
-1.349612039,-18713,128,-6.07206417,-84192,128,-4.808565355,-66673,0.29447261,4083,20039.0625,1280
-2.285462294,-31689,128,-6.694257461,-92819,128,4.693098628,65072,0.874691114,12128,20058.59375,1920
-2.785048817,-38616,128,-6.828980664,-94687,128,-5.898755896,-81789,1.181568644,16383,20078.125,2560
-2.70989808,-37574,128,-6.777197334,-93969,128,-6.509626092,-90259,1.786524866,24771,20097.65625,3200
-2.731534568,-37874,128,-6.797247147,-94247,128,-6.507390321,-90228,1.176375887,16311,20117.1875,3840
-2.728289095,-37829,128,-6.767172428,-93830,128,-6.568333097,-91073,1.181568644,16383,20136.71875,4480
-2.734563677,-37916,128,-6.764359685,-93791,128,-5.907194127,-81906,1.181568644,16383,20156.25,5120
-2.740261285,-37995,128,-6.746401399,-93542,128,-6.535517756,-90618,1.180991671,16375,20175.78125,5760
-2.725043622,-37784,128,-6.72563037,-93254,128,-6.499096334,-90113,1.181568644,16383,20195.3125,6400
-2.717398729,-37678,128,-6.710484828,-93044,128,-5.908203829,-81920,1.172914049,16263,20214.84375,7040
-2.72143754,-37734,128,-6.68091496,-92634,128,-6.508039416,-90237,1.772677514,24579,20234.375,7680
-2.67758759,-37126,128,-6.615284278,-91724,128,3.54946596,49215,1.780538771,24688,20253.90625,8320
-2.690785848,-37309,128,-6.610091521,-91652,128,3.554009623,49278,1.772461149,24576,20273.4375,8960
-2.671168765,-37037,128,-6.607639385,-91618,128,-5.872575745,-81426,1.181568644,16383,20292.96875,9600
-2.714225377,-37634,128,-6.625958279,-91872,128,-5.889812814,-81665,1.181568644,16383,20312.5,10240
-2.787140344,-38645,128,-6.687766515,-92729,128,3.58177645,49663,1.140098708,15808,20332.03125,10880
-2.840798836,-39389,128,-6.735150425,-93386,128,-6.499096334,-90113,1.167721292,16191,20351.5625,11520
-2.873109326,-39837,128,-6.740775912,-93464,128,-6.517415228,-90367,1.163249751,16129,20371.09375,12160
-2.886379705,-40021,128,-6.753252954,-93637,128,2.919411411,40479,1.163898845,16138,20390.625,12800
-2.877220258,-39894,128,-6.73760256,-93420,128,-6.582108329,-91264,1.181568644,16383,20410.15625,13440
-2.888110624,-40045,128,-6.740198939,-93456,128,2.843250971,39423,1.181496523,16382,20429.6875,14080
-2.887245165,-40033,128,-6.732914654,-93355,128,-6.534652297,-90606,1.177962563,16333,20449.21875,14720
-2.887677895,-40039,128,-6.726135221,-93261,128,-6.619395211,-91781,1.773542973,24591,20468.75,15360
-2.898279774,-40186,128,-6.717913356,-93147,128,2.862291081,39687,1.177024982,16320,20488.28125,16000
-2.923955074,-40542,128,-6.749430507,-93584,128,2.875633583,39872,1.172553441,16258,20507.8125,16640
-2.927921763,-40597,128,-6.732698289,-93352,128,2.824787834,39167,1.177024982,16320,20527.34375,17280
-2.954174036,-40961,128,-6.759166927,-93719,128,2.842169147,39408,1.176736495,16316,20546.875,17920
-2.958357091,-41019,128,-6.737386195,-93417,128,2.923955074,40542,0.589089464,8168,20566.40625,18560
-2.991893648,-41484,128,-6.743732899,-93505,128,2.691002213,37312,0.587358545,8144,20585.9375,19200
-2.983383296,-41366,128,-6.751449913,-93612,128,2.843250971,39423,0.59024341,8184,20605.46875,19840
-3.002279163,-41628,128,-6.768686982,-93851,128,2.87996088,39932,0.567597218,7870,20625,20480
-3.009491326,-41728,128,-6.767749401,-93838,128,2.84274612,39416,0.572357246,7936,20644.53125,21120
-2.958934064,-41027,128,-6.755777211,-93672,128,-6.53479654,-90608,0.585699747,8121,20664.0625,21760
-2.954534644,-40966,128,-6.749214142,-93581,128,-6.72519764,-93248,1.181424401,16381,20683.59375,22400
-2.93708121,-40724,128,-6.690867745,-92772,128,-6.572516152,-91131,1.790275191,24823,20703.125,23040
-3.04555214,-42228,128,-6.760825725,-93742,128,-6.574030706,-91152,0.55439896,7687,20722.65625,23680
-3.092214834,-42875,128,-6.780659173,-94017,128,-6.780442808,-94014,0.582670639,8079,20742.1875,24320
-3.098633659,-42964,128,-6.767749401,-93838,128,-6.787510727,-94112,1.181857131,16387,20761.71875,24960
-3.118106498,-43234,128,-6.783832524,-94061,128,2.674774846,37087,0.574520895,7966,20781.25,25600
-2.765143247,-38340,128,-6.512510957,-90299,128,2.892870652,40111,1.329922835,18440,20800.78125,26240
-1.679640613,-23289,128,-5.984075783,-82972,128,-4.802723503,-66592,1.177529833,16327,20820.3125,26880
-3.180347464,-44097,128,-6.943798297,-96279,128,-6.574607679,-91160,0.623202994,8641,20839.84375,27520
-3.124092594,-43317,128,-6.766090604,-93815,128,-6.811887838,-94450,1.182145617,16391,20859.375,28160
-3.100292456,-42987,128,-6.718201842,-93151,128,2.658691723,36864,1.181640766,16384,20878.90625,28800
-3.106134308,-43068,128,-6.731760708,-93339,128,2.732760636,37891,0.586204599,8128,20898.4375,29440
-3.106350673,-43071,128,-6.706950868,-92995,128,-6.554485745,-90881,0.590748261,8191,20917.96875,30080
-3.092863928,-42884,128,-6.696998083,-92857,128,-6.518785539,-90386,0.588584612,8161,20937.5,30720
-3.109884633,-43120,128,-6.695483529,-92836,128,2.882485137,39967,0.589666437,8176,20957.03125,31360
-3.076131711,-42652,128,-6.64946993,-92198,128,2.945447319,40840,0.59024341,8184,20976.5625,32000
-3.079521427,-42699,128,-6.65300389,-92247,128,-6.516477646,-90354,0.590748261,8191,20996.09375,32640
-3.042667275,-42188,128,-6.594801735,-91440,128,2.917103519,40447,1.181640766,16384,21015.625,33280
-3.029396895,-42004,128,-6.577997396,-91207,128,2.949990982,40903,0.590531896,8188,21035.15625,33920
-3.017352583,-41837,128,-6.540710514,-90690,128,2.898424017,40188,1.186112307,16446,21054.6875,34560
-2.999105811,-41584,128,-6.550663298,-90828,128,-6.526718918,-90496,0.580651233,8051,21074.21875,35200
-3.058461911,-42407,128,-6.604177547,-91570,128,-6.645719605,-92146,0.560745664,7775,21093.75,35840
-3.147892731,-43647,128,-6.672981581,-92524,128,2.941120021,40780,0.588800977,8164,21113.28125,36480
-3.1881366,-44205,128,-6.701830232,-92924,128,-6.572371909,-91129,0.586420964,8131,21132.8125,37120
-3.218644049,-44628,128,-6.711422409,-93057,128,2.926335088,40575,0.59067614,8190,21152.34375,37760
-3.235736875,-44865,128,-6.731616465,-93337,128,-6.77835128,-93985,0.572429368,7937,21171.875,38400
-3.220086482,-44648,128,-6.733058898,-93357,128,2.693742835,37350,0.572357246,7936,21191.40625,39040
-3.219221022,-44636,128,-6.70348903,-92947,128,-6.757796616,-93700,1.198877835,16623,21210.9375,39680
-3.218571927,-44627,128,-6.719788518,-93173,128,-6.72476491,-93242,0.554975933,7695,21230.46875,40320
-3.226144698,-44732,128,-6.720077004,-93177,128,-6.958871717,-96488,0.590748261,8191,21250,40960
-3.204219723,-44428,128,-6.71279272,-93076,128,-6.791044687,-94161,0.562476583,7799,21269.53125,41600
-3.25766185,-45169,128,-6.738540141,-93433,128,-6.665192445,-92416,0.57343907,7951,21289.0625,42240
-3.249728471,-45059,128,-6.755705089,-93671,128,-6.730101911,-93316,0.278028879,3855,21308.59375,42880
-3.280812893,-45490,128,-6.748132318,-93566,128,-7.033733968,-97526,0.276874933,3839,21328.125,43520
-3.285933529,-45561,128,-6.734140722,-93372,128,-6.729669181,-93310,0.29447261,4083,21347.65625,44160
-3.299420273,-45748,128,-6.733924357,-93369,128,2.723312703,37760,1.183804415,16414,21367.1875,44800
-3.305117882,-45827,128,-6.732770411,-93353,128,2.67715486,37120,1.181640766,16384,21386.71875,45440
-3.326033154,-46117,128,-6.779360983,-93999,128,-6.78628466,-94095,0.29533807,4095,21406.25,46080
-3.28687111,-45574,128,-6.782390092,-94041,128,-7.085733662,-98247,0.262883337,3645,21425.78125,46720
-3.253983647,-45118,128,-6.76284513,-93770,128,-6.780659173,-94017,0.295049583,4091,21445.3125,47360
-3.191814803,-44256,128,-6.732986776,-93356,128,-6.793496823,-94195,0.589017342,8167,21464.84375,48000
-3.272663149,-45377,128,-6.736881344,-93410,128,-6.720653977,-93185,0.586132477,8127,21484.375,48640
-3.362959428,-46629,128,-6.804387188,-94346,128,2.647152263,36704,0.291082894,4036,21503.90625,49280
-3.393466877,-47052,128,-6.825663069,-94641,128,-6.789890741,-94145,0.229563144,3183,21523.4375,49920
-3.393394756,-47051,128,-6.821768501,-94587,128,-6.831288556,-94719,0.279182825,3871,21542.96875,50560
-3.376446173,-46816,128,-6.802872634,-94325,128,2.621981814,36355,0.138473527,1920,21562.5,51200
-2.296208417,-31838,128,-6.175486586,-85626,128,-4.873835429,-67578,0.034834747,483,21582.03125,51840
-3.193401479,-44278,128,-6.918411484,-95927,128,3.378465578,46844,1.181352279,16380,21601.5625,52480
-3.456501181,-47926,128,-6.890644656,-95542,128,2.436989836,33790,0.143810528,1994,21621.09375,53120
-3.37630193,-46814,128,-6.795804715,-94227,128,-6.823283055,-94608,1.181712887,16385,21640.625,53760
-3.35993032,-46587,128,-6.764215441,-93789,128,-6.776043388,-93953,1.181712887,16385,21660.15625,54400
-3.365123077,-46659,128,-6.740631669,-93462,128,-6.739549844,-93447,0.258988769,3591,21679.6875,55040
-3.354521198,-46512,128,-6.740198939,-93456,128,2.431292228,33711,0.26079181,3616,21699.21875,55680
-3.338942926,-46296,128,-6.731616465,-93337,128,2.68112155,37175,0.290217434,4024,21718.75,56320
-3.322787681,-46072,128,-6.709042395,-93024,128,-7.020607832,-97344,0.29447261,4083,21738.28125,56960
-3.306199706,-45842,128,-6.685314379,-92695,128,2.693382227,37345,1.190728091,16510,21757.8125,57600
-3.258671553,-45183,128,-6.615067913,-91721,128,-6.628338293,-91905,1.186184428,16447,21777.34375,58240
-3.241362362,-44943,128,-6.58571441,-91314,128,2.954029793,40959,0.581011841,8056,21796.875,58880
-3.232202915,-44816,128,-6.555134839,-90890,128,2.926335088,40575,0.582598517,8078,21816.40625,59520
-3.22975078,-44782,128,-6.574535558,-91159,128,-6.564366408,-91018,0.573150584,7947,21835.9375,60160
-3.236025362,-44869,128,-6.568982192,-91082,128,-6.568333097,-91073,0.563919015,7819,21855.46875,60800
-3.317955532,-46005,128,-6.658052404,-92317,128,-6.62026067,-91793,0.25148812,3487,21875,61440
-3.366349145,-46676,128,-6.687622271,-92727,128,2.672539076,37056,0.251848728,3492,21894.53125,62080
-3.405439068,-47218,128,-6.747122615,-93552,128,-6.766306968,-93818,0.235909848,3271,21914.0625,62720
-3.426570705,-47511,128,-6.744526237,-93516,128,-7.08609427,-98252,0.111860646,1551,21933.59375,63360
-3.383946822,-46920,128,-6.706950868,-92995,128,2.658908088,36867,1.181640766,16384,21953.125,64000
-3.406232405,-47229,128,-6.731183735,-93331,128,-7.007914425,-97168,0.286250745,3969,21972.65625,64640
-3.400751162,-47153,128,-6.698729002,-92881,128,2.677010617,37118,0.138473527,1920,21992.1875,65280
-3.407097865,-47241,128,-6.724332181,-93236,128,-6.978849408,-96765,0.144171136,1999,22011.71875,384
-3.428662232,-47540,128,-6.721447315,-93196,128,2.662442048,36916,0.129241959,1792,22031.25,1024
-3.436811976,-47653,128,-6.71675941,-93131,128,2.377128884,32960,0.133857743,1856,22050.78125,1664
-3.459097559,-47962,128,-6.726856438,-93271,128,2.43230193,33725,0.077314386,1072,22070.3125,2304
-3.483835278,-48305,128,-6.764792414,-93797,128,-7.029983643,-97474,0.032526855,451,22089.84375,2944
-3.483330427,-48298,128,-6.763494225,-93779,128,2.378138587,32974,0.073564061,1020,22109.375,3584
-3.507491172,-48633,128,-6.765585752,-93808,128,2.693310105,37344,0.031733517,440,22128.90625,4224
-3.532012526,-48973,128,-6.792414998,-94180,128,-7.08472396,-98233,0.036854152,511,22148.4375,4864
-3.507346929,-48631,128,-6.76414332,-93788,128,-7.061645038,-97913,0.036998396,513,22167.96875,5504
-3.477993426,-48224,128,-6.774889442,-93937,128,2.381672547,33023,0.072121629,1000,22187.5,6144
-3.439696841,-47693,128,-6.764864536,-93798,128,-6.77654824,-93960,0.147632974,2047,22207.03125,6784
-3.482392845,-48285,128,-6.759455414,-93723,128,2.400135684,33279,0.127366796,1766,22226.5625,7424
-3.559346623,-49352,128,-6.787150119,-94107,128,2.36364214,32773,1.164908548,16152,22246.09375,8064
-3.601898384,-49942,128,-6.822489717,-94597,128,-6.803161121,-94329,1.143488424,15855,22265.625,8704
-3.625410035,-50268,128,-6.822129109,-94592,128,2.65811475,36856,1.172409197,16256,22285.15625,9344
-3.644738632,-50536,128,-6.865185722,-95189,128,-6.868863925,-95240,1.147094506,15905,22304.6875,9984
-2.824210861,-39159,128,-6.328961412,-87754,128,2.791611885,38707,1.258955152,17456,22324.21875,10624
-2.431869201,-33719,128,-6.137262122,-85096,128,-5.011010767,-69480,1.163249751,16129,22343.75,11264
-3.732943384,-51759,128,-6.937163107,-96187,128,-7.075997242,-98112,1.103100312,15295,22363.28125,11904
-3.618414237,-50171,128,-6.810589649,-94432,128,-6.79558835,-94224,1.163249751,16129,22382.8125,12544
-3.623606995,-50243,128,-6.792847728,-94186,128,-6.795876836,-94228,1.173491022,16271,22402.34375,13184
-3.618125751,-50167,128,-6.77964947,-94003,128,-7.080829392,-98179,1.144786614,15873,22421.875,13824
-3.620217278,-50196,128,-6.77344701,-93917,128,2.366671248,32815,1.163466115,16132,22441.40625,14464
-3.595768046,-49857,128,-6.772293064,-93901,128,-7.08695973,-98264,1.171038886,16237,22460.9375,15104
-3.616971805,-50151,128,-6.785707687,-94087,128,-7.087753068,-98275,1.146950262,15903,22480.46875,15744
-3.60305233,-49958,128,-6.753757805,-93644,128,-7.055226213,-97824,1.145219343,15879,22500,16384
-3.605865074,-49997,128,-6.731255857,-93332,128,-7.052990443,-97793,1.146084803,15891,22519.53125,17024
-3.562519975,-49396,128,-6.685242258,-92694,128,-7.003226519,-97103,1.17738559,16325,22539.0625,17664
-3.550980514,-49236,128,-6.647811132,-92175,128,2.436629228,33785,1.180198333,16364,22558.59375,18304
-3.526964012,-48903,128,-6.646729308,-92160,128,-6.946755284,-96320,0.009159447,127,22578.125,18944
-3.555812664,-49303,128,-6.661658485,-92367,128,-6.64680143,-92161,0.018391015,255,22597.65625,19584
-3.642647105,-50507,128,-6.723322478,-93222,128,-6.788808917,-94130,1.162528534,16119,22617.1875,20224
-3.706979597,-51399,128,-6.79782412,-94255,128,2.371359154,32880,1.112692489,15428,22636.71875,20864
-3.761070819,-52149,128,-6.825302461,-94636,128,-7.032435779,-97508,1.108437313,15369,22656.25,21504
-3.77527878,-52346,128,-6.848886233,-94963,128,-6.831072191,-94716,1.180558941,16369,22675.78125,22144
-3.771239969,-52290,128,-6.863238438,-95162,128,2.363714261,32774,1.172409197,16256,22695.3125,22784
-3.783789132,-52464,128,-6.847443801,-94943,128,2.418670943,33536,1.167793413,16192,22714.84375,23424
-3.790280079,-52554,128,-6.850761396,-94989,128,2.381672547,33023,1.181496523,16382,22734.375,24064
-3.791361903,-52569,128,-6.828908542,-94686,128,-6.951082581,-96380,1.174644968,16287,22753.90625,24704
-3.789558862,-52544,128,-6.856531126,-95069,128,2.621693328,36351,1.177169225,16322,22773.4375,25344
-3.792804336,-52589,128,-6.844631057,-94904,128,-6.99752891,-97024,1.144930857,15875,22792.96875,25984
-3.822590568,-53002,128,-6.868070587,-95229,128,-7.089772474,-98303,1.147527235,15911,22812.5,26624
-3.846607071,-53335,128,-6.887327062,-95496,128,-7.01656902,-97288,1.17652013,16313,22832.03125,27264
-3.859516842,-53514,128,-6.878888831,-95379,128,2.649460155,36736,1.147022384,15904,22851.5625,27904
-3.872570857,-53695,128,-6.876292452,-95343,128,-6.939903729,-96225,1.144786614,15873,22871.09375,28544
-3.890817629,-53948,128,-6.929734579,-96084,128,2.591762852,35936,1.144570249,15870,22890.625,29184
-3.890961872,-53950,128,-6.897568333,-95638,128,-6.938100688,-96200,1.172914049,16263,22910.15625,29824
-3.9213972,-54372,128,-6.909612645,-95805,128,2.395664143,33217,1.174428603,16284,22929.6875,30464
-3.929114214,-54479,128,-6.926561228,-96040,128,-7.080540905,-98175,1.167721292,16191,22949.21875,31104
-3.88908671,-53924,128,-6.932980053,-96129,128,-7.085300933,-98241,1.135410802,15743,22968.75,31744
-3.848049503,-53355,128,-6.915526618,-95887,128,-7.07145358,-98049,1.178972266,16347,22988.28125,32384
-3.854901058,-53450,128,-6.882855521,-95434,128,2.651046831,36758,1.18091955,16374,23007.8125,33024
-3.95637619,-54857,128,-6.952669257,-96402,128,-6.82703338,-94660,1.177962563,16333,23027.34375,33664
-4.004337073,-55522,128,-6.955265636,-96438,128,2.363425775,32770,1.163177629,16128,23046.875,34304
-4.020492318,-55746,128,-6.968247529,-96618,128,-6.950217122,-96368,1.173202535,16267,23066.40625,34944
-4.036575441,-55969,128,-6.992408275,-96953,128,-6.94790923,-96336,1.153585452,15995,23085.9375,35584
-3.829081515,-53092,128,-6.771860334,-93895,128,-7.085805784,-98248,0.001081824,15,23105.46875,36224
-2.846568566,-39469,128,-6.25496462,-86728,128,4.435263805,61497,2.217740085,30750,23125,36864
-4.062250741,-56325,128,-7.121866598,-98748,128,-8.303290999,-115129,0.923084727,12799,23144.53125,37504
-4.042850023,-56056,128,-6.943293446,-96272,128,-6.974522111,-96705,1.179549239,16355,23164.0625,38144
-4.040109401,-56018,128,-6.929157606,-96076,128,2.515458168,34878,1.163177629,16128,23183.59375,38784
-4.038089995,-55990,128,-6.910766591,-95821,128,-6.863815411,-95170,1.180270455,16365,23203.125,39424
-4.046672469,-56109,128,-6.90009259,-95673,128,2.511491479,34823,1.181063793,16376,23222.65625,40064
-4.046095496,-56101,128,-6.881268845,-95412,128,-7.053062564,-97794,1.160797615,16095,23242.1875,40704
-4.049413091,-56147,128,-6.886605845,-95486,128,2.372440979,32895,1.149330276,15936,23261.71875,41344
-4.057130105,-56254,128,-6.867926343,-95227,128,2.363281532,32768,1.144714492,15872,23281.25,41984
-4.017102601,-55699,128,-6.832875232,-94741,128,-7.087608825,-98273,1.181568644,16383,23300.78125,42624
-4.016237142,-55687,128,-6.791116809,-94162,128,-7.089339744,-98297,1.181568644,16383,23320.3125,43264
-3.97231507,-55078,128,-6.754262656,-93651,128,2.378210709,32975,1.179332874,16352,23339.84375,43904
-3.960775609,-54918,128,-6.741497128,-93474,128,2.418526699,33534,1.181063793,16376,23359.375,44544
-3.973108408,-55089,128,-6.736664979,-93407,128,-6.587301086,-91336,1.161374588,16103,23378.90625,45184
-4.043931847,-56071,128,-6.790611957,-94155,128,-7.055226213,-97824,1.162095804,16113,23398.4375,45824
-4.108769191,-56970,128,-6.843116503,-94883,128,2.365517302,32799,1.107932461,15362,23417.96875,46464
-4.167476197,-57784,128,-6.872830614,-95295,128,-6.951298946,-96383,0.577333638,8005,23437.5,47104
-4.191636943,-58119,128,-6.893962251,-95588,128,-7.016280534,-97284,0.563053556,7807,23457.03125,47744
-4.18045809,-57964,128,-6.888120399,-95507,128,2.380085871,33001,0.574665138,7968,23476.5625,48384
-4.204618836,-58299,128,-6.891582238,-95555,128,2.621765449,36352,0.586493085,8132,23496.09375,49024
-4.192141794,-58126,128,-6.871388182,-95275,128,2.640300708,36609,0.562837191,7804,23515.625,49664
-4.15918221,-57669,128,-6.862661465,-95154,128,2.629698828,36462,0.582165787,8072,23535.15625,50304
-4.183703564,-58009,128,-6.873696074,-95307,128,-6.914156307,-95868,0.553821987,7679,23554.6875,50944
