Device,Device,Device,Device,Device,Device,Device,Device
ECG LL-RA,ECG LL-RA,ECG LA-RA,ECG LA-RA,ECG Vx-RL,ECG Vx-RL,Timestamp,Timestamp
RAW,CAL,CAL,RAW,CAL,RAW,RAW,CAL
No Units,mV,mV,No Units,mV,No Units,No Units,mSecs
116563,8.406713415,12.71850499,176348,14.02217555,194424,64,1.953125
116736,8.419190457,12.70732614,176193,14.01763189,194361,128,3.90625
191163,13.78698692,-3.341539304,-46332,14.02217555,194424,192,5.859375
191483,13.81006584,-3.343270224,-46356,-605.0000721,-8388608,256,7.8125
186329,13.43835097,-3.673803648,-50939,-605.0000721,-8388608,320,9.765625
188904,13.62406416,-3.364041253,-46644,-605.0000721,-8388608,384,11.71875
189093,13.63769515,-3.294371759,-45678,-605.0000721,-8388608,448,13.671875
190498,13.73902604,-3.146306055,-43625,-605.0000721,-8388608,512,15.625
190700,13.75359461,-3.021752002,-41898,-605.0000721,-8388608,576,17.578125
189246,13.64872976,-3.089546333,-42838,-605.0000721,-8388608,640,19.53125
188727,13.61129863,-3.151931542,-43703,-605.0000721,-8388608,704,21.484375
188465,13.59240277,-3.071083197,-42582,-605.0000721,-8388608,768,23.4375
185503,13.3787785,-3.290188705,-45620,-605.0000721,-8388608,832,25.390625
185503,13.3787785,-3.290188705,-45620,-605.0000721,-8388608,896,27.34375
185675,13.39118342,-3.16332676,-43861,-605.0000721,-8388608,960,29.296875
189595,13.67390021,-2.81663809,-39054,-605.0000721,-8388608,1024,31.25
186835,13.47484451,-3.132170216,-43429,-605.0000721,-8388608,1088,33.203125
186835,13.47484451,-3.132170216,-43429,-605.0000721,-8388608,1152,35.15625
187917,13.55288011,-2.869791731,-39791,-605.0000721,-8388608,1216,37.109375
187242,13.50419802,-2.882413016,-39966,-605.0000721,-8388608,1280,39.0625
187242,13.50419802,-2.882413016,-39966,-605.0000721,-8388608,1344,41.015625
185187,13.35598807,-2.963982578,-41097,-605.0000721,-8388608,1408,42.96875
185224,13.35865657,-2.886307584,-40020,-605.0000721,-8388608,1472,44.921875
186696,13.46481961,-2.742641299,-38028,-605.0000721,-8388608,1536,46.875
188855,13.6205302,-2.559596605,-35490,-605.0000721,-8388608,1600,48.828125
185412,13.37221543,-2.678236685,-37135,-605.0000721,-8388608,1664,50.78125
184631,13.31588844,-2.621693328,-36351,-605.0000721,-8388608,1728,52.734375
184251,13.28848222,-2.654148061,-36801,-605.0000721,-8388608,1792,54.6875
184421,13.3007429,-2.638425546,-36583,-605.0000721,-8388608,1856,56.640625
183297,13.21967819,-2.640444951,-36611,-605.0000721,-8388608,1920,58.59375
183757,13.25285414,-2.546326226,-35306,-605.0000721,-8388608,1984,60.546875
182073,13.13140132,-2.587868284,-35882,-605.0000721,-8388608,2048,62.5
181652,13.10103811,-2.583324621,-35819,-605.0000721,-8388608,2112,64.453125
181346,13.07896889,-2.474997935,-34317,-605.0000721,-8388608,2176,66.40625
180809,13.04023958,-2.415064861,-33486,-605.0000721,-8388608,2240,68.359375
179917,12.97590708,-2.503630221,-34714,-605.0000721,-8388608,2304,70.3125
179357,12.93551897,-2.421700051,-33578,-605.0000721,-8388608,2368,72.265625
178618,12.88222109,-2.358521504,-32702,-605.0000721,-8388608,2432,74.21875
177684,12.81485949,-2.369988843,-32861,-605.0000721,-8388608,2496,76.171875
177215,12.78103444,-2.27377859,-31527,-605.0000721,-8388608,2560,78.125
176659,12.74093482,-2.297145998,-31851,-605.0000721,-8388608,2624,80.078125
175707,12.67227503,-2.279404077,-31605,-605.0000721,-8388608,2688,82.03125
174915,12.6151547,-2.250266939,-31201,-605.0000721,-8388608,2752,83.984375
174128,12.55839498,-2.246588736,-31150,-605.0000721,-8388608,2816,85.9375
173633,12.52269477,-2.210167314,-30645,-605.0000721,-8388608,2880,87.890625
172973,12.47509449,-2.131915347,-29560,-605.0000721,-8388608,2944,89.84375
172066,12.40968018,-2.115904345,-29338,-605.0000721,-8388608,3008,91.796875
171286,12.35342531,-2.125929251,-29477,-605.0000721,-8388608,3072,93.75
171576,12.37434058,-2.092248451,-29010,-605.0000721,-8388608,3136,95.703125
170367,12.28714553,-2.069818624,-28699,-605.0000721,-8388608,3200,97.65625
168884,12.18018915,-1.971011993,-27329,-605.0000721,-8388608,3264,99.609375
168491,12.15184535,-1.95406341,-27094,-605.0000721,-8388608,3328,101.5625
168361,12.14246954,-1.933148138,-26804,-605.0000721,-8388608,3392,103.515625
167962,12.11369301,-1.944038504,-26955,-605.0000721,-8388608,3456,105.46875
166929,12.03919137,-1.908121933,-26457,-605.0000721,-8388608,3520,107.421875
165644,11.94651508,-1.820854762,-25247,-605.0000721,-8388608,3584,109.375
165096,11.90699242,-1.864271982,-25849,-605.0000721,-8388608,3648,111.328125
164704,11.87872075,-1.794314002,-24879,-605.0000721,-8388608,3712,113.28125
164655,11.87518679,-1.820566275,-25243,-605.0000721,-8388608,3776,115.234375
164601,11.87129222,-1.76633081,-24491,-605.0000721,-8388608,3840,117.1875
163970,11.82578347,-1.680289707,-23298,-605.0000721,-8388608,3904,119.140625
163546,11.7952039,-1.719884481,-23847,-605.0000721,-8388608,3968,121.09375
163673,11.80436335,-1.657787759,-22986,-605.0000721,-8388608,4032,123.046875
162818,11.74269935,-1.709787453,-23707,-605.0000721,-8388608,4096,125
162436,11.71514889,-1.560279317,-21634,-605.0000721,-8388608,4160,126.953125
162405,11.71291312,-1.646681028,-22832,-605.0000721,-8388608,4224,128.90625
162101,11.69098815,-1.537993734,-21325,-605.0000721,-8388608,4288,130.859375
162526,11.72163984,-1.51303965,-20979,-605.0000721,-8388608,4352,132.8125
162371,11.71046099,-1.491475283,-20680,-605.0000721,-8388608,4416,134.765625
162262,11.70259973,-1.528329435,-21191,-605.0000721,-8388608,4480,136.71875
161530,11.6498067,-1.413151194,-19594,-605.0000721,-8388608,4544,138.671875
161206,11.62643929,-1.422022155,-19717,-605.0000721,-8388608,4608,140.625
161132,11.62110229,-1.321340361,-18321,-605.0000721,-8388608,4672,142.578125
160910,11.60509129,-1.356030864,-18802,-605.0000721,-8388608,4736,144.53125
160883,11.603144,-1.37398915,-19051,-605.0000721,-8388608,4800,146.484375
160546,11.57883901,-1.247415691,-17296,-605.0000721,-8388608,4864,148.4375
160406,11.56874199,-1.274461302,-17671,-605.0000721,-8388608,4928,150.390625
160228,11.55590434,-1.188348077,-16477,-605.0000721,-8388608,4992,152.34375
160415,11.56939108,-1.226572541,-17007,-605.0000721,-8388608,5056,154.296875
159793,11.52453143,-1.129496828,-15661,-605.0000721,-8388608,5120,156.25
159906,11.53268117,-1.176736495,-16316,-605.0000721,-8388608,5184,158.203125
158846,11.45623224,-1.116587057,-15482,-605.0000721,-8388608,5248,160.15625
158489,11.43048482,-1.13620414,-15754,-605.0000721,-8388608,5312,162.109375
158264,11.41425746,-1.068409809,-14814,-605.0000721,-8388608,5376,164.0625
158969,11.4651032,-1.019006493,-14129,-605.0000721,-8388608,5440,166.015625
158009,11.39586644,-0.989364504,-13718,-605.0000721,-8388608,5504,167.96875
157864,11.38540881,-1.03126717,-14299,-605.0000721,-8388608,5568,169.921875
158143,11.40553074,-0.915872564,-12699,-605.0000721,-8388608,5632,171.875
158897,11.45991045,-0.919478645,-12749,-605.0000721,-8388608,5696,173.828125
158448,11.42752784,-0.896255481,-12427,-605.0000721,-8388608,5760,175.78125
158766,11.45046251,-0.893947589,-12395,-605.0000721,-8388608,5824,177.734375
159576,11.50888103,-0.838558178,-11627,-605.0000721,-8388608,5888,179.6875
158770,11.450751,-0.806247688,-11179,-605.0000721,-8388608,5952,181.640625
158956,11.46416562,-0.736650316,-10214,-605.0000721,-8388608,6016,183.59375
159156,11.47858995,-0.760161967,-10540,-605.0000721,-8388608,6080,185.546875
159446,11.49950522,-0.764561387,-10601,-605.0000721,-8388608,6144,187.5
160593,11.58222873,-0.627674535,-8703,-605.0000721,-8388608,6208,189.453125
159856,11.52907509,-0.650825578,-9024,-605.0000721,-8388608,6272,191.40625
160698,11.5898015,-0.665033539,-9221,-605.0000721,-8388608,6336,193.359375
160023,11.5411194,-0.62125571,-8614,-605.0000721,-8388608,6400,195.3125
160434,11.57076139,-0.572789976,-7942,-605.0000721,-8388608,6464,197.265625
160605,11.58309419,-0.570049354,-7904,-605.0000721,-8388608,6528,199.21875
160713,11.59088333,-0.562837191,-7804,-605.0000721,-8388608,6592,201.171875
160643,11.58583481,-0.466194208,-6464,-605.0000721,-8388608,6656,203.125
160376,11.56657834,-0.507303537,-7034,-605.0000721,-8388608,6720,205.078125
160401,11.56838138,-0.436407976,-6051,-605.0000721,-8388608,6784,207.03125
160430,11.5704729,-0.353395981,-4900,-605.0000721,-8388608,6848,208.984375
160184,11.55273098,-0.404169608,-5604,-605.0000721,-8388608,6912,210.9375
160254,11.5577795,-0.34849171,-4832,-605.0000721,-8388608,6976,212.890625
160358,11.56528015,-0.306156314,-4245,-605.0000721,-8388608,7040,214.84375
159854,11.52893085,-0.239948659,-3327,-605.0000721,-8388608,7104,216.796875
160002,11.53960485,-0.218961265,-3036,-605.0000721,-8388608,7168,218.75
159695,11.51746351,-0.174750707,-2423,-605.0000721,-8388608,7232,220.703125
159388,11.49532217,-0.178645274,-2477,-605.0000721,-8388608,7296,222.65625
158976,11.46560806,-0.09520055,-1320,-605.0000721,-8388608,7360,224.609375
160379,11.5667947,-0.154484529,-2142,-605.0000721,-8388608,7424,226.5625
159938,11.53498906,-0.0850314,-1179,-605.0000721,-8388608,7488,228.515625
160409,11.56895835,-0.024954084,-346,-605.0000721,-8388608,7552,230.46875
160289,11.56030375,-0.0310123,-430,-605.0000721,-8388608,7616,232.421875
159926,11.5341236,0.036277179,503,-605.0000721,-8388608,7680,234.375
159678,11.51623744,0.028704408,398,-605.0000721,-8388608,7744,236.328125
159831,11.52727205,0.091738712,1272,-605.0000721,-8388608,7808,238.28125
160347,11.56448681,0.094262969,1307,-605.0000721,-8388608,7872,240.234375
159568,11.50830406,0.152465123,2114,-605.0000721,-8388608,7936,242.1875
159554,11.50729436,0.146334785,2029,-605.0000721,-8388608,8000,244.140625
159693,11.51731926,0.210450913,2918,-605.0000721,-8388608,8064,246.09375
159794,11.52460355,0.209080602,2899,-605.0000721,-8388608,8128,248.046875
159739,11.52063686,0.269302162,3734,-605.0000721,-8388608,8192,250
159861,11.5294357,0.240237145,3331,-605.0000721,-8388608,8256,251.953125
160488,11.57465596,0.320292153,4441,-605.0000721,-8388608,8320,253.90625
160217,11.555111,0.400347161,5551,-605.0000721,-8388608,8384,255.859375
160273,11.55914981,0.360824509,5003,-605.0000721,-8388608,8448,257.8125
160259,11.55814011,0.464246924,6437,-605.0000721,-8388608,8512,259.765625
160435,11.57083351,0.439869814,6099,-605.0000721,-8388608,8576,261.71875
160636,11.58532996,0.501822293,6958,-605.0000721,-8388608,8640,263.671875
160232,11.55619282,0.469439682,6509,-605.0000721,-8388608,8704,265.625
161276,11.6314878,0.568895408,7888,-605.0000721,-8388608,8768,267.578125
161575,11.65305217,0.526415768,7299,-605.0000721,-8388608,8832,269.53125
160897,11.60415371,0.633155779,8779,-605.0000721,-8388608,8896,271.484375
161321,11.63473328,0.626376346,8685,-605.0000721,-8388608,8960,273.4375
161312,11.63408418,0.661211093,9168,-605.0000721,-8388608,9024,275.390625
162592,11.72639987,0.630198792,8738,-605.0000721,-8388608,9088,277.34375
161892,11.67591473,0.696334326,9655,-605.0000721,-8388608,9152,279.296875
162052,11.68745419,0.769465657,10669,-605.0000721,-8388608,9216,281.25
163089,11.76224432,0.789371227,10945,-605.0000721,-8388608,9280,283.203125
162442,11.71558162,0.809709526,11227,-605.0000721,-8388608,9344,285.15625
162548,11.72322651,0.870363816,12068,-605.0000721,-8388608,9408,287.109375
162628,11.72899624,0.832788447,11547,-605.0000721,-8388608,9472,289.0625
163808,11.81409977,0.945298188,13107,-605.0000721,-8388608,9536,291.015625
163086,11.76202795,0.90772282,12586,-605.0000721,-8388608,9600,292.96875
163450,11.78828022,0.955900068,13254,-605.0000721,-8388608,9664,294.921875
163584,11.79794452,1.009053708,13991,-605.0000721,-8388608,9728,296.875
163996,11.82765863,1.032853846,14321,-605.0000721,-8388608,9792,298.828125
163913,11.82167254,1.042013293,14448,-605.0000721,-8388608,9856,300.78125
163875,11.81893192,1.056870348,14654,-605.0000721,-8388608,9920,302.734375
164137,11.83782778,1.101080907,15267,-605.0000721,-8388608,9984,304.6875
164963,11.89740025,1.174644968,16287,-605.0000721,-8388608,10048,306.640625
165224,11.91622399,1.16411521,16141,-605.0000721,-8388608,10112,308.59375
165729,11.95264542,1.238905339,17178,-605.0000721,-8388608,10176,310.546875
165759,11.95480906,1.229241041,17044,-605.0000721,-8388608,10240,312.5
166033,11.97457039,1.23053923,17062,-605.0000721,-8388608,10304,314.453125
166539,12.01106393,1.282899533,17788,-605.0000721,-8388608,10368,316.40625
167156,12.05556298,1.328552524,18421,-605.0000721,-8388608,10432,318.359375
167608,12.08816196,1.396635341,19365,-605.0000721,-8388608,10496,320.3125
168744,12.17009213,1.37045519,19002,-605.0000721,-8388608,10560,322.265625
169816,12.24740651,1.451159293,20121,-605.0000721,-8388608,10624,324.21875
170152,12.27163938,1.454981739,20174,-605.0000721,-8388608,10688,326.171875
170204,12.2753897,1.487003742,20618,-605.0000721,-8388608,10752,328.125
170939,12.3283991,1.532296125,21246,-605.0000721,-8388608,10816,330.078125
171664,12.38068728,1.592373442,22079,-605.0000721,-8388608,10880,332.03125
172494,12.44054823,1.606797767,22279,-605.0000721,-8388608,10944,333.984375
173562,12.51757413,1.593311023,22092,-605.0000721,-8388608,11008,335.9375
174171,12.56149621,1.674592099,23219,-605.0000721,-8388608,11072,337.890625
175334,12.64537366,1.699257696,23561,-605.0000721,-8388608,11136,339.84375
175587,12.66362043,1.714619603,23774,-605.0000721,-8388608,11200,341.796875
175338,12.64566215,1.705171669,23643,-605.0000721,-8388608,11264,343.75
176199,12.70775887,1.806430436,25047,-605.0000721,-8388608,11328,345.703125
176918,12.75961432,1.76986477,24540,-605.0000721,-8388608,11392,347.65625
177595,12.80844066,1.841409426,25532,-605.0000721,-8388608,11456,349.609375
177924,12.83216868,1.850280386,25655,-605.0000721,-8388608,11520,351.5625
178893,12.90205454,1.869825348,25926,-605.0000721,-8388608,11584,353.515625
179529,12.94792389,1.929614178,26755,-605.0000721,-8388608,11648,355.46875
180306,13.0039624,1.967478033,27280,-605.0000721,-8388608,11712,357.421875
181074,13.05935181,1.950240964,27041,-605.0000721,-8388608,11776,359.375
181669,13.10226418,2.067510732,28667,-605.0000721,-8388608,11840,361.328125
182126,13.13522376,2.084026585,28896,-605.0000721,-8388608,11904,363.28125
182489,13.16140391,2.070179232,28704,-605.0000721,-8388608,11968,365.234375
183036,13.20085444,2.15730216,29912,-605.0000721,-8388608,12032,367.1875
183684,13.24758926,2.179804108,30224,-605.0000721,-8388608,12096,369.140625
183551,13.23799708,2.185718082,30306,-605.0000721,-8388608,12160,371.09375
184146,13.28090945,2.257695467,31304,-605.0000721,-8388608,12224,373.046875
185033,13.34488134,2.273994955,31530,-605.0000721,-8388608,12288,375
185756,13.39702527,2.278466496,31592,-605.0000721,-8388608,12352,376.953125
184928,13.33730857,2.311137594,32045,-605.0000721,-8388608,12416,378.90625
185503,13.3787785,2.388524102,33118,-605.0000721,-8388608,12480,380.859375
186136,13.42443149,2.383403466,33047,-605.0000721,-8388608,12544,382.8125
186238,13.4317879,2.400496292,33284,-605.0000721,-8388608,12608,384.765625
185324,13.36586873,2.451630527,33993,-605.0000721,-8388608,12672,386.71875
186422,13.44505828,2.494759261,34591,-605.0000721,-8388608,12736,388.671875
185241,13.35988264,2.551879591,35383,-605.0000721,-8388608,12800,390.625
186301,13.43633156,2.534498278,35142,-605.0000721,-8388608,12864,392.578125
185446,13.37466757,2.606547786,36141,-605.0000721,-8388608,12928,394.53125
185918,13.40870898,2.609576894,36183,-605.0000721,-8388608,12992,396.484375
185557,13.38267307,2.685593091,37237,-605.0000721,-8388608,13056,398.4375
185401,13.3714221,2.699224079,37426,-605.0000721,-8388608,13120,400.390625
185432,13.37365787,2.718480553,37693,-605.0000721,-8388608,13184,402.34375
185484,13.37740819,2.740694015,38001,-605.0000721,-8388608,13248,404.296875
185682,13.39168827,2.816998698,39059,-605.0000721,-8388608,13312,406.25
185654,13.38966887,2.834019403,39295,-605.0000721,-8388608,13376,408.203125
185755,13.39695315,2.866185649,39741,-605.0000721,-8388608,13440,410.15625
185912,13.40827625,2.90917014,40337,-605.0000721,-8388608,13504,412.109375
185736,13.39558284,2.950928563,40916,-605.0000721,-8388608,13568,414.0625
185418,13.37264816,2.938307278,40741,-605.0000721,-8388608,13632,416.015625
185280,13.36269538,3.000764608,41607,-605.0000721,-8388608,13696,417.96875
184863,13.33262066,3.007255555,41697,-605.0000721,-8388608,13760,419.921875
184161,13.28199128,3.052836424,42329,-605.0000721,-8388608,13824,421.875
183428,13.22912612,3.093224537,42889,-605.0000721,-8388608,13888,423.828125
182626,13.17128458,3.129213229,43388,-605.0000721,-8388608,13952,425.78125
181556,13.09411443,3.178977153,44078,-605.0000721,-8388608,14016,427.734375
180234,12.99876964,3.190444492,44237,-605.0000721,-8388608,14080,429.6875
179247,12.92758559,3.207537318,44474,-605.0000721,-8388608,14144,431.640625
177821,12.82474015,3.252396971,45096,-605.0000721,-8388608,14208,433.59375
176604,12.73696813,3.307930625,45866,-605.0000721,-8388608,14272,435.546875
176378,12.72066864,3.346371454,46399,-605.0000721,-8388608,14336,437.5
174212,12.56445319,3.361589117,46610,-605.0000721,-8388608,14400,439.453125
173001,12.4771139,3.406737257,47236,-605.0000721,-8388608,14464,441.40625
171095,12.33965008,3.439408355,47689,-605.0000721,-8388608,14528,443.359375
169869,12.25122896,3.507563294,48634,-605.0000721,-8388608,14592,445.3125
169220,12.20442202,3.506769956,48623,-605.0000721,-8388608,14656,447.265625
167164,12.05613995,3.55033142,49227,-605.0000721,-8388608,14720,449.21875
166190,11.98589349,3.554442353,49284,-605.0000721,-8388608,14784,451.171875
164619,11.87259041,3.595551681,49854,-605.0000721,-8388608,14848,453.125
164773,11.88369714,3.613293602,50100,-605.0000721,-8388608,14912,455.078125
162529,11.7218562,3.639906483,50469,-605.0000721,-8388608,14976,457.03125
161036,11.61417861,3.673803648,50939,-605.0000721,-8388608,15040,458.984375
160102,11.54681701,3.728399721,51696,-605.0000721,-8388608,15104,460.9375
159642,11.51364106,3.740155547,51859,-605.0000721,-8388608,15168,462.890625
158152,11.40617983,3.788404916,52528,-605.0000721,-8388608,15232,464.84375
157025,11.32489876,3.802684999,52726,-605.0000721,-8388608,15296,466.796875
156414,11.28083244,3.836221556,53191,-605.0000721,-8388608,15360,468.75
155391,11.20705202,3.853386504,53429,-605.0000721,-8388608,15424,470.703125
154990,11.17813124,3.925147524,54424,-605.0000721,-8388608,15488,472.65625
153733,11.08747436,3.911083807,54229,-605.0000721,-8388608,15552,474.609375
152968,11.03230131,3.981763003,55209,-605.0000721,-8388608,15616,476.5625
152302,10.98426831,4.000442505,55468,-605.0000721,-8388608,15680,478.515625
151593,10.93313407,4.007654668,55568,-605.0000721,-8388608,15744,480.46875
151945,10.95852088,4.029868129,55876,-605.0000721,-8388608,15808,482.421875
150928,10.88517319,4.078766594,56554,-605.0000721,-8388608,15872,484.375
150706,10.86916219,4.091171514,56726,-605.0000721,-8388608,15936,486.328125
150358,10.84406386,4.105812205,56929,-605.0000721,-8388608,16000,488.28125
149806,10.80425272,4.188463591,58075,-605.0000721,-8388608,16064,490.234375
149598,10.78925142,4.183342956,58004,-605.0000721,-8388608,16128,492.1875
149740,10.79949269,4.178078077,57931,-605.0000721,-8388608,16192,494.140625
149878,10.80944548,4.244934826,58858,-605.0000721,-8388608,16256,496.09375
150186,10.83165894,4.254166395,58986,-605.0000721,-8388608,16320,498.046875
150091,10.82480738,4.294338142,59543,-605.0000721,-8388608,16384,500
150302,10.84002505,4.345472377,60252,-605.0000721,-8388608,16448,501.953125
151024,10.89209686,4.313883104,59814,-605.0000721,-8388608,16512,503.90625
151080,10.89613568,4.358237905,60429,-605.0000721,-8388608,16576,505.859375
151466,10.92397462,4.421200087,61302,-605.0000721,-8388608,16640,507.8125
151933,10.95765542,4.42307525,61328,-605.0000721,-8388608,16704,509.765625
153309,11.05689479,4.452212388,61732,-605.0000721,-8388608,16768,511.71875
153224,11.05076445,4.467790659,61948,-605.0000721,-8388608,16832,513.671875
153539,11.07348276,4.505943001,62477,-605.0000721,-8388608,16896,515.625
153971,11.1046393,4.564650007,63291,-605.0000721,-8388608,16960,517.578125
155325,11.20229199,4.583762238,63556,-605.0000721,-8388608,17024,519.53125
154611,11.15079715,4.594364118,63703,-605.0000721,-8388608,17088,521.484375
154941,11.17459728,4.634968595,64266,-605.0000721,-8388608,17152,523.4375
155952,11.24751225,4.645570474,64413,-605.0000721,-8388608,17216,525.390625
155059,11.18310764,4.689059816,65016,-605.0000721,-8388608,17280,527.34375
155060,11.18317976,4.696921074,65125,-605.0000721,-8388608,17344,529.296875
155115,11.18714645,4.725841847,65526,-605.0000721,-8388608,17408,531.25
155604,11.22241392,4.737525551,65688,-605.0000721,-8388608,17472,533.203125
156503,11.28725127,4.760027499,66000,-605.0000721,-8388608,17536,535.15625
155946,11.24707952,4.781231258,66294,-605.0000721,-8388608,17600,537.109375
155964,11.24837771,4.80697868,66651,-605.0000721,-8388608,17664,539.0625
156067,11.25580624,4.852631671,67284,-605.0000721,-8388608,17728,541.015625
156874,11.31400839,4.848737103,67230,-605.0000721,-8388608,17792,542.96875
156518,11.28833309,4.889918553,67801,-605.0000721,-8388608,17856,544.921875
156556,11.29107371,4.928647867,68338,-605.0000721,-8388608,17920,546.875
157438,11.35468499,4.937879436,68466,-605.0000721,-8388608,17984,548.828125
157611,11.36716203,4.980359075,69055,-605.0000721,-8388608,18048,550.78125
157723,11.37523966,4.994134306,69246,-605.0000721,-8388608,18112,552.734375
158067,11.4000495,5.005168915,69399,-605.0000721,-8388608,18176,554.6875
158485,11.43019634,5.065318354,70233,-605.0000721,-8388608,18240,556.640625
158355,11.42082052,5.059548624,70153,-605.0000721,-8388608,18304,558.59375
158894,11.45969408,5.084286342,70496,-605.0000721,-8388608,18368,560.546875
159478,11.50181311,5.079598436,70431,-605.0000721,-8388608,18432,562.5
158937,11.46279531,5.149412173,71399,-605.0000721,-8388608,18496,564.453125
159234,11.48421544,5.151864308,71433,-605.0000721,-8388608,18560,566.40625
159299,11.48890334,5.179703257,71819,-605.0000721,-8388608,18624,568.359375
159815,11.5261181,5.206532503,72191,-605.0000721,-8388608,18688,570.3125
159915,11.53333027,5.238482385,72634,-605.0000721,-8388608,18752,572.265625
159601,11.51068407,5.260984333,72946,-605.0000721,-8388608,18816,574.21875
159661,11.51501137,5.296684539,73441,-605.0000721,-8388608,18880,576.171875
160366,11.56585712,5.310099162,73627,-605.0000721,-8388608,18944,578.125
159156,11.47858995,5.340173881,74044,-605.0000721,-8388608,19008,580.078125
158764,11.45031827,5.39678936,74829,-605.0000721,-8388608,19072,582.03125
158373,11.42211871,5.404722739,74939,-605.0000721,-8388608,19136,583.984375
158365,11.42154174,5.435302309,75363,-605.0000721,-8388608,19200,585.9375
157999,11.39514522,5.439341121,75419,-605.0000721,-8388608,19264,587.890625
158113,11.40336709,5.478575287,75963,-605.0000721,-8388608,19328,589.84375
157667,11.37120084,5.510020317,76399,-605.0000721,-8388608,19392,591.796875
156994,11.32266299,5.542547171,76850,-605.0000721,-8388608,19456,593.75
156801,11.30874351,5.56194789,77119,-605.0000721,-8388608,19520,595.703125
156366,11.27737061,5.582646797,77406,-605.0000721,-8388608,19584,597.65625
155678,11.22775092,5.592599582,77544,-605.0000721,-8388608,19648,599.609375
154763,11.16175963,5.62216945,77954,-605.0000721,-8388608,19712,601.5625
154439,11.13839223,5.637314992,78164,-605.0000721,-8388608,19776,603.515625
153996,11.10644234,5.647267776,78302,-605.0000721,-8388608,19840,605.46875
153989,11.10593749,5.699411714,79025,-605.0000721,-8388608,19904,607.421875
153754,11.08898891,5.704748715,79099,-605.0000721,-8388608,19968,609.375
154633,11.15238382,5.721985784,79338,-605.0000721,-8388608,20032,611.328125
154283,11.12714125,5.741098015,79603,-605.0000721,-8388608,20096,613.28125
153331,11.05848146,5.762373896,79898,-605.0000721,-8388608,20160,615.234375
153353,11.06006814,5.779971573,80142,-605.0000721,-8388608,20224,617.1875
153704,11.08538283,5.819205739,80686,-605.0000721,-8388608,20288,619.140625
154099,11.11387087,5.857502324,81217,-605.0000721,-8388608,20352,621.09375
153637,11.08055068,5.871638164,81413,-605.0000721,-8388608,20416,623.046875
153379,11.0619433,5.89139949,81687,-605.0000721,-8388608,20480,625
154153,11.11776544,5.901496518,81827,-605.0000721,-8388608,20544,626.953125
153301,11.05631781,5.922339669,82116,-605.0000721,-8388608,20608,628.90625
153384,11.06230391,5.955371375,82574,-605.0000721,-8388608,20672,630.859375
153308,11.05682266,5.984941242,82984,-605.0000721,-8388608,20736,632.8125
153358,11.06042875,6.018910529,83455,-605.0000721,-8388608,20800,634.765625
153169,11.04679776,6.023959043,83525,-605.0000721,-8388608,20864,636.71875
153285,11.05516387,6.024752381,83536,-605.0000721,-8388608,20928,638.671875
153171,11.046942,6.065284737,84098,-605.0000721,-8388608,20992,640.625
153321,11.05776025,6.087714563,84409,-605.0000721,-8388608,21056,642.578125
153476,11.0689391,6.112235917,84749,-605.0000721,-8388608,21120,644.53125
153521,11.07218457,6.133439676,85043,-605.0000721,-8388608,21184,646.484375
153812,11.09317197,6.149955529,85272,-605.0000721,-8388608,21248,648.4375
153982,11.10543264,6.193516993,85876,-605.0000721,-8388608,21312,650.390625
154304,11.12865581,6.210249211,86108,-605.0000721,-8388608,21376,652.34375
154693,11.15671112,6.231669334,86405,-605.0000721,-8388608,21440,654.296875
154836,11.16702451,6.248257309,86635,-605.0000721,-8388608,21504,656.25
155873,11.24181464,6.251070053,86674,-605.0000721,-8388608,21568,658.203125
155968,11.2486662,6.261094959,86813,-605.0000721,-8388608,21632,660.15625
156453,11.28364519,6.288717543,87196,-605.0000721,-8388608,21696,662.109375
156867,11.31350354,6.332134763,87798,-605.0000721,-8388608,21760,664.0625
157682,11.37228267,6.338409345,87885,-605.0000721,-8388608,21824,666.015625
158494,11.43084543,6.365599199,88262,-605.0000721,-8388608,21888,667.96875
158612,11.43935578,6.392067837,88629,-605.0000721,-8388608,21952,669.921875
160304,11.56138558,6.417743137,88985,-605.0000721,-8388608,22016,671.875
159858,11.52921933,6.443779045,89346,-605.0000721,-8388608,22080,673.828125
160738,11.59268637,6.4532991,89478,-605.0000721,-8388608,22144,675.78125
161674,11.66019221,6.482003508,89876,-605.0000721,-8388608,22208,677.734375
162690,11.73346779,6.498591482,90106,-605.0000721,-8388608,22272,679.6875
163446,11.78799174,6.500827253,90137,-605.0000721,-8388608,22336,681.640625
164699,11.87836014,6.567034908,91055,-605.0000721,-8388608,22400,683.59375
165926,11.96685338,6.565015503,91027,-605.0000721,-8388608,22464,685.546875
166672,12.02065611,6.586507748,91325,-605.0000721,-8388608,22528,687.5
167911,12.11001481,6.630790428,91939,-605.0000721,-8388608,22592,689.453125
169061,12.19295468,6.641103821,92082,-605.0000721,-8388608,22656,691.40625
170668,12.30885414,6.669447621,92475,-605.0000721,-8388608,22720,693.359375
171846,12.39381342,6.691661083,92783,-605.0000721,-8388608,22784,695.3125
173378,12.50430375,6.693175637,92804,-605.0000721,-8388608,22848,697.265625
174486,12.58421452,6.718201842,93151,-605.0000721,-8388608,22912,699.21875
175744,12.67494353,6.759527535,93724,-605.0000721,-8388608,22976,701.171875
176913,12.75925371,6.775754902,93949,-605.0000721,-8388608,23040,703.125
177870,12.82827411,6.788159822,94121,-605.0000721,-8388608,23104,705.078125
178858,12.89953028,6.82746611,94666,-605.0000721,-8388608,23168,707.03125
179842,12.97049796,6.835183124,94773,-605.0000721,-8388608,23232,708.984375
180759,13.0366335,6.86821483,95231,-605.0000721,-8388608,23296,710.9375
181877,13.11726548,6.883144007,95438,-605.0000721,-8388608,23360,712.890625
182905,13.19140651,6.91869997,95931,-605.0000721,-8388608,23424,714.84375
184203,13.28502039,6.944447392,96288,-605.0000721,-8388608,23488,716.796875
183620,13.24297348,6.964280839,96563,-605.0000721,-8388608,23552,718.75
184646,13.31697027,6.997096181,97018,-605.0000721,-8388608,23616,720.703125
184949,13.33882312,7.011953236,97224,-605.0000721,-8388608,23680,722.65625
185962,13.41188233,7.033229117,97519,-605.0000721,-8388608,23744,724.609375
187153,13.49777919,7.072174796,98059,-605.0000721,-8388608,23808,726.5625
186789,13.47152692,7.078449378,98146,-605.0000721,-8388608,23872,728.515625
187202,13.50131315,7.107153786,98544,-605.0000721,-8388608,23936,730.46875
188925,13.62557872,7.13701214,98958,-605.0000721,-8388608,24000,732.421875
188436,13.59031124,7.169538995,99409,-605.0000721,-8388608,24064,734.375
189064,13.63560362,7.198748255,99814,-605.0000721,-8388608,24128,736.328125
190498,13.73902604,7.227164176,100208,-605.0000721,-8388608,24192,738.28125
189728,13.68349238,7.270365032,100807,-605.0000721,-8388608,24256,740.234375
190050,13.70671555,7.272384438,100835,-605.0000721,-8388608,24320,742.1875
190463,13.73650178,7.315657415,101435,-605.0000721,-8388608,24384,744.140625
191739,13.82852898,7.332245389,101665,-605.0000721,-8388608,24448,746.09375
191273,13.7949203,7.36859469,102169,-605.0000721,-8388608,24512,748.046875
192028,13.84937213,7.379052327,102314,-605.0000721,-8388608,24576,750
191561,13.81569133,7.424272588,102941,-605.0000721,-8388608,24640,751.953125
192041,13.85030971,7.443529063,103208,-605.0000721,-8388608,24704,753.90625
193178,13.932312,7.452976996,103339,-605.0000721,-8388608,24768,755.859375
192833,13.90743004,7.481753526,103738,-605.0000721,-8388608,24832,757.8125
194011,13.99238932,7.503534258,104040,-605.0000721,-8388608,24896,759.765625
193498,13.95539092,7.537142937,104506,-605.0000721,-8388608,24960,761.71875
194434,14.02289677,7.559284277,104813,-605.0000721,-8388608,25024,763.671875
193848,13.98063349,7.596066308,105323,-605.0000721,-8388608,25088,765.625
194113,13.99974573,7.615611269,105594,-605.0000721,-8388608,25152,767.578125
194143,14.00190938,7.62715073,105754,-605.0000721,-8388608,25216,769.53125
194944,14.0596788,7.630901054,105806,-605.0000721,-8388608,25280,771.484375
194969,14.06148184,7.682251654,106518,-605.0000721,-8388608,25344,773.4375
195979,14.13432469,7.698695385,106746,-605.0000721,-8388608,25408,775.390625
195829,14.12350644,7.749757498,107454,-605.0000721,-8388608,25472,777.34375
196144,14.14622475,7.775432798,107810,-605.0000721,-8388608,25536,779.296875
196436,14.16728427,7.800603247,108159,-605.0000721,-8388608,25600,781.25
198114,14.28830436,7.808536626,108269,-605.0000721,-8388608,25664,783.203125
197336,14.23219374,7.845967751,108788,-605.0000721,-8388608,25728,785.15625
197738,14.26118663,7.875537619,109198,-605.0000721,-8388608,25792,787.109375
198172,14.29248742,7.903304446,109583,-605.0000721,-8388608,25856,789.0625
199141,14.36237328,7.926527611,109905,-605.0000721,-8388608,25920,791.015625
198896,14.34470348,7.952563519,110266,-605.0000721,-8388608,25984,792.96875
199564,14.39288073,7.955592627,110308,-605.0000721,-8388608,26048,794.921875
199506,14.38869767,7.98761463,110752,-605.0000721,-8388608,26112,796.875
200028,14.42634516,8.015165092,111134,-605.0000721,-8388608,26176,798.828125
200921,14.49074978,8.026055458,111285,-605.0000721,-8388608,26240,800.78125
200637,14.47026723,8.065505989,111832,-605.0000721,-8388608,26304,802.734375
200551,14.46406477,8.081949721,112060,-605.0000721,-8388608,26368,804.6875
200936,14.4918316,8.122626319,112624,-605.0000721,-8388608,26432,806.640625
202054,14.57246358,8.134742753,112792,-605.0000721,-8388608,26496,808.59375
201335,14.52060813,8.16914477,113269,-605.0000721,-8388608,26560,810.546875
202324,14.59193642,8.186093353,113504,-605.0000721,-8388608,26624,812.5
201741,14.54988951,8.219846275,113972,-605.0000721,-8388608,26688,814.453125
201871,14.55926532,8.246314913,114339,-605.0000721,-8388608,26752,816.40625
203406,14.66997202,8.396832752,116426,-605.0000721,-8388608,26816,818.359375
201581,14.53835005,8.281438146,114826,-605.0000721,-8388608,26880,820.3125
202479,14.60311527,8.232539681,114148,-605.0000721,-8388608,26944,822.265625
200599,14.46752661,8.104235304,112369,-605.0000721,-8388608,27008,824.21875
207369,14.95579004,8.760902734,121474,-605.0000721,-8388608,27072,826.171875
200671,14.47271937,8.117577805,112554,-605.0000721,-8388608,27136,828.125
204957,14.78183267,8.524055305,118190,-605.0000721,-8388608,27200,830.078125
204617,14.75731132,8.504943073,117925,-605.0000721,-8388608,27264,832.03125
201550,14.53611428,8.254104049,114447,-605.0000721,-8388608,27328,833.984375
206986,14.92816745,8.735083191,121116,-605.0000721,-8388608,27392,835.9375
205913,14.85078095,8.609447313,119374,-605.0000721,-8388608,27456,837.890625
205983,14.85582946,8.535017793,118342,-605.0000721,-8388608,27520,839.84375
204819,14.77187988,8.487201153,117679,-605.0000721,-8388608,27584,841.796875
205496,14.82070623,8.560909457,118701,-605.0000721,-8388608,27648,843.75
205691,14.83476994,8.608726097,119364,-605.0000721,-8388608,27712,845.703125
207053,14.9329996,8.778716776,121721,-605.0000721,-8388608,27776,847.65625
207649,14.97598409,8.870311245,122991,-605.0000721,-8388608,27840,849.609375
205819,14.84400151,8.799415684,122008,-605.0000721,-8388608,27904,851.5625
205313,14.80750797,8.731477109,121066,-605.0000721,-8388608,27968,853.515625
205155,14.79611275,8.78196225,121766,-605.0000721,-8388608,28032,855.46875
202394,14.59698493,8.625458315,119596,-605.0000721,-8388608,28096,857.421875
202394,14.59698493,8.625458315,119596,-605.0000721,-8388608,28160,859.375
203226,14.65699013,8.874638542,123051,-605.0000721,-8388608,28224,861.328125
205802,14.84277545,9.1579323,126979,-605.0000721,-8388608,28288,863.28125
197718,14.2597442,8.570357391,118832,-605.0000721,-8388608,28352,865.234375
201372,14.52327663,8.91127633,123559,-605.0000721,-8388608,28416,867.1875
197997,14.27986613,8.837856512,122541,-605.0000721,-8388608,28480,869.140625
197997,14.27986613,8.837856512,122541,-605.0000721,-8388608,28544,871.09375
198144,14.29046801,8.970704552,124383,-605.0000721,-8388608,28608,873.046875
195986,14.13482954,8.886394368,123214,-605.0000721,-8388608,28672,875
195934,14.13107921,9.016573908,125019,-605.0000721,-8388608,28736,876.953125
198358,14.30590204,9.354391617,129703,-605.0000721,-8388608,28800,878.90625
195554,14.10367299,9.258253486,128370,-605.0000721,-8388608,28864,880.859375
194810,14.0500145,9.169904491,127145,-605.0000721,-8388608,28928,882.8125
193937,13.98705232,9.247435242,128220,-605.0000721,-8388608,28992,884.765625
192788,13.90418457,9.211807157,127726,-605.0000721,-8388608,29056,886.71875
191175,13.78785238,9.228611497,127959,-605.0000721,-8388608,29120,888.671875
190306,13.72517869,9.281693015,128695,-605.0000721,-8388608,29184,890.625
189171,13.64332064,9.372422024,129953,-605.0000721,-8388608,29248,892.578125
188114,13.56708808,9.326985398,129323,-605.0000721,-8388608,29312,894.53125
187122,13.49554342,9.398746419,130318,-605.0000721,-8388608,29376,896.484375
185776,13.39846771,9.4023525,130368,-605.0000721,-8388608,29440,898.4375
184312,13.29288164,9.378985093,130044,-605.0000721,-8388608,29504,900.390625
182854,13.18772831,9.474113521,131363,-605.0000721,-8388608,29568,902.34375
181591,13.09663869,9.500510037,131729,-605.0000721,-8388608,29632,904.296875
180491,13.0173049,9.528132621,132112,-605.0000721,-8388608,29696,906.25
179788,12.96660339,9.506784619,131816,-605.0000721,-8388608,29760,908.203125
178378,12.8649119,9.552149123,132445,-605.0000721,-8388608,29824,910.15625
176884,12.75716218,9.560298867,132558,-605.0000721,-8388608,29888,912.109375
175533,12.65972586,9.610495521,133254,-605.0000721,-8388608,29952,914.0625
174156,12.56041438,9.584387491,132892,-605.0000721,-8388608,30016,916.015625
172537,12.44364946,9.636459307,133614,-605.0000721,-8388608,30080,917.96875
171359,12.35869019,9.66667827,134033,-605.0000721,-8388608,30144,919.921875
169940,12.25634959,9.741829007,135075,-605.0000721,-8388608,30208,921.875
168536,12.15509083,9.77962074,135599,-605.0000721,-8388608,30272,923.828125
167835,12.10453357,9.757767887,135296,-605.0000721,-8388608,30336,925.78125
166196,11.98632622,9.696176016,134442,-605.0000721,-8388608,30400,927.734375
166287,11.99288928,9.812580325,136056,-605.0000721,-8388608,30464,929.6875
164979,11.89855419,9.801834202,135907,-605.0000721,-8388608,30528,931.640625
163779,11.81200824,9.822821596,136198,-605.0000721,-8388608,30592,933.59375
162846,11.74471876,9.850516301,136582,-605.0000721,-8388608,30656,935.546875
162202,11.69827243,9.914560308,137470,-605.0000721,-8388608,30720,937.5
161624,11.65658613,9.853184802,136619,-605.0000721,-8388608,30784,939.453125
160168,11.55157704,9.992307424,138548,-605.0000721,-8388608,30848,941.40625
159538,11.50614041,9.928191296,137659,-605.0000721,-8388608,30912,943.359375
159085,11.47346931,9.984085558,138434,-605.0000721,-8388608,30976,945.3125
159750,11.5214302,9.95891511,138085,-605.0000721,-8388608,31040,947.265625
158318,11.41815202,10.04430712,139269,-605.0000721,-8388608,31104,949.21875
158193,11.40913682,10.01192451,138820,-605.0000721,-8388608,31168,951.171875
158599,11.4384182,10.02894521,139056,-605.0000721,-8388608,31232,953.125
157719,11.37495117,10.06428481,139546,-605.0000721,-8388608,31296,955.078125
157501,11.35922865,10.09046496,139909,-605.0000721,-8388608,31360,957.03125
157354,11.34862677,10.1499653,140734,-605.0000721,-8388608,31424,958.984375
158541,11.43423515,10.11657299,140271,-605.0000721,-8388608,31488,960.9375
157474,11.35728137,10.22590938,141787,-605.0000721,-8388608,31552,962.890625
157383,11.3507183,10.17268362,141049,-605.0000721,-8388608,31616,964.84375
157243,11.34062127,10.2526665,142158,-605.0000721,-8388608,31680,966.796875
157478,11.35756986,10.14520528,140668,-605.0000721,-8388608,31744,968.75
157063,11.32763938,10.25742653,142224,-605.0000721,-8388608,31808,970.703125
157794,11.38036029,10.23377064,141896,-605.0000721,-8388608,31872,972.65625
157383,11.3507183,10.25612834,142206,-605.0000721,-8388608,31936,974.609375
157434,11.3543965,10.23845854,141961,-605.0000721,-8388608,32000,976.5625
157623,11.36802749,10.36157016,143668,-605.0000721,-8388608,32064,978.515625
157794,11.38036029,10.31584505,143034,-605.0000721,-8388608,32128,980.46875
158873,11.45817953,10.30408922,142871,-605.0000721,-8388608,32192,982.421875
158874,11.45825165,10.38443272,143985,-605.0000721,-8388608,32256,984.375
158176,11.40791075,10.40780013,144309,-605.0000721,-8388608,32320,986.328125
158478,11.42969149,10.41746443,144443,-605.0000721,-8388608,32384,988.28125
159129,11.47664267,10.42900389,144603,-605.0000721,-8388608,32448,990.234375
158230,11.41180532,10.42222445,144509,-605.0000721,-8388608,32512,992.1875
158149,11.40596347,10.46693986,145129,-605.0000721,-8388608,32576,994.140625
158502,11.4314224,10.50026006,145591,-605.0000721,-8388608,32640,996.09375
158624,11.44022124,10.51605469,145810,-605.0000721,-8388608,32704,998.046875
158639,11.44130307,10.53971059,146138,-605.0000721,-8388608,32768,1000
158811,11.45370799,10.533436,146051,-605.0000721,-8388608,32832,1001.953125
159379,11.49467307,10.57245381,146592,-605.0000721,-8388608,32896,1003.90625
159118,11.47584933,10.51994926,145864,-605.0000721,-8388608,32960,1005.859375
159066,11.472099,10.58608479,146781,-605.0000721,-8388608,33024,1007.8125
159321,11.49049002,10.63548811,147466,-605.0000721,-8388608,33088,1009.765625
160186,11.55287523,10.6361372,147475,-605.0000721,-8388608,33152,1011.71875
159295,11.48861486,10.65330215,147713,-605.0000721,-8388608,33216,1013.671875
160263,11.55842859,10.63476689,147456,-605.0000721,-8388608,33280,1015.625
159671,11.51573259,10.69123813,148239,-605.0000721,-8388608,33344,1017.578125
159945,11.53549391,10.71424493,148558,-605.0000721,-8388608,33408,1019.53125
159941,11.53520543,10.68683871,148178,-605.0000721,-8388608,33472,1021.484375
159966,11.53700847,10.69924363,148350,-605.0000721,-8388608,33536,1023.4375
160313,11.56203467,10.73573717,148856,-605.0000721,-8388608,33600,1025.390625
160552,11.57927174,10.78506837,149540,-605.0000721,-8388608,33664,1027.34375
161017,11.6128083,10.73097715,148790,-605.0000721,-8388608,33728,1029.296875
161406,11.64086361,10.78420291,149528,-605.0000721,-8388608,33792,1031.25
161838,11.67202016,10.79329023,149654,-605.0000721,-8388608,33856,1033.203125
162709,11.7348381,10.80821941,149861,-605.0000721,-8388608,33920,1035.15625
163666,11.8038585,10.89570295,151074,-605.0000721,-8388608,33984,1037.109375
164328,11.85160301,10.81745098,149989,-605.0000721,-8388608,34048,1039.0625
165869,11.96274244,10.92008006,151412,-605.0000721,-8388608,34112,1041.015625
166311,11.9946202,10.83569775,150242,-605.0000721,-8388608,34176,1042.96875
166389,12.00024569,10.92794131,151521,-605.0000721,-8388608,34240,1044.921875
166798,12.02974344,10.9122188,151303,-605.0000721,-8388608,34304,1046.875
167892,12.1086445,10.98722529,152343,-605.0000721,-8388608,34368,1048.828125
169102,12.19591167,10.94315898,151732,-605.0000721,-8388608,34432,1050.78125
168983,12.1873292,10.99220168,152412,-605.0000721,-8388608,34496,1052.734375
170144,12.27106241,10.98974955,152378,-605.0000721,-8388608,34560,1054.6875
170064,12.26529268,10.95008265,151828,-605.0000721,-8388608,34624,1056.640625
171391,12.36099808,11.04189349,153101,-605.0000721,-8388608,34688,1058.59375
171564,12.37347512,11.06879485,153474,-605.0000721,-8388608,34752,1060.546875
172246,12.42266207,11.00013506,152522,-605.0000721,-8388608,34816,1062.5
172833,12.46499747,11.0475911,153180,-605.0000721,-8388608,34880,1064.453125
173460,12.51021773,11.07470883,153556,-605.0000721,-8388608,34944,1066.40625
174109,12.55702466,11.1309637,154336,-605.0000721,-8388608,35008,1068.359375
174732,12.60195644,11.0839404,153684,-605.0000721,-8388608,35072,1070.3125
175473,12.65539857,11.13348796,154371,-605.0000721,-8388608,35136,1072.265625
175973,12.69145938,11.17495789,154946,-605.0000721,-8388608,35200,1074.21875
176474,12.72759232,11.19349315,155203,-605.0000721,-8388608,35264,1076.171875
177354,12.79105935,11.18108823,155031,-605.0000721,-8388608,35328,1078.125
177926,12.83231292,11.23921826,155837,-605.0000721,-8388608,35392,1080.078125
178694,12.88770233,11.18455007,155079,-605.0000721,-8388608,35456,1082.03125
179744,12.96343004,11.28047184,156409,-605.0000721,-8388608,35520,1083.984375
180817,13.04081655,11.2426801,155885,-605.0000721,-8388608,35584,1085.9375
181231,13.0706749,11.3063635,156768,-605.0000721,-8388608,35648,1087.890625
181608,13.09786476,11.28479913,156469,-605.0000721,-8388608,35712,1089.84375
181904,13.11921276,11.32388906,157011,-605.0000721,-8388608,35776,1091.796875
182669,13.17438581,11.29915134,156668,-605.0000721,-8388608,35840,1093.75
182896,13.19075742,11.30593077,156762,-605.0000721,-8388608,35904,1095.703125
183049,13.20179203,11.32186965,156983,-605.0000721,-8388608,35968,1097.65625
183883,13.26194146,11.39903979,158053,-605.0000721,-8388608,36032,1099.609375
185708,13.39356344,11.35930078,157502,-605.0000721,-8388608,36096,1101.5625
185659,13.39002948,11.42478721,158410,-605.0000721,-8388608,36160,1103.515625
186948,13.48299426,11.42651813,158434,-605.0000721,-8388608,36224,1105.46875
188241,13.57624752,11.43293696,158523,-605.0000721,-8388608,36288,1107.421875
188404,13.58800335,11.46683412,158993,-605.0000721,-8388608,36352,1109.375
189394,13.65940376,11.43257635,158518,-605.0000721,-8388608,36416,1111.328125
190200,13.71753379,11.4630838,158941,-605.0000721,-8388608,36480,1113.28125
191870,13.83797691,11.5164538,159681,-605.0000721,-8388608,36544,1115.234375
192186,13.86076735,11.54371578,160059,-605.0000721,-8388608,36608,1117.1875
193096,13.92639803,11.58684451,160657,-605.0000721,-8388608,36672,1119.140625
193865,13.98185956,11.56542439,160360,-605.0000721,-8388608,36736,1121.09375
195896,14.12833859,11.52885872,159853,-605.0000721,-8388608,36800,1123.046875
195772,14.11939551,11.60610099,160924,-605.0000721,-8388608,36864,1125
196668,14.18401649,11.62485261,161184,-605.0000721,-8388608,36928,1126.953125
197469,14.24178591,11.60862525,160959,-605.0000721,-8388608,36992,1128.90625
198458,14.3131142,11.67252501,161845,-605.0000721,-8388608,37056,1130.859375
199045,14.3554496,11.723515,162552,-605.0000721,-8388608,37120,1132.8125
199359,14.37809579,11.67490502,161878,-605.0000721,-8388608,37184,1134.765625
200731,14.47704667,11.69560393,162165,-605.0000721,-8388608,37248,1136.71875
200399,14.45310229,11.75625822,163006,-605.0000721,-8388608,37312,1138.671875
201136,14.50625593,11.69538757,162162,-605.0000721,-8388608,37376,1140.625
201969,14.56633324,11.7882081,163449,-605.0000721,-8388608,37440,1142.578125
202783,14.62504025,11.79397783,163529,-605.0000721,-8388608,37504,1144.53125
204006,14.713245,11.79347298,163522,-605.0000721,-8388608,37568,1146.484375
203784,14.697234,11.80479608,163679,-605.0000721,-8388608,37632,1148.4375
204518,14.75017127,11.81272946,163789,-605.0000721,-8388608,37696,1150.390625
205149,14.79568002,11.84727572,164268,-605.0000721,-8388608,37760,1152.34375
205116,14.79330001,11.86458491,164508,-605.0000721,-8388608,37824,1154.296875
205654,14.83210144,11.90944456,165130,-605.0000721,-8388608,37888,1156.25
206248,14.87494169,11.9112476,165155,-605.0000721,-8388608,37952,1158.203125
206677,14.90588187,11.94312536,165597,-605.0000721,-8388608,38016,1160.15625
206988,14.9283117,11.92971074,165411,-605.0000721,-8388608,38080,1162.109375
207424,14.95975673,11.96620428,165917,-605.0000721,-8388608,38144,1164.0625
207954,14.99798119,12.01849246,166642,-605.0000721,-8388608,38208,1166.015625
208581,15.04320145,12.00990999,166523,-605.0000721,-8388608,38272,1167.96875
208817,15.06022216,12.0052942,166459,-605.0000721,-8388608,38336,1169.921875
208606,15.04500449,12.06969882,167352,-605.0000721,-8388608,38400,1171.875
208700,15.05178393,12.03385437,166855,-605.0000721,-8388608,38464,1173.828125
209426,15.10414423,12.07546855,167432,-605.0000721,-8388608,38528,1175.78125
210783,15.20201328,12.11773182,168018,-605.0000721,-8388608,38592,1177.734375
210857,15.20735028,12.08722437,167595,-605.0000721,-8388608,38656,1179.6875
210619,15.19018533,12.17975642,168878,-605.0000721,-8388608,38720,1181.640625
210113,15.15369179,12.12883855,168172,-605.0000721,-8388608,38784,1183.59375
210359,15.17143371,12.16944303,168735,-605.0000721,-8388608,38848,1185.546875
210160,15.1570815,12.20896568,169283,-605.0000721,-8388608,38912,1187.5
209943,15.14143111,12.26262418,170027,-605.0000721,-8388608,38976,1189.453125
209961,15.1427293,12.24365619,169764,-605.0000721,-8388608,39040,1191.40625
209801,15.13118984,12.24300709,169755,-605.0000721,-8388608,39104,1193.359375
209644,15.11986674,12.30092076,170558,-605.0000721,-8388608,39168,1195.3125
208621,15.04608632,12.28988615,170405,-605.0000721,-8388608,39232,1197.265625
208319,15.02430558,12.37527816,171589,-605.0000721,-8388608,39296,1199.21875
208053,15.00512123,12.36301748,171419,-605.0000721,-8388608,39360,1201.171875
207731,14.98189807,12.38032667,171659,-605.0000721,-8388608,39424,1203.125
207562,14.96970951,12.40780501,172040,-605.0000721,-8388608,39488,1205.078125
206857,14.91886376,12.38191335,171681,-605.0000721,-8388608,39552,1207.03125
206350,14.8822981,12.44501978,172556,-605.0000721,-8388608,39616,1208.984375
206099,14.86419557,12.41184383,172096,-605.0000721,-8388608,39680,1210.9375
205850,14.84623728,12.45785742,172734,-605.0000721,-8388608,39744,1212.890625
205377,14.81212375,12.51569897,173536,-605.0000721,-8388608,39808,1214.84375
204743,14.76639864,12.49586552,173261,-605.0000721,-8388608,39872,1216.796875
204181,14.72586629,12.56870837,174271,-605.0000721,-8388608,39936,1218.75
203886,14.7045904,12.56228954,174182,-605.0000721,-8388608,40000,1220.703125
203113,14.64884039,12.57354052,174338,-605.0000721,-8388608,40064,1222.65625
202369,14.59518189,12.5754878,174365,-605.0000721,-8388608,40128,1224.609375
202056,14.57260782,12.62114079,174998,-605.0000721,-8388608,40192,1226.5625
201604,14.54000885,12.66701015,175634,-605.0000721,-8388608,40256,1228.515625
201152,14.50740987,12.63744028,175224,-605.0000721,-8388608,40320,1230.46875
200718,14.47610908,12.67559262,175753,-605.0000721,-8388608,40384,1232.421875
200514,14.46139627,12.73466024,176572,-605.0000721,-8388608,40448,1234.375
199708,14.40326624,12.68770906,175921,-605.0000721,-8388608,40512,1236.328125
198974,14.35032896,12.74547848,176722,-605.0000721,-8388608,40576,1238.28125
198539,14.31895606,12.7845684,177264,-605.0000721,-8388608,40640,1240.234375
198411,14.30972449,12.79747817,177443,-605.0000721,-8388608,40704,1242.1875
197949,14.27640429,12.77569744,177141,-605.0000721,-8388608,40768,1244.140625
197927,14.27481762,12.83599112,177977,-605.0000721,-8388608,40832,1246.09375
197540,14.24690655,12.83930872,178023,-605.0000721,-8388608,40896,1248.046875
197476,14.24229076,12.84039054,178038,-605.0000721,-8388608,40960,1250
196745,14.18956985,12.87176345,178473,-605.0000721,-8388608,41024,1251.953125
196002,14.13598348,12.9002515,178868,-605.0000721,-8388608,41088,1253.90625
196282,14.15617754,12.91799342,179114,-605.0000721,-8388608,41152,1255.859375
196023,14.13749804,12.96364641,179747,-605.0000721,-8388608,41216,1257.8125
195704,14.11449124,12.96804583,179808,-605.0000721,-8388608,41280,1259.765625
195940,14.13151194,12.96559369,179774,-605.0000721,-8388608,41344,1261.71875
195578,14.10540391,13.0059818,180334,-605.0000721,-8388608,41408,1263.671875
195155,14.07489646,12.99876964,180234,-605.0000721,-8388608,41472,1265.625
195436,14.09516264,13.02805102,180640,-605.0000721,-8388608,41536,1267.578125
195389,14.09177292,13.04817296,180919,-605.0000721,-8388608,41600,1269.53125
194842,14.05232239,13.06937672,181213,-605.0000721,-8388608,41664,1271.484375
193859,13.98142683,13.12512673,181986,-605.0000721,-8388608,41728,1273.4375
193073,13.92473923,13.10659148,181729,-605.0000721,-8388608,41792,1275.390625
192681,13.89646755,13.13955106,182186,-605.0000721,-8388608,41856,1277.34375
193678,13.96837282,13.16212513,182499,-605.0000721,-8388608,41920,1279.296875
192049,13.85088668,13.18542042,182822,-605.0000721,-8388608,41984,1281.25
192218,13.86307524,13.19457986,182949,-605.0000721,-8388608,42048,1283.203125
191078,13.78085658,13.19825807,183000,-605.0000721,-8388608,42112,1285.15625
191174,13.78778026,13.19558957,182963,-605.0000721,-8388608,42176,1287.109375
190114,13.71133133,13.26136449,183875,-605.0000721,-8388608,42240,1289.0625
189555,13.67101534,13.24867108,183699,-605.0000721,-8388608,42304,1291.015625
188914,13.62478538,13.30182472,184436,-605.0000721,-8388608,42368,1292.96875
188465,13.59240277,13.28213552,184163,-605.0000721,-8388608,42432,1294.921875
187969,13.55663044,13.32346121,184736,-605.0000721,-8388608,42496,1296.875
187608,13.53059453,13.36803238,185354,-605.0000721,-8388608,42560,1298.828125
186881,13.47816211,13.35461776,185168,-605.0000721,-8388608,42624,1300.78125
186347,13.43964916,13.40805988,185909,-605.0000721,-8388608,42688,1302.734375
185921,13.40892534,13.41858964,186055,-605.0000721,-8388608,42752,1304.6875
185709,13.39363556,13.4227727,186113,-605.0000721,-8388608,42816,1306.640625
185574,13.38389914,13.44065886,186361,-605.0000721,-8388608,42880,1308.59375
186607,13.45840078,13.42334967,186121,-605.0000721,-8388608,42944,1310.546875
185726,13.39486163,13.47188753,186794,-605.0000721,-8388608,43008,1312.5
185488,13.37769668,13.48955732,187039,-605.0000721,-8388608,43072,1314.453125
185703,13.39320283,13.51617021,187408,-605.0000721,-8388608,43136,1316.40625
185684,13.39183252,13.54328794,187784,-605.0000721,-8388608,43200,1318.359375
185803,13.40041499,13.51818961,187436,-605.0000721,-8388608,43264,1320.3125
184602,13.31379692,13.57567055,188233,-605.0000721,-8388608,43328,1322.265625
184434,13.30168048,13.58886881,188416,-605.0000721,-8388608,43392,1324.21875
184602,13.31379692,13.58144028,188313,-605.0000721,-8388608,43456,1326.171875
185426,13.37322514,13.59882159,188554,-605.0000721,-8388608,43520,1328.125
185089,13.34892015,13.61930413,188838,-605.0000721,-8388608,43584,1330.078125
185329,13.36622934,13.62348719,188896,-605.0000721,-8388608,43648,1332.03125
185257,13.36103658,13.6445467,189188,-605.0000721,-8388608,43712,1333.984375
185078,13.34812681,13.66279348,189441,-605.0000721,-8388608,43776,1335.9375
185191,13.35627655,13.70282098,189996,-605.0000721,-8388608,43840,1337.890625
185333,13.36651783,13.67144807,189561,-605.0000721,-8388608,43904,1339.84375
185448,13.37481181,13.73808846,190485,-605.0000721,-8388608,43968,1341.796875
185549,13.3820961,13.73462662,190437,-605.0000721,-8388608,44032,1343.75
185702,13.39313071,13.76333103,190835,-605.0000721,-8388608,44096,1345.703125
185663,13.39031796,13.77537534,191002,-605.0000721,-8388608,44160,1347.65625
185996,13.41433447,13.80444036,191405,-605.0000721,-8388608,44224,1349.609375
186064,13.41923874,13.80054579,191351,-605.0000721,-8388608,44288,1351.5625
186172,13.42702787,13.83090899,191772,-605.0000721,-8388608,44352,1353.515625
186140,13.42471998,13.84908364,192024,-605.0000721,-8388608,44416,1355.46875
186005,13.41498356,13.88016807,192455,-605.0000721,-8388608,44480,1357.421875
186504,13.45097225,13.85730551,192138,-605.0000721,-8388608,44544,1359.375
187210,13.50189012,13.84944425,192029,-605.0000721,-8388608,44608,1361.328125
187014,13.48775428,13.88990449,192590,-605.0000721,-8388608,44672,1363.28125
186168,13.42673939,13.91175734,192893,-605.0000721,-8388608,44736,1365.234375
186501,13.45075589,13.94284176,193324,-605.0000721,-8388608,44800,1367.1875
186639,13.46070867,13.94125509,193302,-605.0000721,-8388608,44864,1369.140625
185563,13.3831058,13.97673893,193794,-605.0000721,-8388608,44928,1371.09375
186012,13.41548841,13.97024798,193704,-605.0000721,-8388608,44992,1373.046875
185304,13.3644263,14.03039742,194538,-605.0000721,-8388608,45056,1375
184869,13.33305339,14.01849735,194373,-605.0000721,-8388608,45120,1376.953125
184711,13.32165817,14.04727388,194772,-605.0000721,-8388608,45184,1378.90625
183461,13.23150614,14.0606885,194958,-605.0000721,-8388608,45248,1380.859375
183033,13.20063808,14.09213353,195394,-605.0000721,-8388608,45312,1382.8125
182832,13.18614163,14.08196438,195253,-605.0000721,-8388608,45376,1384.765625
182299,13.1477008,14.13742592,196022,-605.0000721,-8388608,45440,1386.71875
182734,13.17907371,14.10908212,195629,-605.0000721,-8388608,45504,1388.671875
181593,13.09678293,14.15516784,196268,-605.0000721,-8388608,45568,1390.625
181065,13.05870271,14.12949254,195912,-605.0000721,-8388608,45632,1392.578125
180486,13.01694429,14.17377522,196526,-605.0000721,-8388608,45696,1394.53125
181467,13.08769561,14.18553104,196689,-605.0000721,-8388608,45760,1396.484375
180574,13.02329099,14.199739,196886,-605.0000721,-8388608,45824,1398.4375
180627,13.02711344,14.2127209,197066,-605.0000721,-8388608,45888,1400.390625
180421,13.01225639,14.24596897,197527,-605.0000721,-8388608,45952,1402.34375
181542,13.09310473,14.25476781,197649,-605.0000721,-8388608,46016,1404.296875
181284,13.07449735,14.25483993,197650,-605.0000721,-8388608,46080,1406.25
181759,13.10875512,14.28311161,198042,-605.0000721,-8388608,46144,1408.203125
181936,13.12152065,14.28087584,198011,-605.0000721,-8388608,46208,1410.15625
182479,13.1606827,14.29335288,198184,-605.0000721,-8388608,46272,1412.109375
183190,13.21196118,14.32364396,198604,-605.0000721,-8388608,46336,1414.0625
183891,13.26251844,14.31859545,198534,-605.0000721,-8388608,46400,1416.015625
185178,13.35533897,14.341458,198851,-605.0000721,-8388608,46464,1417.96875
185976,13.41289203,14.35068957,198979,-605.0000721,-8388608,46528,1419.921875
187394,13.5151605,14.36662845,199200,-605.0000721,-8388608,46592,1421.875
188877,13.62211688,14.38249521,199420,-605.0000721,-8388608,46656,1423.828125
189236,13.64800854,14.3794661,199378,-605.0000721,-8388608,46720,1425.78125
190278,13.72315928,14.40095835,199676,-605.0000721,-8388608,46784,1427.734375
191699,13.82564411,14.40110259,199678,-605.0000721,-8388608,46848,1429.6875
192838,13.90779065,14.41610389,199886,-605.0000721,-8388608,46912,1431.640625
193886,13.98337412,14.45093864,200369,-605.0000721,-8388608,46976,1433.59375
194762,14.04655266,14.44552951,200294,-605.0000721,-8388608,47040,1435.546875
195642,14.1100197,14.43507188,200149,-605.0000721,-8388608,47104,1437.5
197571,14.24914232,14.46045869,200501,-605.0000721,-8388608,47168,1439.453125
198281,14.30034868,14.47877758,200755,-605.0000721,-8388608,47232,1441.40625
199385,14.37997095,14.51065534,201197,-605.0000721,-8388608,47296,1443.359375
200793,14.48151821,14.50791472,201159,-605.0000721,-8388608,47360,1445.3125
201973,14.56662173,14.52644998,201416,-605.0000721,-8388608,47424,1447.265625
203081,14.64653249,14.55544288,201818,-605.0000721,-8388608,47488,1449.21875
203200,14.65511497,14.54368705,201655,-605.0000721,-8388608,47552,1451.171875
204044,14.71598562,14.57231934,202052,-605.0000721,-8388608,47616,1453.125
204454,14.74555549,14.60160072,202458,-605.0000721,-8388608,47680,1455.078125
205271,14.80447886,14.59525402,202370,-605.0000721,-8388608,47744,1457.03125
205763,14.8399627,14.63715668,202951,-605.0000721,-8388608,47808,1458.984375
206459,14.89015936,14.63066574,202861,-605.0000721,-8388608,47872,1460.9375
207095,14.93602871,14.64682098,203085,-605.0000721,-8388608,47936,1462.890625
207768,14.98456657,14.66218289,203298,-605.0000721,-8388608,48000,1464.84375
207829,14.98896599,14.70019099,203825,-605.0000721,-8388608,48064,1466.796875
208515,15.03844142,14.67862662,203526,-605.0000721,-8388608,48128,1468.75
208944,15.0693816,14.71649047,204051,-605.0000721,-8388608,48192,1470.703125
209421,15.10378362,14.71374985,204013,-605.0000721,-8388608,48256,1472.65625
209610,15.11741461,14.72983297,204236,-605.0000721,-8388608,48320,1474.609375
210128,15.15477361,14.74923369,204505,-605.0000721,-8388608,48384,1476.5625
210800,15.20323935,14.76286468,204694,-605.0000721,-8388608,48448,1478.515625
211061,15.22206309,14.76517257,204726,-605.0000721,-8388608,48512,1480.46875
211669,15.26591304,14.7859436,205014,-605.0000721,-8388608,48576,1482.421875
212058,15.29396835,14.80375764,205261,-605.0000721,-8388608,48640,1484.375
212416,15.3197879,14.81082556,205359,-605.0000721,-8388608,48704,1486.328125
212786,15.3464729,14.83000992,205625,-605.0000721,-8388608,48768,1488.28125
213448,15.39421742,14.85056458,205910,-605.0000721,-8388608,48832,1490.234375
214125,15.44304376,14.85373793,205954,-605.0000721,-8388608,48896,1492.1875
213246,15.37964885,14.89138542,206476,-605.0000721,-8388608,48960,1494.140625
214363,15.46020871,14.90617036,206681,-605.0000721,-8388608,49024,1496.09375
213529,15.40005927,14.89412605,206514,-605.0000721,-8388608,49088,1498.046875
213606,15.40561264,14.93278324,207050,-605.0000721,-8388608,49152,1500
213551,15.40164595,14.95297729,207330,-605.0000721,-8388608,49216,1501.953125
214378,15.46129053,14.98175382,207729,-605.0000721,-8388608,49280,1503.90625
213733,15.41477208,14.99322116,207888,-605.0000721,-8388608,49344,1505.859375
213605,15.40554051,14.98932659,207834,-605.0000721,-8388608,49408,1507.8125
213845,15.42284971,15.00678003,208076,-605.0000721,-8388608,49472,1509.765625
213446,15.39407318,15.05409182,208732,-605.0000721,-8388608,49536,1511.71875
213223,15.37799005,15.05142332,208695,-605.0000721,-8388608,49600,1513.671875
213460,15.39508288,15.06786705,208923,-605.0000721,-8388608,49664,1515.625
212626,15.33493344,15.08380593,209144,-605.0000721,-8388608,49728,1517.578125
212556,15.32988493,15.13551714,209861,-605.0000721,-8388608,49792,1519.53125
211750,15.27175489,15.12419404,209704,-605.0000721,-8388608,49856,1521.484375
211140,15.2277607,15.15232148,210094,-605.0000721,-8388608,49920,1523.4375
210536,15.18419924,15.16977491,210336,-605.0000721,-8388608,49984,1525.390625
210161,15.15715363,15.19422414,210675,-605.0000721,-8388608,50048,1527.34375
209834,15.13356985,15.20713391,210854,-605.0000721,-8388608,50112,1529.296875
208773,15.0570488,15.22112551,211048,-605.0000721,-8388608,50176,1531.25
207849,14.99040842,15.24961355,211443,-605.0000721,-8388608,50240,1533.203125
207279,14.94929909,15.26129726,211605,-605.0000721,-8388608,50304,1535.15625
205661,14.8326063,15.29505018,212073,-605.0000721,-8388608,50368,1537.109375
205049,14.78846786,15.28625134,211951,-605.0000721,-8388608,50432,1539.0625
202936,14.63607486,15.31856183,212399,-605.0000721,-8388608,50496,1541.015625
201969,14.56633324,15.35065596,212844,-605.0000721,-8388608,50560,1542.96875
200586,14.46658903,15.37452821,213175,-605.0000721,-8388608,50624,1544.921875
199399,14.38098066,15.37784581,213221,-605.0000721,-8388608,50688,1546.875
198898,14.34484772,15.38808708,213363,-605.0000721,-8388608,50752,1548.828125
197930,14.27503398,15.41174297,213691,-605.0000721,-8388608,50816,1550.78125
195979,14.13432469,15.41469996,213732,-605.0000721,-8388608,50880,1552.734375
195050,14.06732369,15.45660263,214313,-605.0000721,-8388608,50944,1554.6875
193937,13.98705232,15.48076337,214648,-605.0000721,-8388608,51008,1556.640625
192694,13.89740514,15.50232774,214947,-605.0000721,-8388608,51072,1558.59375
191960,13.84446786,15.51523751,215126,-605.0000721,-8388608,51136,1560.546875
190781,13.75943646,15.53117639,215347,-605.0000721,-8388608,51200,1562.5
189850,13.69229122,15.54870195,215590,-605.0000721,-8388608,51264,1564.453125
188639,13.60495193,15.55093772,215621,-605.0000721,-8388608,51328,1566.40625
187982,13.55756802,15.5738724,215939,-605.0000721,-8388608,51392,1568.359375
187337,13.51104957,15.59651859,216253,-605.0000721,-8388608,51456,1570.3125
186832,13.47462815,15.62378056,216631,-605.0000721,-8388608,51520,1572.265625
186756,13.4691469,15.63344486,216765,-605.0000721,-8388608,51584,1574.21875
185283,13.36291174,15.64411886,216913,-605.0000721,-8388608,51648,1576.171875
185549,13.3820961,15.64815767,216969,-605.0000721,-8388608,51712,1578.125
184361,13.2964156,15.68616577,217496,-605.0000721,-8388608,51776,1580.078125
184599,13.31358055,15.69878706,217671,-605.0000721,-8388608,51840,1582.03125
182856,13.18787255,15.70708104,217786,-605.0000721,-8388608,51904,1583.984375
182683,13.17539551,15.73448726,218166,-605.0000721,-8388608,51968,1585.9375
181718,13.10579814,15.73874244,218225,-605.0000721,-8388608,52032,1587.890625
181004,13.05430329,15.75338313,218428,-605.0000721,-8388608,52096,1589.84375
180871,13.04471112,15.77408204,218715,-605.0000721,-8388608,52160,1591.796875
179964,12.9792968,15.79687247,219031,-605.0000721,-8388608,52224,1593.75
179413,12.93955778,15.7872803,218898,-605.0000721,-8388608,52288,1595.703125
178422,12.86808525,15.79903612,219061,-605.0000721,-8388608,52352,1597.65625
177976,12.835919,15.82153807,219373,-605.0000721,-8388608,52416,1599.609375
177559,12.80584428,15.83927999,219619,-605.0000721,-8388608,52480,1601.5625
177093,12.7722356,15.85096369,219781,-605.0000721,-8388608,52544,1603.515625
176808,12.75168094,15.86957107,220039,-605.0000721,-8388608,52608,1605.46875
176668,12.74158391,15.88175963,220208,-605.0000721,-8388608,52672,1607.421875
177028,12.7675477,15.88428389,220243,-605.0000721,-8388608,52736,1609.375
177148,12.77620229,15.90541552,220536,-605.0000721,-8388608,52800,1611.328125
177264,12.7845684,15.91587316,220681,-605.0000721,-8388608,52864,1613.28125
177214,12.78096232,15.91169011,220623,-605.0000721,-8388608,52928,1615.234375
177846,12.82654319,15.94255816,221051,-605.0000721,-8388608,52992,1617.1875
178313,12.86022399,15.94674122,221109,-605.0000721,-8388608,53056,1619.140625
179120,12.91842615,15.96325707,221338,-605.0000721,-8388608,53120,1621.09375
180796,13.039302,15.97681594,221526,-605.0000721,-8388608,53184,1623.046875
181403,13.08307982,15.99232209,221741,-605.0000721,-8388608,53248,1625
181594,13.09685506,16.00508761,221918,-605.0000721,-8388608,53312,1626.953125
182469,13.15996148,16.0117228,222010,-605.0000721,-8388608,53376,1628.90625
182998,13.19811382,16.01734829,222088,-605.0000721,-8388608,53440,1630.859375
183124,13.20720115,16.02823866,222239,-605.0000721,-8388608,53504,1632.8125
184033,13.27275971,16.04403329,222458,-605.0000721,-8388608,53568,1634.765625
185574,13.38389914,16.04857696,222521,-605.0000721,-8388608,53632,1636.71875
186021,13.41613751,16.06264067,222716,-605.0000721,-8388608,53696,1638.671875
187376,13.51386231,16.06884313,222802,-605.0000721,-8388608,53760,1640.625
187944,13.5548274,16.08175291,222981,-605.0000721,-8388608,53824,1642.578125
188603,13.60235555,16.09401358,223151,-605.0000721,-8388608,53888,1644.53125
189290,13.65190311,16.09747542,223199,-605.0000721,-8388608,53952,1646.484375
191526,13.81316707,16.26652852,225543,-605.0000721,-8388608,54016,1648.4375
189935,13.69842156,16.03948963,222395,-605.0000721,-8388608,54080,1650.390625
190672,13.7515752,16.08535899,223031,-605.0000721,-8388608,54144,1652.34375
191075,13.78064022,16.03718174,222363,-605.0000721,-8388608,54208,1654.296875
194325,14.01503551,16.34218411,226592,-605.0000721,-8388608,54272,1656.25
189293,13.65211948,15.91212284,220629,-605.0000721,-8388608,54336,1658.203125
196050,14.13944532,16.54982228,229471,-605.0000721,-8388608,54400,1660.15625
190938,13.77075956,16.1134143,223420,-605.0000721,-8388608,54464,1662.109375
195396,14.09227778,16.51931483,229048,-605.0000721,-8388608,54528,1664.0625
189306,13.65305706,15.97558987,221509,-605.0000721,-8388608,54592,1666.015625
195604,14.10727908,16.57304544,229793,-605.0000721,-8388608,54656,1667.96875
193223,13.93555748,16.43010037,227811,-605.0000721,-8388608,54720,1669.921875
191131,13.78467903,16.21813491,224872,-605.0000721,-8388608,54784,1671.875
189625,13.67606386,16.16245701,224100,-605.0000721,-8388608,54848,1673.828125
190531,13.74140605,16.27518311,225663,-605.0000721,-8388608,54912,1675.78125
190391,13.73130902,16.29992083,226006,-605.0000721,-8388608,54976,1677.734375
191124,13.78417418,16.46046358,228232,-605.0000721,-8388608,55040,1679.6875
192316,13.87014316,16.47380608,228417,-605.0000721,-8388608,55104,1681.640625
191571,13.81641255,16.43183129,227835,-605.0000721,-8388608,55168,1683.59375
190896,13.76773045,16.47474366,228430,-605.0000721,-8388608,55232,1685.546875
190341,13.72770294,16.43168705,227833,-605.0000721,-8388608,55296,1687.5
190341,13.72770294,16.43168705,227833,-605.0000721,-8388608,55360,1689.453125
189495,13.66668804,16.4508714,228099,-605.0000721,-8388608,55424,1691.40625
189495,13.66668804,16.4508714,228099,-605.0000721,-8388608,55488,1693.359375
187261,13.50556833,16.31708578,226244,-605.0000721,-8388608,55552,1695.3125
188957,13.62788661,16.50741476,228883,-605.0000721,-8388608,55616,1697.265625
184126,13.27946702,16.16426005,224125,-605.0000721,-8388608,55680,1699.21875
184126,13.27946702,16.16426005,224125,-605.0000721,-8388608,55744,1701.171875
184508,13.30701748,16.22650102,224988,-605.0000721,-8388608,55808,1703.125
187856,13.5484807,16.51332873,228965,-605.0000721,-8388608,55872,1705.078125
184524,13.30817143,16.35891633,226824,-605.0000721,-8388608,55936,1707.03125
186943,13.48263365,16.58746977,229993,-605.0000721,-8388608,56000,1708.984375
187216,13.50232285,16.55508716,229544,-605.0000721,-8388608,56064,1710.9375
186259,13.43330245,16.54780287,229443,-605.0000721,-8388608,56128,1712.890625
186249,13.43258124,16.61761661,230411,-605.0000721,-8388608,56192,1714.84375
186491,13.45003467,16.65598531,230943,-605.0000721,-8388608,56256,1716.796875
186788,13.4714548,16.5872534,229990,-605.0000721,-8388608,56320,1718.75
186724,13.46683901,16.58876796,230011,-605.0000721,-8388608,56384,1720.703125
186835,13.47484451,16.67430421,231197,-605.0000721,-8388608,56448,1722.65625
187245,13.50441438,16.63045426,230589,-605.0000721,-8388608,56512,1724.609375
187966,13.55641407,16.64646526,230811,-605.0000721,-8388608,56576,1726.5625
188481,13.59355671,16.64422949,230780,-605.0000721,-8388608,56640,1728.515625
188928,13.62579508,16.61336143,230352,-605.0000721,-8388608,56704,1730.46875
189561,13.67144807,16.59576375,230108,-605.0000721,-8388608,56768,1732.421875
189346,13.65594192,16.66954418,231131,-605.0000721,-8388608,56832,1734.375
189699,13.68140086,16.68490609,231344,-605.0000721,-8388608,56896,1736.328125
190569,13.74414667,16.64372464,230773,-605.0000721,-8388608,56960,1738.28125
191450,13.80768583,16.72774633,231938,-605.0000721,-8388608,57024,1740.234375
191422,13.80566642,16.66125019,231016,-605.0000721,-8388608,57088,1742.1875
192268,13.86668132,16.66608234,231083,-605.0000721,-8388608,57152,1744.140625
193288,13.94024538,16.70697531,231650,-605.0000721,-8388608,57216,1746.09375
194477,14.025998,16.67012115,231139,-605.0000721,-8388608,57280,1748.046875
194885,14.05542362,16.67444845,231199,-605.0000721,-8388608,57344,1750
195666,14.11175062,16.72745785,231934,-605.0000721,-8388608,57408,1751.953125
196839,14.19634929,16.62014086,230446,-605.0000721,-8388608,57472,1753.90625
197388,14.23594406,16.70993229,231691,-605.0000721,-8388608,57536,1755.859375
198273,14.2997717,16.66954418,231131,-605.0000721,-8388608,57600,1757.8125
199103,14.35963265,16.74880585,232230,-605.0000721,-8388608,57664,1759.765625
200576,14.46586781,16.63319488,230627,-605.0000721,-8388608,57728,1761.71875
200534,14.4628387,16.7392858,232098,-605.0000721,-8388608,57792,1763.671875
201386,14.52428633,16.74007913,232109,-605.0000721,-8388608,57856,1765.625
202398,14.59727342,16.71786567,231801,-605.0000721,-8388608,57920,1767.578125
203956,14.70963892,16.77289447,232564,-605.0000721,-8388608,57984,1769.53125
203862,14.70285949,16.66435142,231059,-605.0000721,-8388608,58048,1771.484375
205449,14.81731651,16.76669201,232478,-605.0000721,-8388608,58112,1773.4375
205938,14.85258399,16.72637602,231919,-605.0000721,-8388608,58176,1775.390625
206422,14.88749086,16.76835081,232501,-605.0000721,-8388608,58240,1777.34375
207850,14.99048054,16.76510534,232456,-605.0000721,-8388608,58304,1779.296875
208392,15.02957046,16.68743034,231379,-605.0000721,-8388608,58368,1781.25
209161,15.085032,16.80657528,233031,-605.0000721,-8388608,58432,1783.203125
209999,15.14546992,16.7359682,232052,-605.0000721,-8388608,58496,1785.15625
211723,15.26980761,16.7366173,232061,-605.0000721,-8388608,58560,1787.109375
211875,15.2807701,16.79647825,232891,-605.0000721,-8388608,58624,1789.0625
213816,15.42075818,16.79777644,232909,-605.0000721,-8388608,58688,1791.015625
213542,15.40099685,16.80369041,232991,-605.0000721,-8388608,58752,1792.96875
214083,15.44001465,16.83037541,233361,-605.0000721,-8388608,58816,1794.921875
214914,15.49994773,16.7916461,232824,-605.0000721,-8388608,58880,1796.875
216173,15.59074886,16.7296215,231964,-605.0000721,-8388608,58944,1798.828125
215929,15.57315118,16.76380715,232438,-605.0000721,-8388608,59008,1800.78125
216591,15.6208957,16.79157398,232823,-605.0000721,-8388608,59072,1802.734375
217236,15.66741415,16.81883595,233201,-605.0000721,-8388608,59136,1804.6875
218029,15.7246066,16.82655297,233308,-605.0000721,-8388608,59200,1806.640625
217976,15.72078415,16.78017876,232665,-605.0000721,-8388608,59264,1808.59375
218502,15.75872013,16.82828389,233332,-605.0000721,-8388608,59328,1810.546875
219843,15.85543523,16.83210633,233385,-605.0000721,-8388608,59392,1812.5
220063,15.87130199,16.87804781,234022,-605.0000721,-8388608,59456,1814.453125
220241,15.88413964,16.80051706,232947,-605.0000721,-8388608,59520,1816.40625
220996,15.93859147,16.82763479,233323,-605.0000721,-8388608,59584,1818.359375
222423,16.04150904,16.81018136,233081,-605.0000721,-8388608,59648,1820.3125
221821,15.99809182,16.86881624,233894,-605.0000721,-8388608,59712,1822.265625
222260,16.02975321,16.79842553,232918,-605.0000721,-8388608,59776,1824.21875
222779,16.06718434,16.76907203,232511,-605.0000721,-8388608,59840,1826.171875
223366,16.10951973,16.84790097,233604,-605.0000721,-8388608,59904,1828.125
223975,16.15344181,16.81890807,233202,-605.0000721,-8388608,59968,1830.078125
224697,16.20551362,16.83059178,233364,-605.0000721,-8388608,60032,1832.03125
225254,16.24568537,16.86658047,233863,-605.0000721,-8388608,60096,1833.984375
225906,16.29270867,16.85828648,233748,-605.0000721,-8388608,60160,1835.9375
226314,16.32213429,16.77275023,232562,-605.0000721,-8388608,60224,1837.890625
226554,16.33944349,16.8183311,233194,-605.0000721,-8388608,60288,1839.84375
227263,16.39057772,16.86888836,233895,-605.0000721,-8388608,60352,1841.796875
227668,16.41978698,16.82547114,233293,-605.0000721,-8388608,60416,1843.75
227645,16.41812818,16.85186766,233659,-605.0000721,-8388608,60480,1845.703125
228316,16.4665218,16.88771211,234156,-605.0000721,-8388608,60544,1847.65625
228765,16.49890441,16.7776545,232630,-605.0000721,-8388608,60608,1849.609375
228948,16.51210266,16.85359858,233683,-605.0000721,-8388608,60672,1851.5625
229133,16.52544517,16.87537931,233985,-605.0000721,-8388608,60736,1853.515625
229848,16.57701213,16.79994009,232939,-605.0000721,-8388608,60800,1855.46875
231618,16.70466741,16.84674702,233588,-605.0000721,-8388608,60864,1857.421875
231561,16.70055648,16.78219816,232693,-605.0000721,-8388608,60928,1859.375
233228,16.82078324,16.77484176,232591,-605.0000721,-8388608,60992,1861.328125
232989,16.80354617,16.79323277,232846,-605.0000721,-8388608,61056,1863.28125
234795,16.93379783,16.76676414,232479,-605.0000721,-8388608,61120,1865.234375
236091,17.02726746,16.79301641,232843,-605.0000721,-8388608,61184,1867.1875
236104,17.02820504,16.80087767,232952,-605.0000721,-8388608,61248,1869.140625
238096,17.17187133,16.78919396,232790,-605.0000721,-8388608,61312,1871.09375
238264,17.18398776,16.75738832,232349,-605.0000721,-8388608,61376,1873.046875
239028,17.23908868,16.77686116,232619,-605.0000721,-8388608,61440,1875
240061,17.31359033,16.7606338,232394,-605.0000721,-8388608,61504,1876.953125
241016,17.38246648,16.69608494,231499,-605.0000721,-8388608,61568,1878.90625
242201,17.46793061,16.79994009,232939,-605.0000721,-8388608,61632,1880.859375
243338,17.5499329,16.71245655,231726,-605.0000721,-8388608,61696,1882.8125
244172,17.61008234,16.7012777,231571,-605.0000721,-8388608,61760,1884.765625
244906,17.66301962,16.73640093,232058,-605.0000721,-8388608,61824,1886.71875
245622,17.7146587,16.70315286,231597,-605.0000721,-8388608,61888,1888.671875
245921,17.73622307,16.72341904,231878,-605.0000721,-8388608,61952,1890.625
246640,17.78807852,16.65389379,230914,-605.0000721,-8388608,62016,1892.578125
247685,17.86344562,16.69716676,231514,-605.0000721,-8388608,62080,1894.53125
248549,17.92575871,16.70214316,231583,-605.0000721,-8388608,62144,1896.484375
249548,17.99780822,16.67516967,231209,-605.0000721,-8388608,62208,1898.4375
249315,17.98100388,16.71599051,231775,-605.0000721,-8388608,62272,1900.390625
251205,18.11731376,16.67632361,231225,-605.0000721,-8388608,62336,1902.34375
251134,18.11219312,16.65007134,230861,-605.0000721,-8388608,62400,1904.296875
252579,18.21640887,16.70142194,231573,-605.0000721,-8388608,62464,1906.25
253692,18.29668025,16.64949437,230853,-605.0000721,-8388608,62528,1908.203125
253773,18.3025221,16.64898952,230846,-605.0000721,-8388608,62592,1910.15625
254480,18.35351209,16.58141155,229909,-605.0000721,-8388608,62656,1912.109375
255504,18.42736464,16.6289397,230568,-605.0000721,-8388608,62720,1914.0625
256367,18.4896056,16.63817127,230696,-605.0000721,-8388608,62784,1916.015625
257294,18.55646235,16.60304804,230209,-605.0000721,-8388608,62848,1917.96875
258204,18.62209304,16.58898432,230014,-605.0000721,-8388608,62912,1919.921875
259188,18.69306072,16.59093161,230041,-605.0000721,-8388608,62976,1921.875
260461,18.78487155,16.61235173,230338,-605.0000721,-8388608,63040,1923.828125
261488,18.85894047,16.579897,229888,-605.0000721,-8388608,63104,1925.78125
262063,18.9004104,16.58335883,229936,-605.0000721,-8388608,63168,1927.734375
263195,18.98205209,16.60369713,230218,-605.0000721,-8388608,63232,1929.6875
264468,19.07386292,16.55652959,229564,-605.0000721,-8388608,63296,1931.640625
266914,19.25027242,16.51159781,228941,-605.0000721,-8388608,63360,1933.59375
267323,19.27977017,16.55227441,229505,-605.0000721,-8388608,63424,1935.546875
269333,19.42473464,16.52061302,229066,-605.0000721,-8388608,63488,1937.5
269524,19.43850987,16.49659651,228733,-605.0000721,-8388608,63552,1939.453125
271166,19.55693359,16.55631322,229561,-605.0000721,-8388608,63616,1941.40625
272733,19.66994818,16.51109296,228934,-605.0000721,-8388608,63680,1943.359375
274396,19.78988645,16.44704896,228046,-605.0000721,-8388608,63744,1945.3125
276979,19.97617662,16.49335104,228688,-605.0000721,-8388608,63808,1947.265625
277693,20.02767146,16.43471616,227875,-605.0000721,-8388608,63872,1949.21875
280386,20.22189501,16.51058811,228927,-605.0000721,-8388608,63936,1951.171875
281509,20.3028876,16.43262463,227846,-605.0000721,-8388608,64000,1953.125
283401,20.43934172,16.45988661,228224,-605.0000721,-8388608,64064,1955.078125
285509,20.59137411,16.42072456,227681,-605.0000721,-8388608,64128,1957.03125
287686,20.7483829,16.40291052,227434,-605.0000721,-8388608,64192,1958.984375
290061,20.91967176,16.39757352,227360,-605.0000721,-8388608,64256,1960.9375
292585,21.10170676,16.43356221,227859,-605.0000721,-8388608,64320,1962.890625
294736,21.25684038,16.36858062,226958,-605.0000721,-8388608,64384,1964.84375
295843,21.33667902,16.33526043,226496,-605.0000721,-8388608,64448,1966.796875
298544,21.53147954,16.35646419,226790,-605.0000721,-8388608,64512,1968.75
301393,21.73695406,16.38567345,227195,-605.0000721,-8388608,64576,1970.703125
303808,21.9111278,16.35220901,226731,-605.0000721,-8388608,64640,1972.65625
306254,22.0875373,16.36757092,226944,-605.0000721,-8388608,64704,1974.609375
309128,22.29481486,16.35004537,226701,-605.0000721,-8388608,64768,1976.5625
312064,22.50656396,16.35567085,226779,-605.0000721,-8388608,64832,1978.515625
313942,22.64200838,16.34261684,226598,-605.0000721,-8388608,64896,1980.46875
316820,22.84957443,16.33453921,226486,-605.0000721,-8388608,64960,1982.421875
319836,23.06709326,16.35451691,226763,-605.0000721,-8388608,65024,1984.375
323764,23.35038702,16.30835906,226123,-605.0000721,-8388608,65088,1986.328125
326189,23.52528197,16.32235066,226317,-605.0000721,-8388608,65152,1988.28125
330042,23.8031666,16.35011749,226702,-605.0000721,-8388608,65216,1990.234375
333261,24.03532613,16.30064205,226016,-605.0000721,-8388608,65280,1992.1875
336848,24.29402641,16.30958513,226140,-605.0000721,-8388608,65344,1994.140625
340317,24.54421634,16.28967956,225864,-605.0000721,-8388608,65408,1996.09375
345493,24.91751789,16.30316631,226051,-605.0000721,-8388608,65472,1998.046875
348861,25.16042354,16.29234806,225901,-605.0000721,-8388608,0,2000
354234,25.54793305,16.31607608,226230,-605.0000721,-8388608,64,2001.953125
355561,25.64363845,16.28023163,225733,-605.0000721,-8388608,128,2003.90625
359896,25.95628571,16.34766535,226668,-605.0000721,-8388608,192,2005.859375
364735,26.30528227,16.28138557,225749,-605.0000721,-8388608,256,2007.8125
369619,26.65752431,16.31420092,226204,-605.0000721,-8388608,320,2009.765625
374869,27.03616286,16.32754342,226389,-605.0000721,-8388608,384,2011.71875
379507,27.37066297,16.349829,226698,-605.0000721,-8388608,448,2013.671875
384428,27.72557351,16.30136327,226026,-605.0000721,-8388608,512,2015.625
389474,28.08949925,16.33194284,226450,-605.0000721,-8388608,576,2017.578125
395418,28.51819021,16.32646159,226374,-605.0000721,-8388608,640,2019.53125
399658,28.82398591,16.38026433,227120,-605.0000721,-8388608,704,2021.484375
404629,29.18250253,16.37060003,226986,-605.0000721,-8388608,768,2023.4375
410469,29.60369284,16.36374847,226891,-605.0000721,-8388608,832,2025.390625
415069,29.93545233,16.36490242,226907,-605.0000721,-8388608,896,2027.34375
420465,30.32462064,16.40565114,227472,-605.0000721,-8388608,960,2029.296875
425319,30.67469903,16.40406447,227450,-605.0000721,-8388608,1024,2031.25
430497,31.04814482,16.42476337,227737,-605.0000721,-8388608,1088,2033.203125
435429,31.4038487,16.4471932,228048,-605.0000721,-8388608,1152,2035.15625
440223,31.74959978,16.45058292,228095,-605.0000721,-8388608,1216,2037.109375
445147,32.10472668,16.48476857,228569,-605.0000721,-8388608,1280,2039.0625
447231,32.25502816,16.47935945,228494,-605.0000721,-8388608,1344,2041.015625
451733,32.57971973,16.47611397,228449,-605.0000721,-8388608,1408,2042.96875
455959,32.88450573,16.56042416,229618,-605.0000721,-8388608,1472,2044.921875
460174,33.1884984,16.53842706,229313,-605.0000721,-8388608,1536,2046.875
465036,33.53915376,16.55249078,229508,-605.0000721,-8388608,1600,2048.828125
468780,33.80917714,16.6129287,230346,-605.0000721,-8388608,1664,2050.78125
472835,34.10163034,16.56302053,229654,-605.0000721,-8388608,1728,2052.734375
476413,34.35968153,16.61949177,230437,-605.0000721,-8388608,1792,2054.6875
480815,34.67716094,16.69601282,231498,-605.0000721,-8388608,1856,2056.640625
484533,34.94530916,16.65353318,230909,-605.0000721,-8388608,1920,2058.59375
487483,35.15806796,16.65403803,230916,-605.0000721,-8388608,1984,2060.546875
489998,35.33945386,16.69247886,231449,-605.0000721,-8388608,2048,2062.5
493196,35.57009883,16.74000701,232108,-605.0000721,-8388608,2112,2064.453125
496104,35.77982852,16.77253387,232559,-605.0000721,-8388608,2176,2066.40625
498847,35.97765815,16.76272532,232423,-605.0000721,-8388608,2240,2068.359375
502274,36.22481897,16.8043395,233000,-605.0000721,-8388608,2304,2070.3125
504203,36.36394159,16.79056427,232809,-605.0000721,-8388608,2368,2072.265625
506789,36.55044813,16.82979844,233353,-605.0000721,-8388608,2432,2074.21875
509397,36.73854133,16.88143753,234069,-605.0000721,-8388608,2496,2076.171875
512746,36.98007667,16.89744853,234291,-605.0000721,-8388608,2560,2078.125
512954,36.99507797,16.900694,234336,-605.0000721,-8388608,2624,2080.078125
515598,37.18576755,16.91151225,234486,-605.0000721,-8388608,2688,2082.03125
517725,37.33917026,16.93624996,234829,-605.0000721,-8388608,2752,2083.984375
520043,37.50634819,16.97844112,235414,-605.0000721,-8388608,2816,2085.9375
522353,37.67294916,16.96401679,235214,-605.0000721,-8388608,2880,2087.890625
524407,37.82108698,17.03678751,236223,-605.0000721,-8388608,2944,2089.84375
526354,37.96150779,17.03296507,236170,-605.0000721,-8388608,3008,2091.796875
528377,38.10740985,17.0884266,236939,-605.0000721,-8388608,3072,2093.75
530324,38.24783066,17.10119213,237116,-605.0000721,-8388608,3136,2095.703125
531880,38.36005191,17.09498967,237030,-605.0000721,-8388608,3200,2097.65625
533474,38.47501379,17.14129175,237672,-605.0000721,-8388608,3264,2099.609375
534763,38.56797857,17.16458704,237995,-605.0000721,-8388608,3328,2101.5625
536109,38.66505428,17.21990433,238762,-605.0000721,-8388608,3392,2103.515625
538032,38.80374417,17.2184619,238742,-605.0000721,-8388608,3456,2105.46875
538101,38.80872057,17.22235647,238796,-605.0000721,-8388608,3520,2107.421875
539120,38.88221251,17.25639787,239268,-605.0000721,-8388608,3584,2109.375
539925,38.94027042,17.2928193,239773,-605.0000721,-8388608,3648,2111.328125
540233,38.96248388,17.3125085,240046,-605.0000721,-8388608,3712,2113.28125
540540,38.98462522,17.37561493,240921,-605.0000721,-8388608,3776,2115.234375
540664,38.9935683,17.39169805,241144,-605.0000721,-8388608,3840,2117.1875
540680,38.99472225,17.37309067,240886,-605.0000721,-8388608,3904,2119.140625
540389,38.97373485,17.41218059,241428,-605.0000721,-8388608,3968,2121.09375
540803,39.00359321,17.47809976,242342,-605.0000721,-8388608,4032,2123.046875
539987,38.94474196,17.48661011,242460,-605.0000721,-8388608,4096,2125
539876,38.93673646,17.53211886,243091,-605.0000721,-8388608,4160,2126.953125
539884,38.93731343,17.52346427,242971,-605.0000721,-8388608,4224,2128.90625
538541,38.84045408,17.61722238,244271,-605.0000721,-8388608,4288,2130.859375
537724,38.78153071,17.62667032,244402,-605.0000721,-8388608,4352,2132.8125
536641,38.70342299,17.63150247,244469,-605.0000721,-8388608,4416,2134.765625
535542,38.62416132,17.70362409,245469,-605.0000721,-8388608,4480,2136.71875
535436,38.61651643,17.71105262,245572,-605.0000721,-8388608,4544,2138.671875
533428,38.47169619,17.7169666,245654,-605.0000721,-8388608,4608,2140.625
531918,38.36279254,17.80423377,246864,-605.0000721,-8388608,4672,2142.578125
530694,38.27451566,17.79586766,246748,-605.0000721,-8388608,4736,2144.53125
529821,38.21155348,17.83322666,247266,-605.0000721,-8388608,4800,2146.484375
527406,38.03737975,17.87426387,247835,-605.0000721,-8388608,4864,2148.4375
526034,37.93842887,17.94378912,248799,-605.0000721,-8388608,4928,2150.390625
524657,37.83911739,17.93931758,248737,-605.0000721,-8388608,4992,2152.34375
522349,37.67266067,17.98396087,249356,-605.0000721,-8388608,5056,2154.296875
521390,37.60349603,17.97905659,249288,-605.0000721,-8388608,5120,2156.25
519542,37.47021526,18.03199387,250022,-605.0000721,-8388608,5184,2158.203125
516605,37.25839403,18.05074549,250282,-605.0000721,-8388608,5248,2160.15625
514793,37.12770964,18.08175779,250712,-605.0000721,-8388608,5312,2162.109375
512655,36.9735136,18.12553562,251319,-605.0000721,-8388608,5376,2164.0625
510460,36.81520662,18.17270317,251973,-605.0000721,-8388608,5440,2166.015625
508435,36.66916033,18.20321062,252396,-605.0000721,-8388608,5504,2167.96875
505523,36.45914214,18.21929374,252619,-605.0000721,-8388608,5568,2169.921875
502995,36.27681867,18.269851,253320,-605.0000721,-8388608,5632,2171.875
500707,36.11180438,18.29747359,253703,-605.0000721,-8388608,5696,2173.828125
497189,35.85808049,18.34615568,254378,-605.0000721,-8388608,5760,2175.78125
494088,35.63443132,18.39952569,255118,-605.0000721,-8388608,5824,2177.734375
490883,35.4032815,18.41871004,255384,-605.0000721,-8388608,5888,2179.6875
488652,35.24237814,18.49833232,256488,-605.0000721,-8388608,5952,2181.640625
484853,34.96838808,18.50705904,256609,-605.0000721,-8388608,6016,2183.59375
481480,34.72512182,18.57139153,257501,-605.0000721,-8388608,6080,2185.546875
478516,34.51135332,18.58675344,257714,-605.0000721,-8388608,6144,2187.5
474149,34.19639816,18.62577124,258255,-605.0000721,-8388608,6208,2189.453125
470663,33.94498216,18.69320496,259190,-605.0000721,-8388608,6272,2191.40625
468711,33.80420075,18.67726608,258969,-605.0000721,-8388608,6336,2193.359375
464738,33.51766151,18.74275252,259877,-605.0000721,-8388608,6400,2195.3125
460602,33.21936646,18.75371501,260029,-605.0000721,-8388608,6464,2197.265625
456183,32.90066098,18.83283244,261126,-605.0000721,-8388608,6528,2199.21875
451579,32.568613,18.83658276,261178,-605.0000721,-8388608,6592,2201.171875
446488,32.20144179,18.89961706,262052,-605.0000721,-8388608,6656,2203.125
442352,31.90314673,18.94051003,262619,-605.0000721,-8388608,6720,2205.078125
436182,31.45815628,18.98197996,263194,-605.0000721,-8388608,6784,2207.03125
430946,31.08052743,18.98594665,263249,-605.0000721,-8388608,6848,2208.984375
424457,30.61253019,19.04833186,264114,-605.0000721,-8388608,6912,2210.9375
418703,30.19754233,19.0784787,264532,-605.0000721,-8388608,6976,2212.890625
411946,29.71021649,19.11886682,265092,-605.0000721,-8388608,7040,2214.84375
405206,29.22411671,19.16221191,265693,-605.0000721,-8388608,7104,2216.796875
398165,28.71630832,19.23332384,266679,-605.0000721,-8388608,7168,2218.75
390576,28.16897728,19.24544027,266847,-605.0000721,-8388608,7232,2220.703125
382504,27.58681149,19.3148934,267810,-605.0000721,-8388608,7296,2222.65625
373964,26.97089278,19.34020809,268161,-605.0000721,-8388608,7360,2224.609375
364774,26.30809502,19.36581127,268516,-605.0000721,-8388608,7424,2226.5625
355499,25.63916691,19.42949467,269399,-605.0000721,-8388608,7488,2228.515625
350473,25.2766836,19.47089249,269973,-605.0000721,-8388608,7552,2230.46875
342144,24.67598256,19.5192861,270644,-605.0000721,-8388608,7616,2232.421875
335549,24.20034041,19.56501121,271278,-605.0000721,-8388608,7680,2234.375
328526,23.69383022,19.60763509,271869,-605.0000721,-8388608,7744,2236.328125
322633,23.26881746,19.65054746,272464,-605.0000721,-8388608,7808,2238.28125
317055,22.86652301,19.69281074,273050,-605.0000721,-8388608,7872,2240.234375
312149,22.5126943,19.75909051,273969,-605.0000721,-8388608,7936,2242.1875
307670,22.18966153,19.80611382,274621,-605.0000721,-8388608,8000,2244.140625
303722,21.90492534,19.85256014,275265,-605.0000721,-8388608,8064,2246.09375
300738,21.68971439,19.88927005,275774,-605.0000721,-8388608,8128,2248.046875
297156,21.43137472,19.96139168,276774,-605.0000721,-8388608,8192,2250
294011,21.2045522,20.00516951,277381,-605.0000721,-8388608,8256,2251.953125
291127,20.99655342,20.026806,277681,-605.0000721,-8388608,8320,2253.90625
289241,20.86053203,20.11053921,278842,-605.0000721,-8388608,8384,2255.859375
285445,20.58675833,20.15294673,279430,-605.0000721,-8388608,8448,2257.8125
283258,20.42902832,20.20206156,280111,-605.0000721,-8388608,8512,2259.765625
279203,20.13657512,20.27158681,281075,-605.0000721,-8388608,8576,2261.71875
276376,19.93268727,20.2882469,281306,-605.0000721,-8388608,8640,2263.671875
274775,19.81722055,20.40580516,282936,-605.0000721,-8388608,8704,2265.625
273395,19.7176927,20.46314185,283731,-605.0000721,-8388608,8768,2267.578125
270905,19.53810984,20.35106484,282177,-605.0000721,-8388608,8832,2269.53125
269578,19.44240444,20.48773533,284072,-605.0000721,-8388608,8896,2271.484375
267607,19.30025271,20.53692228,284754,-605.0000721,-8388608,8960,2273.4375
265851,19.17360713,20.57182915,285238,-605.0000721,-8388608,9024,2275.390625
264130,19.04948581,20.60406752,285685,-605.0000721,-8388608,9088,2277.34375
262544,18.93510091,20.65044172,286328,-605.0000721,-8388608,9152,2279.296875
260549,18.79121826,20.71217784,287184,-605.0000721,-8388608,9216,2281.25
259224,18.6956571,20.75826356,287823,-605.0000721,-8388608,9280,2283.203125
256086,18.46933943,20.81329236,288586,-605.0000721,-8388608,9344,2285.15625
253763,18.30180088,20.84401618,289012,-605.0000721,-8388608,9408,2287.109375
251329,18.12625684,20.89789103,289759,-605.0000721,-8388608,9472,2289.0625
248479,17.9207102,20.94303917,290385,-605.0000721,-8388608,9536,2291.015625
245553,17.70968231,21.00946319,291306,-605.0000721,-8388608,9600,2292.96875
242483,17.48826891,21.02280569,291491,-605.0000721,-8388608,9664,2294.921875
239764,17.2921702,21.07660843,292237,-605.0000721,-8388608,9728,2296.875
237553,17.13270928,21.13098814,292991,-605.0000721,-8388608,9792,2298.828125
234514,16.91353165,21.18774786,293778,-605.0000721,-8388608,9856,2300.78125
232013,16.73315546,21.20606675,294032,-605.0000721,-8388608,9920,2302.734375
230386,16.61581357,21.2499167,294640,-605.0000721,-8388608,9984,2304.6875
229249,16.53381128,21.28114537,295073,-605.0000721,-8388608,10048,2306.640625
227307,16.39375107,21.32816867,295725,-605.0000721,-8388608,10112,2308.59375
225608,16.27121642,21.38052897,296451,-605.0000721,-8388608,10176,2310.546875
224378,16.18250682,21.41716676,296959,-605.0000721,-8388608,10240,2312.5
223951,16.15171089,21.46959918,297686,-605.0000721,-8388608,10304,2314.453125
222094,16.01778102,21.50587636,298189,-605.0000721,-8388608,10368,2316.40625
220873,15.92972051,21.54857237,298781,-605.0000721,-8388608,10432,2318.359375
220433,15.897987,21.59090776,299368,-605.0000721,-8388608,10496,2320.3125
219674,15.84324668,21.6500475,300188,-605.0000721,-8388608,10560,2322.265625
218433,15.75374374,21.68581983,300684,-605.0000721,-8388608,10624,2324.21875
217222,15.66640445,21.72858795,301277,-605.0000721,-8388608,10688,2326.171875
217470,15.68429061,21.74870989,301556,-605.0000721,-8388608,10752,2328.125
215964,15.57567544,21.79522834,302201,-605.0000721,-8388608,10816,2330.078125
215550,15.54581708,21.84189103,302848,-605.0000721,-8388608,10880,2332.03125
215094,15.51292962,21.88776039,303484,-605.0000721,-8388608,10944,2333.984375
215637,15.55209166,21.91617631,303878,-605.0000721,-8388608,11008,2335.9375
214642,15.48033064,21.97012329,304626,-605.0000721,-8388608,11072,2337.890625
214159,15.4454959,22.04534615,305669,-605.0000721,-8388608,11136,2339.84375
214434,15.46532934,22.06438626,305933,-605.0000721,-8388608,11200,2341.796875
213149,15.37265305,22.08349849,306198,-605.0000721,-8388608,11264,2343.75
212724,15.34200136,22.11032773,306570,-605.0000721,-8388608,11328,2345.703125
211862,15.27983252,22.1462443,307068,-605.0000721,-8388608,11392,2347.65625
211156,15.22891465,22.19896522,307799,-605.0000721,-8388608,11456,2349.609375
210129,15.15484573,22.20812466,307926,-605.0000721,-8388608,11520,2351.5625
209548,15.11294307,22.25622979,308593,-605.0000721,-8388608,11584,2353.515625
208754,15.05567849,22.29986337,309198,-605.0000721,-8388608,11648,2355.46875
207751,14.9833405,22.33541934,309691,-605.0000721,-8388608,11712,2357.421875
207717,14.98088836,22.35402672,309949,-605.0000721,-8388608,11776,2359.375
206721,14.90905522,22.40242033,310620,-605.0000721,-8388608,11840,2361.328125
206166,14.86902772,22.44013994,311143,-605.0000721,-8388608,11904,2363.28125
205783,14.84140513,22.48045593,311702,-605.0000721,-8388608,11968,2365.234375
205096,14.79185758,22.51954586,312244,-605.0000721,-8388608,12032,2367.1875
204479,14.74735853,22.57414193,313001,-605.0000721,-8388608,12096,2369.140625
203684,14.69002184,22.58503229,313152,-605.0000721,-8388608,12160,2371.09375
202812,14.62713178,22.62643011,313726,-605.0000721,-8388608,12224,2373.046875
202170,14.58082969,22.64496537,313983,-605.0000721,-8388608,12288,2375
201802,14.55428893,22.67179461,314355,-605.0000721,-8388608,12352,2376.953125
201668,14.54462463,22.71874579,315006,-605.0000721,-8388608,12416,2378.90625
202166,14.5805412,22.75206599,315468,-605.0000721,-8388608,12480,2380.859375
201360,14.52241117,22.76374969,315630,-605.0000721,-8388608,12544,2382.8125
201420,14.52673847,22.81120572,316288,-605.0000721,-8388608,12608,2384.765625
201522,14.53409487,22.83341918,316596,-605.0000721,-8388608,12672,2386.71875
201063,14.50099105,22.8711388,317119,-605.0000721,-8388608,12736,2388.671875
201404,14.52558452,22.88751041,317346,-605.0000721,-8388608,12800,2390.625
200867,14.48685521,22.91736876,317760,-605.0000721,-8388608,12864,2392.578125
200666,14.47235876,22.94535195,318148,-605.0000721,-8388608,12928,2394.53125
200544,14.46355992,22.97030604,318494,-605.0000721,-8388608,12992,2396.484375
200893,14.48873037,23.01581478,319125,-605.0000721,-8388608,13056,2398.4375
201176,14.50914079,23.0368743,319417,-605.0000721,-8388608,13120,2400.390625
201558,14.53669125,23.06550659,319814,-605.0000721,-8388608,13184,2402.34375
201493,14.53200335,23.10264922,320329,-605.0000721,-8388608,13248,2404.296875
201552,14.53625852,23.1309209,320721,-605.0000721,-8388608,13312,2406.25
201631,14.54195613,23.16135623,321143,-605.0000721,-8388608,13376,2408.203125
201924,14.56308777,23.20708134,321777,-605.0000721,-8388608,13440,2410.15625
203443,14.67264052,23.2262657,322043,-605.0000721,-8388608,13504,2412.109375
203124,14.64963372,23.25749436,322476,-605.0000721,-8388608,13568,2414.0625
204019,14.71418258,23.2929782,322968,-605.0000721,-8388608,13632,2416.015625
203776,14.69665703,23.32146625,323363,-605.0000721,-8388608,13696,2417.96875
203676,14.68944486,23.33170752,323505,-605.0000721,-8388608,13760,2419.921875
203491,14.67610236,23.37094168,324049,-605.0000721,-8388608,13824,2421.875
204871,14.77563021,23.41681104,324685,-605.0000721,-8388608,13888,2423.828125
204204,14.72752508,23.43484145,324935,-605.0000721,-8388608,13952,2425.78125
204620,14.75752768,23.45626157,325232,-605.0000721,-8388608,14016,2427.734375
205014,14.7859436,23.48143202,325581,-605.0000721,-8388608,14080,2429.6875
206245,14.87472533,23.50400609,325894,-605.0000721,-8388608,14144,2431.640625
206224,14.87321077,23.53097958,326268,-605.0000721,-8388608,14208,2433.59375
206699,14.90746855,23.56487674,326738,-605.0000721,-8388608,14272,2435.546875
207727,14.98160958,23.60988064,327362,-605.0000721,-8388608,14336,2437.5
208595,15.04421115,23.61629946,327451,-605.0000721,-8388608,14400,2439.453125
208123,15.01016975,23.65070148,327928,-605.0000721,-8388608,14464,2441.40625
208846,15.06231368,23.69303688,328515,-605.0000721,-8388608,14528,2443.359375
210053,15.14936449,23.70969697,328746,-605.0000721,-8388608,14592,2445.3125
209299,15.09498478,23.75895605,329429,-605.0000721,-8388608,14656,2447.265625
209028,15.07543982,23.76761064,329549,-605.0000721,-8388608,14720,2449.21875
208928,15.06822766,23.79811809,329972,-605.0000721,-8388608,14784,2451.171875
209543,15.11258246,23.81896124,330261,-605.0000721,-8388608,14848,2453.125
208561,15.04175902,23.84766565,330659,-605.0000721,-8388608,14912,2455.078125
208713,15.05272151,23.872187,330999,-605.0000721,-8388608,14976,2457.03125
208953,15.0700307,23.89995383,331384,-605.0000721,-8388608,15040,2458.984375
208858,15.06317914,23.93204796,331829,-605.0000721,-8388608,15104,2460.9375
209028,15.07543982,23.95382869,332131,-605.0000721,-8388608,15168,2462.890625
208997,15.07320405,23.98368704,332545,-605.0000721,-8388608,15232,2464.84375
209219,15.08921505,24.01260781,332946,-605.0000721,-8388608,15296,2466.796875
208477,15.0357008,24.02970064,333183,-605.0000721,-8388608,15360,2468.75
208319,15.02430558,24.09013857,334021,-605.0000721,-8388608,15424,2470.703125
207926,14.99596178,24.11155869,334318,-605.0000721,-8388608,15488,2472.65625
208717,15.05300999,24.12980546,334571,-605.0000721,-8388608,15552,2474.609375
207656,14.97648895,24.1759633,335211,-605.0000721,-8388608,15616,2476.5625
207694,14.97922957,24.20827379,335659,-605.0000721,-8388608,15680,2478.515625
207866,14.99163449,24.23856488,336079,-605.0000721,-8388608,15744,2480.46875
208253,15.01954556,24.40494947,338386,-605.0000721,-8388608,15808,2482.421875
206087,14.86333011,24.1989701,335530,-605.0000721,-8388608,15872,2484.375
205433,14.81616256,24.25234011,336270,-605.0000721,-8388608,15936,2486.328125
203443,14.67264052,24.16976084,335125,-605.0000721,-8388608,16000,2488.28125
209105,15.08099319,24.73894474,343017,-605.0000721,-8388608,16064,2490.234375
202567,14.60946198,24.17502572,335198,-605.0000721,-8388608,16128,2492.1875
205628,14.83022628,24.55236608,340430,-605.0000721,-8388608,16192,2494.140625
208011,15.00209212,24.8301786,344282,-605.0000721,-8388608,16256,2496.09375
200805,14.48238367,24.26380745,336429,-605.0000721,-8388608,16320,2498.046875
205964,14.85445915,24.75654242,343261,-605.0000721,-8388608,16384,2500
203382,14.6682411,24.62513681,341439,-605.0000721,-8388608,16448,2501.953125
201955,14.56532354,24.61338098,341276,-605.0000721,-8388608,16512,2503.90625
200399,14.45310229,24.50411671,339761,-605.0000721,-8388608,16576,2505.859375
199603,14.39569347,24.61532827,341303,-605.0000721,-8388608,16640,2507.8125
199101,14.35948841,24.65759154,341889,-605.0000721,-8388608,16704,2509.765625
199799,14.40982931,24.81741307,344105,-605.0000721,-8388608,16768,2511.71875
200118,14.43283611,24.88225041,345004,-605.0000721,-8388608,16832,2513.671875
198965,14.34967987,24.8425114,344453,-605.0000721,-8388608,16896,2515.625
198151,14.29097286,24.83327983,344325,-605.0000721,-8388608,16960,2517.578125
197990,14.27936128,24.82794283,344251,-605.0000721,-8388608,17024,2519.53125
194507,14.02816165,24.64381631,341698,-605.0000721,-8388608,17088,2521.484375
194507,14.02816165,24.64381631,341698,-605.0000721,-8388608,17152,2523.4375
195770,14.11925127,24.96785879,346191,-605.0000721,-8388608,17216,2525.390625
198051,14.2837607,25.28779033,350627,-605.0000721,-8388608,17280,2527.34375
190543,13.74227151,24.65809639,341896,-605.0000721,-8388608,17344,2529.296875
193690,13.96923828,24.99995291,346636,-605.0000721,-8388608,17408,2531.25
192838,13.90779065,25.01185298,346801,-605.0000721,-8388608,17472,2533.203125
190938,13.77075956,24.93951499,345798,-605.0000721,-8388608,17536,2535.15625
191151,13.78612146,24.98776436,346467,-605.0000721,-8388608,17600,2537.109375
187863,13.54898555,24.96461331,346146,-605.0000721,-8388608,17664,2539.0625
187659,13.53427273,25.05245746,347364,-605.0000721,-8388608,17728,2541.015625
190161,13.71472105,25.38082723,351917,-605.0000721,-8388608,17792,2542.96875
187535,13.52532965,25.21884206,349671,-605.0000721,-8388608,17856,2544.921875
185561,13.38296156,25.29399279,350713,-605.0000721,-8388608,17920,2546.875
183416,13.22826066,25.27509693,350451,-605.0000721,-8388608,17984,2548.828125
181811,13.11250545,25.29507462,350728,-605.0000721,-8388608,18048,2550.78125
180098,12.9889611,25.26060048,350250,-605.0000721,-8388608,18112,2552.734375
178578,12.87933622,25.28137151,350538,-605.0000721,-8388608,18176,2554.6875
177534,12.80404124,25.30271951,350834,-605.0000721,-8388608,18240,2556.640625
174907,12.61457772,25.29911343,350784,-605.0000721,-8388608,18304,2558.59375
173494,12.51266986,25.39251094,352079,-605.0000721,-8388608,18368,2560.546875
171717,12.38450973,25.37411992,351824,-605.0000721,-8388608,18432,2562.5
170059,12.26493207,25.41450803,352384,-605.0000721,-8388608,18496,2564.453125
168446,12.14859988,25.36986475,351765,-605.0000721,-8388608,18560,2566.40625
166691,12.02202642,25.45518463,352948,-605.0000721,-8388608,18624,2568.359375
166344,11.99700022,25.38479392,351972,-605.0000721,-8388608,18688,2570.3125
163599,11.79902635,25.45078521,352887,-605.0000721,-8388608,18752,2572.265625
161677,11.66040858,25.55024094,354266,-605.0000721,-8388608,18816,2574.21875
159817,11.52626235,25.47033018,353158,-605.0000721,-8388608,18880,2576.171875
158133,11.40480952,25.49961156,353564,-605.0000721,-8388608,18944,2578.125
156045,11.25421956,25.47653264,353244,-605.0000721,-8388608,19008,2580.078125
153837,11.09497501,25.53148932,354006,-605.0000721,-8388608,19072,2582.03125
152136,10.97229612,25.55355853,354312,-605.0000721,-8388608,19136,2583.984375
150176,10.83093772,25.57021863,354543,-605.0000721,-8388608,19200,2585.9375
149246,10.76386461,25.65517791,355721,-605.0000721,-8388608,19264,2587.890625
147187,10.61536617,25.58103688,354693,-605.0000721,-8388608,19328,2589.84375
145326,10.48114782,25.66830405,355903,-605.0000721,-8388608,19392,2591.796875
144268,10.40484314,25.64551361,355587,-605.0000721,-8388608,19456,2593.75
141912,10.23492458,25.64493664,355579,-605.0000721,-8388608,19520,2595.703125
140394,10.12544395,25.64919181,355638,-605.0000721,-8388608,19584,2597.65625
138504,9.989134072,25.66513069,355859,-605.0000721,-8388608,19648,2599.609375
136998,9.880518899,25.71020671,356484,-605.0000721,-8388608,19712,2601.5625
135261,9.75524363,25.68171867,356089,-605.0000721,-8388608,19776,2603.515625
133713,9.643599348,25.77720771,357413,-605.0000721,-8388608,19840,2605.46875
132693,9.570035287,25.70876428,356464,-605.0000721,-8388608,19904,2607.421875
131614,9.49221605,25.66671737,355881,-605.0000721,-8388608,19968,2609.375
130836,9.436105423,25.74136326,356916,-605.0000721,-8388608,20032,2611.328125
129414,9.333548466,25.73436746,356819,-605.0000721,-8388608,20096,2613.28125
127753,9.213754441,25.71554371,356558,-605.0000721,-8388608,20160,2615.234375
126515,9.124467865,25.7211692,356636,-605.0000721,-8388608,20224,2617.1875
125251,9.033306126,25.72556862,356697,-605.0000721,-8388608,20288,2619.140625
124448,8.975392458,25.75578758,357116,-605.0000721,-8388608,20352,2621.09375
123558,8.911204208,25.72535225,356694,-605.0000721,-8388608,20416,2623.046875
122693,8.848818999,25.73443958,356820,-605.0000721,-8388608,20480,2625
122089,8.805257536,25.74893603,357021,-605.0000721,-8388608,20544,2626.953125
121666,8.774750087,25.78701625,357549,-605.0000721,-8388608,20608,2628.90625
122499,8.834827403,25.77590952,357395,-605.0000721,-8388608,20672,2630.859375
121938,8.79436717,25.80879698,357851,-605.0000721,-8388608,20736,2632.8125
121584,8.768836113,25.76970706,357309,-605.0000721,-8388608,20800,2634.765625
121605,8.770350667,25.77778468,357421,-605.0000721,-8388608,20864,2636.71875
121584,8.768836113,25.77302465,357355,-605.0000721,-8388608,20928,2638.671875
121912,8.792492007,25.77446708,357375,-605.0000721,-8388608,20992,2640.625
122269,8.818239429,25.73977658,356894,-605.0000721,-8388608,21056,2642.578125
122556,8.838938336,25.75622031,357122,-605.0000721,-8388608,21120,2644.53125
123536,8.909617532,25.76602885,357258,-605.0000721,-8388608,21184,2646.484375
123139,8.880985246,25.7735295,357362,-605.0000721,-8388608,21248,2648.4375
123864,8.933273427,25.78297744,357493,-605.0000721,-8388608,21312,2650.390625
123001,8.871032461,25.86332093,358607,-605.0000721,-8388608,21376,2652.34375
123779,8.927143088,25.7778568,357422,-605.0000721,-8388608,21440,2654.296875
124101,8.950366253,25.81478307,357934,-605.0000721,-8388608,21504,2656.25
124741,8.996524095,25.75528273,357109,-605.0000721,-8388608,21568,2658.203125
125327,9.03878737,25.82466374,358071,-605.0000721,-8388608,21632,2660.15625
126161,9.098936808,25.85567604,358501,-605.0000721,-8388608,21696,2662.109375
127093,9.166154166,25.83771775,358252,-605.0000721,-8388608,21760,2664.0625
127865,9.221832063,25.80374847,357781,-605.0000721,-8388608,21824,2666.015625
129293,9.324821749,25.853873,358476,-605.0000721,-8388608,21888,2667.96875
130723,9.427955678,25.78492472,357520,-605.0000721,-8388608,21952,2669.921875
130674,9.424421719,25.87644707,358789,-605.0000721,-8388608,22016,2671.875
132221,9.535993878,25.83634744,358233,-605.0000721,-8388608,22080,2673.828125
132684,9.569386192,25.8869047,358934,-605.0000721,-8388608,22144,2675.78125
133702,9.642806011,25.82004795,358007,-605.0000721,-8388608,22208,2677.734375
135161,9.748031467,25.86180638,358586,-605.0000721,-8388608,22272,2679.6875
135909,9.801978445,25.83512137,358216,-605.0000721,-8388608,22336,2681.640625
136399,9.837318043,25.8612294,358578,-605.0000721,-8388608,22400,2683.59375
137406,9.909944524,25.86793671,358671,-605.0000721,-8388608,22464,2685.546875
138618,9.997355938,25.8408911,358296,-605.0000721,-8388608,22528,2687.5
140209,10.11210145,25.84298263,358325,-605.0000721,-8388608,22592,2689.453125
140573,10.13835372,25.8692349,358689,-605.0000721,-8388608,22656,2691.40625
141414,10.19900801,25.88502954,358908,-605.0000721,-8388608,22720,2693.359375
142459,10.27437511,25.83360682,358195,-605.0000721,-8388608,22784,2695.3125
143292,10.33445243,25.8275486,358111,-605.0000721,-8388608,22848,2697.265625
144279,10.40563648,25.88546227,358914,-605.0000721,-8388608,22912,2699.21875
144807,10.4437167,25.79877207,357712,-605.0000721,-8388608,22976,2701.171875
145273,10.47732538,25.83274136,358183,-605.0000721,-8388608,23040,2703.125
146318,10.55269248,25.8478869,358393,-605.0000721,-8388608,23104,2705.078125
146146,10.54028756,25.83793412,358255,-605.0000721,-8388608,23168,2707.03125
146751,10.58392114,25.82884679,358129,-605.0000721,-8388608,23232,2708.984375
147236,10.61890013,25.82956801,358139,-605.0000721,-8388608,23296,2710.9375
147631,10.64738818,25.82156251,358028,-605.0000721,-8388608,23360,2712.890625
147768,10.65726884,25.81997583,358006,-605.0000721,-8388608,23424,2714.84375
148314,10.69664725,25.7891799,357579,-605.0000721,-8388608,23488,2716.796875
148558,10.71424493,25.81370125,357919,-605.0000721,-8388608,23552,2718.75
149806,10.80425272,25.80273876,357767,-605.0000721,-8388608,23616,2720.703125
149163,10.75787851,25.80410907,357786,-605.0000721,-8388608,23680,2722.65625
149613,10.79033325,25.75557122,357113,-605.0000721,-8388608,23744,2724.609375
149106,10.75376758,25.80014238,357731,-605.0000721,-8388608,23808,2726.5625
149187,10.75960943,25.78607867,357536,-605.0000721,-8388608,23872,2728.515625
149178,10.75896034,25.75362393,357086,-605.0000721,-8388608,23936,2730.46875
150488,10.85343967,25.77122161,357330,-605.0000721,-8388608,24000,2732.421875
149364,10.77237496,25.72809288,356732,-605.0000721,-8388608,24064,2734.375
150412,10.84795843,25.79408417,357647,-605.0000721,-8388608,24128,2736.328125
149481,10.78081319,25.79091082,357603,-605.0000721,-8388608,24192,2738.28125
150214,10.83367834,25.77345738,357361,-605.0000721,-8388608,24256,2740.234375
149857,10.80793092,25.78146288,357472,-605.0000721,-8388608,24320,2742.1875
150113,10.82639406,25.75881669,357158,-605.0000721,-8388608,24384,2744.140625
150208,10.83324562,25.77114949,357329,-605.0000721,-8388608,24448,2746.09375
151386,10.91820489,25.78665564,357544,-605.0000721,-8388608,24512,2748.046875
150768,10.87363373,25.79134354,357609,-605.0000721,-8388608,24576,2750
151776,10.94633233,25.81507156,357938,-605.0000721,-8388608,24640,2751.953125
151179,10.90327572,25.79076657,357601,-605.0000721,-8388608,24704,2753.90625
151519,10.92779707,25.78189561,357478,-605.0000721,-8388608,24768,2755.859375
152024,10.96421849,25.79841146,357707,-605.0000721,-8388608,24832,2757.8125
152218,10.97821009,25.82430313,358066,-605.0000721,-8388608,24896,2759.765625
152878,11.02581036,25.74807057,357009,-605.0000721,-8388608,24960,2761.71875
153247,11.05242325,25.83670805,358238,-605.0000721,-8388608,25024,2763.671875
153653,11.08170463,25.74107477,356912,-605.0000721,-8388608,25088,2765.625
154334,11.13081946,25.7608361,357186,-605.0000721,-8388608,25152,2767.578125
155635,11.22464969,25.75513849,357107,-605.0000721,-8388608,25216,2769.53125
155875,11.24195889,25.77266404,357350,-605.0000721,-8388608,25280,2771.484375
156684,11.30030528,25.76934645,357304,-605.0000721,-8388608,25344,2773.4375
157911,11.38879852,25.74994573,357035,-605.0000721,-8388608,25408,2775.390625
159156,11.47858995,25.76242277,357208,-605.0000721,-8388608,25472,2777.34375
160965,11.60905798,25.69520541,356276,-605.0000721,-8388608,25536,2779.296875
161078,11.61720772,25.7361705,356844,-605.0000721,-8388608,25600,2781.25
163011,11.75661883,25.74770996,357004,-605.0000721,-8388608,25664,2783.203125
163591,11.79844937,25.74460873,356961,-605.0000721,-8388608,25728,2785.15625
165613,11.94427931,25.73775717,356866,-605.0000721,-8388608,25792,2787.109375
166201,11.98668682,25.74028143,356901,-605.0000721,-8388608,25856,2789.0625
167833,12.10438932,25.77742407,357416,-605.0000721,-8388608,25920,2791.015625
169354,12.21408632,25.76249489,357209,-605.0000721,-8388608,25984,2792.96875
170569,12.3017141,25.76559612,357252,-605.0000721,-8388608,26048,2794.921875
171235,12.3497471,25.72845348,356737,-605.0000721,-8388608,26112,2796.875
172691,12.45475619,25.81362913,357918,-605.0000721,-8388608,26176,2798.828125
174649,12.59597034,25.76170156,357198,-605.0000721,-8388608,26240,2800.78125
175164,12.63311298,25.77901075,357438,-605.0000721,-8388608,26304,2802.734375
176413,12.7231929,25.80144057,357749,-605.0000721,-8388608,26368,2804.6875
178426,12.86837374,25.85300754,358464,-605.0000721,-8388608,26432,2806.640625
178706,12.88856779,25.78175137,357476,-605.0000721,-8388608,26496,2808.59375
179980,12.98045075,25.84904085,358409,-605.0000721,-8388608,26560,2810.546875
180968,13.05170692,25.80497453,357798,-605.0000721,-8388608,26624,2812.5
181838,13.11445273,25.82343767,358054,-605.0000721,-8388608,26688,2814.453125
182417,13.15621116,25.83836685,358261,-605.0000721,-8388608,26752,2816.40625
183134,13.20792236,25.8442087,358342,-605.0000721,-8388608,26816,2818.359375
184262,13.28927556,25.84464143,358348,-605.0000721,-8388608,26880,2820.3125
185578,13.38418762,25.88257741,358874,-605.0000721,-8388608,26944,2822.265625
186591,13.45724683,25.87103794,358714,-605.0000721,-8388608,27008,2824.21875
187106,13.49438947,25.86014758,358563,-605.0000721,-8388608,27072,2826.171875
187925,13.55345709,25.83778987,358253,-605.0000721,-8388608,27136,2828.125
188839,13.61937626,25.89909326,359103,-605.0000721,-8388608,27200,2830.078125
190444,13.73513147,25.84810327,358396,-605.0000721,-8388608,27264,2832.03125
190314,13.72575566,25.8638979,358615,-605.0000721,-8388608,27328,2833.984375
191545,13.81453738,25.88870774,358959,-605.0000721,-8388608,27392,2835.9375
191708,13.82629321,25.87767313,358806,-605.0000721,-8388608,27456,2837.890625
192201,13.86184917,25.84644447,358373,-605.0000721,-8388608,27520,2839.84375
193011,13.92026769,25.86844157,358678,-605.0000721,-8388608,27584,2841.796875
193556,13.95957398,25.81759582,357973,-605.0000721,-8388608,27648,2843.75
194743,14.04518235,25.84168444,358307,-605.0000721,-8388608,27712,2845.703125
194588,14.0340035,25.87882708,358822,-605.0000721,-8388608,27776,2847.65625
196303,14.15769209,25.82790921,358116,-605.0000721,-8388608,27840,2849.609375
196057,14.13995017,25.81096063,357881,-605.0000721,-8388608,27904,2851.5625
196810,14.19425776,25.88358711,358888,-605.0000721,-8388608,27968,2853.515625
197603,14.25145021,25.83930443,358274,-605.0000721,-8388608,28032,2855.46875
199185,14.36554663,25.83908806,358271,-605.0000721,-8388608,28096,2857.421875
198959,14.34924714,25.81889401,357991,-605.0000721,-8388608,28160,2859.375
199354,14.37773518,25.82185099,358032,-605.0000721,-8388608,28224,2861.328125
199911,14.41790693,25.81038365,357873,-605.0000721,-8388608,28288,2863.28125
200279,14.44444769,25.82596193,358089,-605.0000721,-8388608,28352,2865.234375
199991,14.42367666,25.83389531,358199,-605.0000721,-8388608,28416,2867.1875
200200,14.43875008,25.7842035,357510,-605.0000721,-8388608,28480,2869.140625
200583,14.46637266,25.79776237,357698,-605.0000721,-8388608,28544,2871.09375
200906,14.48966795,25.78023681,357455,-605.0000721,-8388608,28608,2873.046875
200223,14.44040888,25.81629763,357955,-605.0000721,-8388608,28672,2875
200536,14.46298295,25.75737426,357138,-605.0000721,-8388608,28736,2876.953125
201088,14.50279409,25.79040596,357596,-605.0000721,-8388608,28800,2878.90625
200049,14.42785971,25.77172646,357337,-605.0000721,-8388608,28864,2880.859375
199800,14.40990143,25.74605116,356981,-605.0000721,-8388608,28928,2882.8125
199169,14.36439268,25.75066695,357045,-605.0000721,-8388608,28992,2884.765625
199126,14.36129145,25.75434515,357096,-605.0000721,-8388608,29056,2886.71875
198811,14.33857314,25.76307187,357217,-605.0000721,-8388608,29120,2888.671875
198288,14.30085353,25.71056732,356489,-605.0000721,-8388608,29184,2890.625
197489,14.24322835,25.71525523,356554,-605.0000721,-8388608,29248,2892.578125
197364,14.23421314,25.71864494,356601,-605.0000721,-8388608,29312,2894.53125
195871,14.12653555,25.70472547,356408,-605.0000721,-8388608,29376,2896.484375
195038,14.06645823,25.72369346,356671,-605.0000721,-8388608,29440,2898.4375
195100,14.07092977,25.70111939,356358,-605.0000721,-8388608,29504,2900.390625
193190,13.93317746,25.6527979,355688,-605.0000721,-8388608,29568,2902.34375
193012,13.92033981,25.66275068,355826,-605.0000721,-8388608,29632,2904.296875
191361,13.801267,25.65690883,355745,-605.0000721,-8388608,29696,2906.25
191266,13.79441545,25.69354662,356253,-605.0000721,-8388608,29760,2908.203125
189956,13.69993612,25.69037326,356209,-605.0000721,-8388608,29824,2910.15625
189274,13.65074916,25.65878399,355771,-605.0000721,-8388608,29888,2912.109375
188750,13.61295743,25.61089523,355107,-605.0000721,-8388608,29952,2914.0625
188538,13.59766765,25.60296185,354997,-605.0000721,-8388608,30016,2916.015625
187078,13.49237007,25.59892304,354941,-605.0000721,-8388608,30080,2917.96875
186914,13.48054212,25.61031826,355099,-605.0000721,-8388608,30144,2919.921875
186331,13.43849521,25.56956954,354534,-605.0000721,-8388608,30208,2921.875
184488,13.30557505,25.54879851,354246,-605.0000721,-8388608,30272,2923.828125
183841,13.25891236,25.48792785,353402,-605.0000721,-8388608,30336,2925.78125
183140,13.20835509,25.5050928,353640,-605.0000721,-8388608,30400,2927.734375
182426,13.15686025,25.51973349,353843,-605.0000721,-8388608,30464,2929.6875
182306,13.14820566,25.49622184,353517,-605.0000721,-8388608,30528,2931.640625
181157,13.0653379,25.46636349,353103,-605.0000721,-8388608,30592,2933.59375
180691,13.03172923,25.49203879,353459,-605.0000721,-8388608,30656,2935.546875
180113,12.99004292,25.4397506,352734,-605.0000721,-8388608,30720,2937.5
180251,12.99999571,25.46571439,353094,-605.0000721,-8388608,30784,2939.453125
181029,13.05610634,25.45410281,352933,-605.0000721,-8388608,30848,2941.40625
180976,13.05228389,25.41450803,352384,-605.0000721,-8388608,30912,2943.359375
181244,13.07161249,25.44616943,352823,-605.0000721,-8388608,30976,2945.3125
182203,13.14077713,25.43167298,352622,-605.0000721,-8388608,31040,2947.265625
181829,13.11380364,25.39525156,352117,-605.0000721,-8388608,31104,2949.21875
182838,13.18657436,25.38674121,351999,-605.0000721,-8388608,31168,2951.171875
181789,13.11091877,25.41768139,352428,-605.0000721,-8388608,31232,2953.125
182096,13.13306011,25.38688545,352001,-605.0000721,-8388608,31296,2955.078125
182368,13.1526772,25.40368979,352234,-605.0000721,-8388608,31360,2957.03125
182761,13.181021,25.38623636,351992,-605.0000721,-8388608,31424,2958.984375
183745,13.25198868,25.38378422,351958,-605.0000721,-8388608,31488,2960.9375
182782,13.18253555,25.38674121,351999,-605.0000721,-8388608,31552,2962.890625
183703,13.24895957,25.40022795,352186,-605.0000721,-8388608,31616,2964.84375
183782,13.25465718,25.3623641,351661,-605.0000721,-8388608,31680,2966.796875
182877,13.18938711,25.34959857,351484,-605.0000721,-8388608,31744,2968.75
182283,13.14654686,25.38291876,351946,-605.0000721,-8388608,31808,2970.703125
181529,13.09216715,25.35457496,351553,-605.0000721,-8388608,31872,2972.65625
181043,13.05711604,25.3520507,351518,-605.0000721,-8388608,31936,2974.609375
180479,13.01643944,25.33113543,351228,-605.0000721,-8388608,32000,2976.5625
178719,12.88950537,25.30863348,350916,-605.0000721,-8388608,32064,2978.515625
177631,12.81103704,25.28973762,350654,-605.0000721,-8388608,32128,2980.46875
176715,12.74497363,25.32305781,351116,-605.0000721,-8388608,32192,2982.421875
174327,12.57274718,25.30120496,350813,-605.0000721,-8388608,32256,2984.375
173458,12.51007348,25.3206778,351083,-605.0000721,-8388608,32320,2986.328125
171654,12.37996607,25.26088897,350254,-605.0000721,-8388608,32384,2988.28125
170679,12.30964748,25.24920526,350092,-605.0000721,-8388608,32448,2990.234375
167683,12.09357108,25.24790707,350074,-605.0000721,-8388608,32512,2992.1875
165381,11.92754709,25.22663119,349779,-605.0000721,-8388608,32576,2994.140625
163526,11.79376147,25.24740222,350067,-605.0000721,-8388608,32640,2996.09375
162368,11.71024462,25.19843163,349388,-605.0000721,-8388608,32704,2998.046875
159721,11.51933867,25.1746315,349058,-605.0000721,-8388608,32768,3000
158491,11.43062907,25.16532781,348929,-605.0000721,-8388608,32832,3001.953125
155621,11.22363999,25.15616836,348802,-605.0000721,-8388608,32896,3003.90625
154423,11.13723828,25.12234332,348333,-605.0000721,-8388608,32960,3005.859375
151925,10.95707845,25.10878445,348145,-605.0000721,-8388608,33024,3007.8125
150227,10.83461593,25.11837663,348278,-605.0000721,-8388608,33088,3009.765625
148659,10.72152921,25.05656839,347421,-605.0000721,-8388608,33152,3011.71875
147549,10.6414742,25.09875954,348006,-605.0000721,-8388608,33216,3013.671875
146376,10.55687553,25.05022169,347333,-605.0000721,-8388608,33280,3015.625
145508,10.49427396,25.06536723,347543,-605.0000721,-8388608,33344,3017.578125
144375,10.41256015,25.06248236,347503,-605.0000721,-8388608,33408,3019.53125
143927,10.38024966,25.0365907,347144,-605.0000721,-8388608,33472,3021.484375
143379,10.34072701,25.03399432,347108,-605.0000721,-8388608,33536,3023.4375
142744,10.29492978,25.06385268,347522,-605.0000721,-8388608,33600,3025.390625
143410,10.34296278,25.04589439,347273,-605.0000721,-8388608,33664,3027.34375
142064,10.24588707,25.0232482,346959,-605.0000721,-8388608,33728,3029.296875
141904,10.23434761,25.02454639,346977,-605.0000721,-8388608,33792,3031.25
142447,10.27350965,25.02483487,346981,-605.0000721,-8388608,33856,3033.203125
141504,10.20549896,25.01928151,346904,-605.0000721,-8388608,33920,3035.15625
