Device,Device,Device,Device,Device,Device,Device,Device,Device,Device,Device,Device
ECG LL-RA,ECG LL-RA,EXG2 Status,ECG LA-RA,ECG LA-RA,EXG1 Status,ECG Vx-RL,ECG Vx-RL,ExG2 CH1,ExG2 CH1,Timestamp,Timestamp
CAL,RAW,RAW,CAL,RAW,RAW,RAW,CAL,CAL,RAW,CAL,RAW
mV,No Units,No Units,mV,No Units,No Units,No Units,mV,mV,No Units,mSecs,No Units
0.474271831,6576,128,-0.724750248,-10049,128,129032,9.305998004,0.532834593,7388,58.59375,1920
0.463453587,6426,128,-0.734198181,-10180,128,-1,-7.21E-05,0.521223011,7227,78.125,2560
0.42905157,5949,128,-0.760234089,-10541,128,-996,-0.071833142,0.443331652,6147,97.65625,3200
0.431215218,5979,128,-0.760594697,-10546,128,127987,9.230630902,0.556490488,7716,117.1875,3840
0.483287034,6701,128,-0.763191076,-10582,128,-3208,-0.231366185,0.519203606,7199,136.71875,4480
0.515741767,7151,128,-0.749632209,-10394,128,-3624,-0.261368783,0.58627672,8129,156.25,5120
0.522449079,7244,128,-0.753382534,-10446,128,131010,9.448654586,0.590531896,8188,175.78125,5760
0.426383069,5912,128,-0.817715027,-11338,128,128454,9.264311703,0.470809993,6528,195.3125,6400
0.394216823,5466,128,-0.82492719,-11438,128,-3076,-0.22184613,0.56103415,7779,214.84375,7040
0.376186416,5216,128,-0.853054625,-11828,128,127903,9.224572685,0.579280922,8032,234.375,7680
0.374383375,5191,128,-0.850025517,-11786,128,-3712,-0.267715486,0.517039957,7169,253.90625,8320
0.655946214,9095,128,-0.754824967,-10466,128,126984,9.158292908,0.008077622,112,273.4375,8960
1.35718481,18818,128,-0.455592329,-6317,128,-1985,-0.143161433,1.218494918,16895,292.96875,9600
0.623635724,8647,128,-1.033863549,-14335,128,-8192,-0.590820383,1.069058903,14823,312.5,10240
0.420469096,5830,128,-0.88868271,-12322,128,126950,9.155840773,0.574665138,7968,332.03125,10880
0.393928336,5462,128,-0.888033615,-12313,128,126751,9.141488569,0.516967835,7168,351.5625,11520
0.394721674,5473,128,-0.89048575,-12347,128,126912,9.153100151,0.517833295,7180,371.09375,12160
0.422200015,5854,128,-0.879451141,-12194,128,-6226,-0.449029261,0.534493391,7411,390.625,12800
0.413184811,5729,128,-0.901808846,-12504,128,127078,9.165072342,0.589666437,8176,410.15625,13440
0.435831003,6043,128,-0.893514859,-12389,128,-4495,-0.324186721,0.534204904,7407,429.6875,14080
0.4658336,6459,128,-0.870219573,-12066,128,129248,9.321576276,0.516967835,7168,449.21875,14720
0.518698754,7192,128,-0.838630299,-11628,128,-1537,-0.110850943,0.572862097,7943,468.75,15360
0.583031247,8084,128,-0.810070134,-11232,128,130048,9.379273579,0.58360822,8092,488.28125,16000
0.659912903,9150,128,-0.763118954,-10581,128,130540,9.41475742,1.16764917,16190,507.8125,16640
0.670226296,9293,128,-0.775740239,-10756,128,-3897,-0.281057987,1.108870042,15375,527.34375,17280
0.524179998,7268,128,-0.865820153,-12005,128,127232,9.176179072,0.585916112,8124,546.875,17920
0.413329055,5731,128,-0.954385514,-13233,128,126784,9.143868583,0.452346856,6272,566.40625,18560
0.344020169,4770,128,-0.997225761,-13827,128,123391,8.899159896,0.489417373,6786,585.9375,19200
0.329163114,4564,128,-0.999028802,-13852,128,123279,8.891082274,0.474271831,6576,605.46875,19840
0.313079991,4341,128,-1.015833141,-14085,128,123007,8.871465191,0.520429673,7216,625,20480
0.322888532,4477,128,-1.015184047,-14076,128,-6081,-0.438571625,0.528723661,7331,644.53125,21120
0.314306058,4358,128,-1.023550156,-14192,128,123135,8.880696759,0.517400565,7174,664.0625,21760
0.31791214,4408,128,-1.024487737,-14205,128,-8121,-0.585699747,0.521223011,7227,683.59375,22400
0.316469707,4388,128,-1.026218656,-14229,128,-8192,-0.590820383,0.526127282,7295,703.125,23040
0.300170219,4162,128,-1.039200549,-14409,128,-8096,-0.583896707,0.520501795,7217,722.65625,23680
0.297934448,4131,128,-1.033070211,-14324,128,-8192,-0.590820383,0.531320039,7367,742.1875,24320
0.353251738,4898,128,-1.028238061,-14257,128,-6145,-0.443187409,0.549206203,7615,761.71875,24960
0.376691267,5223,128,-1.020953777,-14156,128,123130,8.880336151,0.518987241,7196,781.25,25600
0.409218122,5674,128,-0.999533653,-13859,128,-5889,-0.424724272,0.556418366,7715,800.78125,26240
0.307166017,4259,128,-1.050451523,-14565,128,-8173,-0.589450072,0.516030254,7155,820.3125,26880
0.274494919,3806,128,-1.070645579,-14845,128,123267,8.890216814,0.516967835,7168,839.84375,27520
0.266777905,3699,128,-1.073241958,-14881,128,-6258,-0.451337153,0.276874933,3839,859.375,28160
0.244059592,3384,128,-1.084132324,-15032,128,124447,8.975320336,0.272764,3782,878.90625,28800
0.387942241,5379,128,-1.048576361,-14539,128,124002,8.943226211,0.276947054,3840,898.4375,29440
1.283332262,17794,128,-0.585339139,-8116,128,-32,-0.002307892,0.036854152,511,917.96875,30080
0.594498586,8243,128,-1.228736189,-17037,128,-961,-0.069308885,1.034152035,14339,937.5,30720
0.294328367,4081,128,-1.079155931,-14963,128,-8185,-0.590315532,0.590748261,8191,957.03125,31360
0.28783742,3991,128,-1.058889754,-14682,128,-7424,-0.535430972,0.291876232,4047,976.5625,32000
0.275288257,3817,128,-1.052398807,-14592,128,123780,8.92721521,0.290505921,4028,996.09375,32640
0.301035679,4174,128,-1.026074413,-14227,128,124927,9.009938718,0.295265948,4094,1015.625,33280
0.301612652,4182,128,-1.028382305,-14259,128,125049,9.018737557,0.523603025,7260,1035.15625,33920
0.306949652,4256,128,-1.014751317,-14070,128,-6080,-0.438499503,0.53535885,7423,1054.6875,34560
0.346328061,4802,128,-0.979051111,-13575,128,-4484,-0.323393383,0.575602719,7981,1074.21875,35200
0.390610741,5416,128,-0.932244174,-12926,128,-4607,-0.332264344,0.518049659,7183,1093.75,35840
0.455303842,6313,128,-0.89178394,-12365,128,-97,-0.006995798,0.521511498,7231,1113.28125,36480
0.5198527,7208,128,-0.858824355,-11908,128,-4096,-0.295410191,0.582093666,8071,1132.8125,37120
0.555480785,7702,128,-0.825720528,-11449,128,126977,9.157788057,0.535430972,7424,1152.34375,37760
0.40957873,5679,128,-0.93873512,-13016,128,130936,9.443317585,0.477733669,6624,1171.875,38400
0.304930246,4228,128,-1.004582167,-13929,128,126588,9.129732743,0.481195507,6672,1191.40625,39040
0.215715792,2991,128,-1.051605469,-14581,128,-6272,-0.452346856,0.217446711,3015,1210.9375,39680
0.18463137,2560,128,-1.07288135,-14876,128,123643,8.917334547,0.203959966,2828,1230.46875,40320
0.187660478,2602,128,-1.068842538,-14820,128,122886,8.862738474,0.261801512,3630,1250,40960
0.183405302,2543,128,-1.054201848,-14617,128,-6272,-0.452346856,0.257834823,3575,1269.53125,41600
0.177274964,2458,128,-1.062495835,-14732,128,-6400,-0.461578424,0.254661471,3531,1289.0625,42240
0.172154328,2387,128,-1.055932767,-14641,128,124909,9.008640529,0.240020781,3328,1308.59375,42880
0.161768813,2243,128,-1.04944182,-14551,128,-7996,-0.576684544,0.222062495,3079,1328.125,43520
0.1647258,2284,128,-1.035666589,-14360,128,-6272,-0.452346856,0.238938956,3313,1347.65625,44160
0.147777217,2049,128,-1.045907861,-14502,128,124926,9.009866596,0.229491023,3182,1367.1875,44800
0.140709298,1951,128,-1.043888455,-14474,128,-7936,-0.572357246,0.147488731,2045,1386.71875,45440
0.141286271,1959,128,-1.046845442,-14515,128,-6159,-0.444197112,0.147632974,2047,1406.25,46080
0.160903354,2231,128,-1.040210252,-14423,128,-6167,-0.444774085,0.238938956,3313,1425.78125,46720
0.220043089,3051,128,-1.015256168,-14077,128,-6145,-0.443187409,0.294184124,4079,1445.3125,47360
0.226389793,3139,128,-1.010640384,-14013,128,-6137,-0.442610436,0.29447261,4083,1464.84375,48000
0.153258461,2125,128,-1.02549744,-14219,128,123101,8.878244624,0.226173428,3136,1484.375,48640
0.091161739,1264,128,-1.069707998,-14832,128,123872,8.9338504,0.073708305,1022,1503.90625,49280
0.078973184,1095,128,-1.064659484,-14762,128,-7179,-0.517761173,0.07839621,1087,1523.4375,49920
0.070534953,978,128,-1.061990984,-14725,128,-6269,-0.452130491,0.07839621,1087,1542.96875,50560
0.055461533,769,128,-1.09192146,-15140,128,-6916,-0.498793185,0.073347696,1017,1562.5,51200
1.144858735,15874,128,-0.564495988,-7827,128,-1921,-0.138545649,0.183693788,2547,1582.03125,51840
0.356569333,4944,128,-1.207748795,-16746,128,130806,9.433941774,0.365800901,5072,1601.5625,52480
0.105513943,1463,128,-1.068770417,-14819,128,-7712,-0.556202001,0.130035297,1803,1621.09375,53120
0.085103522,1180,128,-1.054201848,-14617,128,-7568,-0.545816487,0.09830178,1363,1640.625,53760
0.07616044,1056,128,-1.05650974,-14649,128,-6153,-0.443764382,0.076088318,1055,1660.15625,54400
0.083949576,1164,128,-1.045042401,-14490,128,-8065,-0.581660936,0.090801131,1259,1679.6875,55040
0.09830178,1363,128,-1.028238061,-14257,128,-8179,-0.589882802,0.093397509,1295,1699.21875,55680
0.109913362,1524,128,-1.02419925,-14201,128,123103,8.878388867,0.129241959,1792,1718.75,56320
0.117918863,1635,128,-1.01265979,-14041,128,124929,9.010082961,0.129241959,1792,1738.28125,56960
0.177058599,2455,128,-0.962102528,-13340,128,125055,9.019170287,0.260503323,3612,1757.8125,57600
0.236919551,3285,128,-0.911040415,-12632,128,-4120,-0.297141111,0.291299259,4039,1777.34375,58240
0.31437818,4359,128,-0.876422033,-12152,128,-226,-0.016299488,0.295193827,4093,1796.875,58880
0.335726182,4655,128,-0.856588585,-11877,128,-1807,-0.130323783,0.551514095,7647,1816.40625,59520
0.210234548,2915,128,-0.938013904,-13006,128,-81,-0.005841852,0.288558637,4001,1835.9375,60160
0.099744213,1383,128,-0.992033004,-13755,128,-4336,-0.312719382,0.140709298,1951,1855.46875,60800
0.021997097,305,128,-1.035738711,-14361,128,-6159,-0.444197112,0.00353396,49,1875,61440
-0.009952785,-138,128,-1.058024294,-14670,128,124611,8.987148283,1.176736495,16316,1894.53125,62080
-0.01240492,-172,128,-1.050235158,-14562,128,123854,8.93255221,1.1680819,16196,1914.0625,62720
-0.009952785,-138,128,-1.042662387,-14457,128,-7998,-0.576828787,1.153873939,15999,1933.59375,63360
-0.02170861,-301,128,-1.051605469,-14581,128,123064,8.875576124,1.172409197,16256,1953.125,64000
-0.0230068,-319,128,-1.047278171,-14521,128,123903,8.93608617,1.144714492,15872,1972.65625,64640
-0.023800137,-330,128,-1.047061807,-14518,128,124864,9.005395055,1.181496523,16382,1992.1875,65280
-0.033392314,-463,128,-1.054850942,-14626,128,116607,8.409886767,1.14110841,15822,2011.71875,384
-0.039594774,-549,128,-1.049153334,-14547,128,-7170,-0.517112078,1.14464237,15871,2031.25,1024
-0.041902666,-581,128,-1.045691496,-14499,128,-6369,-0.459342654,1.140026586,15807,2050.78125,1664
-0.042479639,-589,128,-1.050235158,-14562,128,124903,9.008207799,1.142262357,15838,2070.3125,2304
-0.042912369,-595,128,-1.054850942,-14626,128,-6402,-0.461722667,1.176808617,16317,2089.84375,2944
-0.035700206,-495,128,-1.034152035,-14339,128,116733,8.418974092,1.18005409,16362,2109.375,3584
-0.034185652,-474,128,-1.037974481,-14392,128,-14584,-1.051821834,1.164259453,16143,2128.90625,4224
0.032238368,447,128,-0.996648788,-13819,128,122894,8.863315447,8.65E-04,12,2148.4375,4864
0.047167545,654,128,-0.998307586,-13842,128,-8143,-0.587286423,7.21E-05,1,2167.96875,5504
0.028560165,396,128,-0.990879058,-13739,128,125567,9.05609656,0.033175949,460,2187.5,6144
-0.051494843,-714,128,-1.042662387,-14457,128,-6266,-0.451914126,1.126179233,15615,2207.03125,6784
-0.065414317,-907,128,-1.039633279,-14415,128,-8192,-0.590820383,1.146373289,15895,2226.5625,7424
-0.082579265,-1145,128,-1.049513942,-14552,128,-7217,-0.520501795,1.181568644,16383,2246.09375,8064
-0.115250363,-1598,128,-1.070501336,-14843,128,116704,8.416882565,1.143560546,15856,2265.625,8704
0.953736419,13224,128,-0.529300634,-7339,128,-2545,-0.183549545,0.111283673,1543,2285.15625,9344
0.355848116,4934,128,-1.142695086,-15844,128,-509,-0.036709909,0.8723111,12095,2304.6875,9984
0.007212163,100,128,-1.080958972,-14988,128,124720,8.995009541,0.009087325,126,2324.21875,10624
-0.052143938,-723,128,-1.035522346,-14358,128,-6144,-0.443115287,1.151133317,15961,2343.75,11264
-0.0513506,-712,128,-1.018718006,-14125,128,123131,8.880408273,1.16764917,16190,2363.28125,11904
-0.042263274,-586,128,-1.005663992,-13944,128,-7744,-0.558509893,1.173491022,16271,2382.8125,12544
-0.037575369,-521,128,-1.006601573,-13957,128,-8165,-0.588873099,1.181568644,16383,2402.34375,13184
-0.02610803,-362,128,-0.987849949,-13697,128,122977,8.869301542,1.152215141,15976,2421.875,13824
0.001442433,20,128,-0.96441042,-13372,128,123900,8.935869805,1.181063793,16376,2441.40625,14464
0.038585071,535,128,-0.928638092,-12876,128,126859,9.149277705,0.009087325,126,2460.9375,15104
0.114168538,1583,128,-0.871012911,-12077,128,126841,9.147979516,0.114817633,1592,2480.46875,15744
0.176986477,2454,128,-0.832355718,-11541,128,131065,9.452621275,0.286178623,3968,2500,16384
0.252209336,3497,128,-0.792400335,-10987,128,131071,9.453054005,0.260503323,3612,2519.53125,17024
0.205763007,2853,128,-0.819013216,-11356,128,-128,-0.009231568,0.221485522,3071,2539.0625,17664
0.0283438,393,128,-0.929719917,-12891,128,126972,9.157427449,0.012693407,176,2558.59375,18304
-0.047888762,-664,128,-0.97147834,-13470,128,-7181,-0.517905416,1.116947665,15487,2578.125,18944
-0.081064711,-1124,128,-0.982512949,-13623,128,125239,9.032440666,1.181496523,16382,2597.65625,19584
-0.064260371,-891,128,-0.96397769,-13366,128,123896,8.935581319,1.172409197,16256,2617.1875,20224
-0.063971885,-887,128,-0.964554663,-13374,128,122882,8.862449987,1.144714492,15872,2636.71875,20864
-0.053442127,-741,128,-0.940610282,-13042,128,-8157,-0.588296126,1.161951561,16111,2656.25,21504
-0.041758423,-579,128,-0.931234471,-12912,128,-4130,-0.297862327,1.176808617,16317,2675.78125,22144
-0.042551761,-590,128,-0.932172052,-12925,128,123135,8.880696759,1.144714492,15872,2695.3125,22784
-0.04204691,-583,128,-0.925536862,-12833,128,-6689,-0.482421575,1.181568644,16383,2714.84375,23424
-0.055966384,-776,128,-0.942052715,-13062,128,-4867,-0.351015967,1.117091908,15489,2734.375,24064
-0.059644587,-827,128,-0.936859958,-12990,128,-4624,-0.333490411,1.144786614,15873,2753.90625,24704
-0.064260371,-891,128,-0.941259377,-13051,128,126015,9.08840705,1.18048682,16368,2773.4375,25344
-0.040460234,-561,128,-0.920848956,-12768,128,122895,8.863387568,1.181496523,16382,2792.96875,25984
-0.061303384,-850,128,-0.935561768,-12972,128,-6148,-0.443403774,1.179837725,16359,2812.5,26624
-0.047528153,-659,128,-0.924238673,-12815,128,-6625,-0.477805791,1.16368248,16135,2832.03125,27264
-0.009592177,-133,128,-0.919550767,-12750,128,-4194,-0.302478111,1.181135914,16377,2851.5625,27904
0.037719612,523,128,-0.883994804,-12257,128,123840,8.931542508,0.004038811,56,2871.09375,28544
0.029137138,404,128,-0.866829856,-12019,128,129420,9.333981196,0.014135839,196,2890.625,29184
-0.060582168,-840,128,-0.921930781,-12783,128,126652,9.134348528,1.144714492,15872,2910.15625,29824
-0.070534953,-978,128,-0.924527159,-12819,128,123904,8.936158292,1.109519137,15384,2929.6875,30464
-0.091017496,-1262,128,-0.930729619,-12905,128,-4109,-0.296347773,1.181280158,16379,2949.21875,31104
-0.124914661,-1732,128,-0.94450485,-13096,128,-4209,-0.303559936,1.181568644,16383,2968.75,31744
0.167754909,2326,128,-0.825936893,-11452,128,-3322,-0.239588051,0.16782703,2327,2988.28125,32384
0.514659943,7136,128,-0.934263579,-12954,128,124537,8.981811283,0.955467338,13248,3007.8125,33024
0.028488043,395,128,-0.996143937,-13812,128,-2048,-0.147705096,7.21E-05,1,3027.34375,33664
-0.052071816,-722,128,-0.915151348,-12689,128,126972,9.157427449,1.144714492,15872,3046.875,34304
-0.029930476,-415,128,-0.888610588,-12321,128,126975,9.157643814,1.144714492,15872,3066.40625,34944
-0.021059516,-292,128,-0.874546871,-12126,128,127217,9.175097248,1.181352279,16380,3085.9375,35584
-0.01817465,-252,128,-0.870003208,-12063,128,127457,9.192406439,1.163177629,16128,3105.46875,36224
0.001875162,26,128,-0.852910382,-11826,128,130303,9.397664594,0.001875162,26,3125,36864
0.043705707,606,128,-0.823556879,-11419,128,127823,9.218802955,0.036926274,512,3144.53125,37504
0.069885858,969,128,-0.806608296,-11184,128,-993,-0.071616777,0.070174345,973,3164.0625,38144
0.142295974,1973,128,-0.756195278,-10485,128,130957,9.44483214,0.137896554,1912,3183.59375,38784
0.230572847,3197,128,-0.699724042,-9702,128,-118,-0.008510352,0.286106501,3967,3203.125,39424
0.297934448,4131,128,-0.664961417,-9220,128,131037,9.45060187,0.294833218,4088,3222.65625,40064
0.294184124,4079,128,-0.674192986,-9348,128,-2042,-0.147272366,0.294184124,4079,3242.1875,40704
0.186001681,2579,128,-0.751291007,-10417,128,-241,-0.017381313,0.258700282,3587,3261.71875,41344
0.049259072,683,128,-0.833653907,-11559,128,-4,-2.88E-04,0.078540454,1089,3281.25,41984
0.013630988,189,128,-0.856732828,-11879,128,-832,-0.060005195,0.013630988,189,3300.78125,42624
-0.004832149,-67,128,-0.864449843,-11986,128,-288,-0.020771029,1.180991671,16375,3320.3125,43264
0.011827947,164,128,-0.867046221,-12022,128,-2038,-0.146983879,0.013775231,191,3339.84375,43904
0.022285583,309,128,-0.862718923,-11962,128,-4029,-0.290578042,0.009159447,127,3359.375,44544
0.023151043,321,128,-0.854352814,-11846,128,-872,-0.06289006,0.018535259,257,3378.90625,45184
0.03584445,497,128,-0.848799449,-11769,128,-639,-0.046085721,0.008005501,111,3398.4375,45824
0.052937276,734,128,-0.82716296,-11469,128,127090,9.165937801,0.03808022,528,3417.96875,46464
0.040460234,561,128,-0.848438841,-11764,128,-3324,-0.239732294,0.041037207,569,3437.5,47104
0.042623883,591,128,-0.846419435,-11736,128,-7,-5.05E-04,0.005120636,71,3457.03125,47744
0.058923371,817,128,-0.841154556,-11663,128,127088,9.165793558,0.055389411,768,3476.5625,48384
0.072482237,1005,128,-0.837476353,-11612,128,130816,9.43466299,0.036349301,504,3496.09375,49024
0.077242264,1071,128,-0.840721827,-11657,128,-1161,-0.083733211,0.113158836,1569,3515.625,49664
0.149436015,2072,128,-0.813315608,-11277,128,129132,9.313210167,0.147416609,2044,3535.15625,50304
0.183549545,2545,128,-0.798530674,-11072,128,131071,9.453054005,0.294256245,4080,3554.6875,50944
0.172082206,2386,128,-0.793337917,-11000,128,128904,9.296766436,0.255599052,3544,3574.21875,51584
0.100537551,1394,128,-0.825864771,-11451,128,129086,9.309892572,0.129530445,1796,3593.75,52224
0.086473833,1199,128,-0.837476353,-11612,128,-512,-0.036926274,0.08589686,1191,3613.28125,52864
0.090873252,1260,128,-0.838846664,-11631,128,127227,9.175818464,0.110490335,1532,3632.8125,53504
0.071833142,996,128,-0.850241882,-11789,128,127487,9.194570088,0.071833142,996,3652.34375,54144
1.061774619,14722,128,-0.350438994,-4859,128,130492,9.411295582,0.276947054,3840,3671.875,54784
0.594498586,8243,128,-0.950346702,-13177,128,-889,-0.064116128,0.886302696,12289,3691.40625,55424
0.208647872,2893,128,-0.81475804,-11297,128,-1793,-0.12931408,0.281490717,3903,3710.9375,56064
0.187660478,2602,128,-0.791895484,-10980,128,-994,-0.071688899,0.261873634,3631,3730.46875,56704
0.19746902,2738,128,-0.77004263,-10677,128,130656,9.423123529,0.288342272,3998,3750,57344
0.206916953,2869,128,-0.758647413,-10519,128,127423,9.189954303,0.294833218,4088,3769.53125,57984
0.255671174,3545,128,-0.731818167,-10147,128,130055,9.37977843,0.295121705,4092,3789.0625,58624
0.280408893,3888,128,-0.716312017,-9932,128,-793,-0.057192452,0.27629796,3831,3808.59375,59264
0.305218733,4232,128,-0.692295515,-9599,128,129789,9.360594077,0.554759569,7692,3828.125,59904
0.356569333,4944,128,-0.668495377,-9269,128,-1040,-0.075006494,0.5685348,7883,3847.65625,60544
0.426383069,5912,128,-0.614259912,-8517,128,130744,9.429470233,0.59024341,8184,3867.1875,61184
0.514804186,7138,128,-0.560096569,-7766,128,129423,9.334197561,0.00706792,98,3886.71875,61824
0.56233234,7797,128,-0.548773473,-7609,128,-2034,-0.146695393,0.589594315,8175,3906.25,62464
0.526776377,7304,128,-0.580146382,-8044,128,127104,9.166947504,0.517544808,7176,3925.78125,63104
0.351809305,4878,128,-0.698930704,-9691,128,130820,9.434951476,0.556202001,7712,3945.3125,63744
0.275216135,3816,128,-0.751795858,-10424,128,-152,-0.010962488,0.276874933,3839,3964.84375,64384
0.23554924,3266,128,-0.786919092,-10911,128,129009,9.304339207,0.225596455,3128,3984.375,65024
0.223504928,3099,128,-0.802208877,-11123,128,-2841,-0.204897547,0.221774008,3075,4003.90625,128
0.224730995,3116,128,-0.819013216,-11356,128,-3872,-0.279254947,0.259854228,3603,4023.4375,768
0.223288563,3096,128,-0.819013216,-11356,128,131071,9.453054005,0.258483918,3584,4042.96875,1408
0.217374589,3014,128,-0.832572083,-11544,128,127224,9.175602099,0.291227137,4038,4062.5,2048
0.227111009,3149,128,-0.828316906,-11485,128,130958,9.444904261,0.295265948,4094,4082.03125,2688
0.218600657,3031,128,-0.834519367,-11571,128,-4019,-0.289856826,0.292453205,4055,4101.5625,3328
0.207782413,2881,128,-0.853126747,-11829,128,127360,9.185410641,0.25949362,3598,4121.09375,3968
0.208647872,2893,128,-0.853775841,-11838,128,-2045,-0.147488731,0.278028879,3855,4140.625,4608
0.205979372,2856,128,-0.860411031,-11930,128,126991,9.15879776,0.276947054,3840,4160.15625,5248
0.253363282,3513,128,-0.857886774,-11895,128,129024,9.305421031,0.286178623,3968,4179.6875,5888
0.284231339,3941,128,-0.857454045,-11889,128,127111,9.167452355,0.284159217,3940,4199.21875,6528
0.305867828,4241,128,-0.831634501,-11531,128,-3576,-0.257906945,0.576323936,7991,4218.75,7168
0.227471617,3154,128,-0.877287492,-12164,128,127007,9.159951706,0.229779509,3186,4238.28125,7808
0.186722897,2589,128,-0.893370616,-12387,128,126914,9.153244394,0.26656154,3696,4257.8125,8448
0.176265261,2444,128,-0.902457941,-12513,128,-7777,-0.560889907,0.287260447,3983,4277.34375,9088
0.146839636,2036,128,-0.916521658,-12708,128,124911,9.008784772,0.262522729,3640,4296.875,9728
0.265263351,3678,128,-0.902025211,-12507,128,-224,-0.016155245,0.055894262,775,4316.40625,10368
1.224048284,16972,128,-0.397750783,-5515,128,122992,8.870383366,1.181640766,16384,4335.9375,11008
0.311853923,4324,128,-1.021025899,-14157,128,126001,9.087397347,0.452058369,6268,4355.46875,11648
0.224154022,3108,128,-0.912338604,-12650,128,126974,9.157571692,0.294256245,4080,4375,12288
0.187011383,2593,128,-0.901953089,-12506,128,-4304,-0.31041149,0.273557338,3793,4394.53125,12928
0.177707693,2464,128,-0.902746427,-12517,128,130847,9.43689876,0.294833218,4088,4414.0625,13568
0.198190236,2748,128,-0.867334708,-12026,128,127180,9.172428748,0.29093865,4034,4433.59375,14208
0.205041791,2843,128,-0.85637222,-11874,128,-2034,-0.146695393,0.293030178,4063,4453.125,14848
0.236631064,3281,128,-0.83156238,-11530,128,-512,-0.036926274,0.267643364,3711,4472.65625,15488
0.248747498,3449,128,-0.81252227,-11266,128,129150,9.314508356,0.294833218,4088,4492.1875,16128
0.282284055,3914,128,-0.774225685,-10735,128,130577,9.417425921,0.295265948,4094,4511.71875,16768
0.375465199,5206,128,-0.711984719,-9872,128,129520,9.341193359,0.581444571,8062,4531.25,17408
0.440735273,6111,128,-0.666259607,-9238,128,-5,-3.61E-04,0.590748261,8191,4550.78125,18048
0.440807395,6112,128,-0.67174085,-9314,128,-16239,-1.17118313,0.576900909,7999,4570.3125,18688
0.331615249,4598,128,-0.739751546,-10257,128,-3073,-0.221629765,0.521511498,7231,4589.84375,19328
0.167538544,2323,128,-0.841443043,-11667,128,-16,-0.001153946,0.29533807,4095,4609.375,19968
0.127871648,1773,128,-0.858680112,-11906,128,-1538,-0.110923065,0.128015891,1775,4628.90625,20608
0.094190847,1306,128,-0.877359614,-12165,128,-3973,-0.286539231,0.103783024,1439,4648.4375,21248
0.100032699,1387,128,-0.864810451,-11991,128,-1732,-0.124914661,0.132198946,1833,4667.96875,21888
0.098806631,1370,128,-0.860843761,-11936,128,-3616,-0.26079181,0.147632974,2047,4687.5,22528
0.087555657,1214,128,-0.856083734,-11870,128,127088,9.165793558,0.120154634,1666,4707.03125,23168
0.088060509,1221,128,-0.846996408,-11744,128,-3552,-0.256176025,0.143594163,1991,4726.5625,23808
0.070895561,983,128,-0.848078233,-11759,128,130403,9.404876757,0.069236764,960,4746.09375,24448
0.074429521,1032,128,-0.85637222,-11874,128,127438,9.191036128,0.111355795,1544,4765.625,25088
0.062745817,870,128,-0.870940789,-12076,128,127111,9.167452355,0.066351898,920,4785.15625,25728
0.069453129,963,128,-0.879090533,-12189,128,-1997,-0.144026893,0.069453129,963,4804.6875,26368
0.058707006,814,128,-0.889331804,-12331,128,-4156,-0.299737489,0.036854152,511,4824.21875,27008
0.04384995,608,128,-0.903539765,-12528,128,126720,9.139252798,0.036926274,512,4843.75,27648
0.04118145,571,128,-0.912627091,-12654,128,-12608,-0.909309496,0.038008098,527,4863.28125,28288
0.069381007,962,128,-0.929503552,-12888,128,-6169,-0.444918328,0.005120636,71,4882.8125,28928
0.105586065,1464,128,-0.922507754,-12791,128,131008,9.448510343,0.142512338,1976,4902.34375,29568
0.124986783,1733,128,-0.920199862,-12759,128,126193,9.1012447,0.140637176,1950,4921.875,30208
0.081136832,1125,128,-0.935994498,-12978,128,-8065,-0.581660936,0.081281076,1127,4941.40625,30848
0.012477042,173,128,-1.008404614,-13982,128,125952,9.083863388,0.009231568,128,4960.9375,31488
5.05E-04,7,128,-1.018645885,-14124,128,-8074,-0.582310031,5.05E-04,7,4980.46875,32128
-0.016948583,-235,128,-1.035738711,-14361,128,123879,8.934355251,1.163466115,16132,5000,32768
0.009447933,131,128,-1.057807929,-14667,128,-8191,-0.590748261,0.009447933,131,5019.53125,33408
0.931162349,12911,128,-0.592551302,-8216,128,-32,-0.002307892,0.07262648,1007,5039.0625,34048
0.209801818,2909,128,-1.175871036,-16304,128,130239,9.39304881,0.275793108,3824,5058.59375,34688
0.063899763,886,128,-1.065452822,-14773,128,124864,9.005395055,0.05755306,798,5078.125,35328
0.019544961,271,128,-1.070717701,-14846,128,124439,8.974743363,0.00663519,92,5097.65625,35968
0.013414623,186,128,-1.074395904,-14897,128,-8065,-0.581660936,0.00223577,31,5117.1875,36608
0.023944381,332,128,-1.069419511,-14828,128,122880,8.862305744,0.036637787,508,5136.71875,37248
0.049331194,684,128,-1.057086713,-14657,128,122911,8.864541514,0.036926274,512,5156.25,37888
0.053442127,741,128,-1.054490334,-14621,128,-6413,-0.462516005,0.036998396,513,5175.78125,38528
0.0850314,1179,128,-1.033575062,-14331,128,-6248,-0.450615937,0.112437619,1559,5195.3125,39168
0.121380701,1683,128,-1.016914966,-14100,128,126464,9.120789662,0.138473527,1920,5214.84375,39808
0.209729696,2908,128,-0.958063717,-13284,128,125935,9.08263732,0.287909542,3992,5234.375,40448
0.277019176,3841,128,-0.927051416,-12854,128,-18,-0.001298189,0.277019176,3841,5253.90625,41088
0.325845519,4518,128,-0.896616089,-12432,128,126960,9.156561989,0.581588814,8064,5273.4375,41728
0.258051188,3578,128,-0.946452134,-13123,128,-100,-0.007212163,0.239948659,3327,5292.96875,42368
0.125635877,1742,128,-1.036459927,-14371,128,124925,9.009794475,0.073708305,1022,5312.5,43008
0.01197219,166,128,-1.110817326,-15402,128,123856,8.932696454,0.013126136,182,5332.03125,43648
0.005409122,75,128,-1.113846435,-15444,128,-7964,-0.574376652,7.21E-05,1,5351.5625,44288
0.001947284,27,128,-1.112404002,-15424,128,-8185,-0.590315532,1.181568644,16383,5371.09375,44928
-0.004471541,-62,128,-1.114928259,-15459,128,123077,8.876513705,1.181496523,16382,5390.625,45568
-0.003750325,-52,128,-1.128270761,-15644,128,123356,8.896635639,1.181352279,16380,5410.15625,46208
0.002812744,39,128,-1.120914354,-15542,128,-7421,-0.535214607,0.003678203,51,5429.6875,46848
0.011106731,154,128,-1.124736801,-15595,128,-7792,-0.561971731,0.011467339,159,5449.21875,47488
-0.00223577,-31,128,-1.125962868,-15612,128,122880,8.862305744,1.18048682,16368,5468.75,48128
0.004760027,66,128,-1.122356787,-15562,128,-7682,-0.554038352,2.16E-04,3,5488.28125,48768
0.009231568,128,128,-1.123654976,-15580,128,115504,8.33033661,0,0,5507.8125,49408
-5.05E-04,-7,128,-1.138512032,-15786,128,-7610,-0.548845595,1.181135914,16377,5527.34375,50048
-0.011250974,-156,128,-1.135266559,-15741,128,115443,8.325937191,1.178178928,16336,5546.875,50688
-1.44E-04,-2,128,-1.121996179,-15557,128,122939,8.86656092,1.181496523,16382,5566.40625,51328
-0.001153946,-16,128,-1.129641072,-15663,128,114943,8.289876376,1.181352279,16380,5585.9375,51968
0.019617083,272,128,-1.124304071,-15589,128,122895,8.863387568,0.001153946,16,5605.46875,52608
0.075439224,1046,128,-1.108509434,-15370,128,123903,8.93608617,0.129241959,1792,5625,53248
0.113303079,1571,128,-1.073891052,-14890,128,-6201,-0.44722622,0.14215173,1971,5644.53125,53888
0.072337994,1003,128,-1.086440216,-15064,128,124687,8.992629527,0.035195355,488,5664.0625,54528
0.001442433,20,128,-1.113990678,-15446,128,123136,8.880768881,0.016443731,228,5683.59375,55168
-0.016732218,-232,128,-1.1167313,-15484,128,123079,8.876657948,1.165197035,16156,5703.125,55808
-0.026901368,-373,128,-1.121274963,-15547,128,123783,8.927431575,1.181496523,16382,5722.65625,56448
-0.061447628,-852,128,-1.158706088,-16066,128,114750,8.275956902,1.121347084,15548,5742.1875,57088
0.627313927,8698,128,-0.794780349,-11020,128,131071,9.453054005,0.036782031,510,5761.71875,57728
0.309329666,4289,128,-1.253618151,-17382,128,130075,9.381220863,0.304064787,4216,5781.25,58368
0.049259072,683,128,-1.150339979,-15950,128,-7746,-0.558654136,0.039450531,547,5800.78125,59008
0.003245473,45,128,-1.109735502,-15387,128,-15392,-1.11009611,5.05E-04,7,5820.3125,59648
0.011323096,157,128,-1.096393001,-15202,128,127231,9.176106951,0.01817465,252,5839.84375,60288
0.018463137,256,128,-1.079949269,-14974,128,124921,9.009505988,0.007212163,100,5859.375,60928
0.028848652,400,128,-1.083771716,-15027,128,116047,8.369498655,0.029425625,408,5878.90625,61568
0.046734815,648,128,-1.071799525,-14861,128,124915,9.009073259,8.65E-04,12,5898.4375,62208
0.086041103,1193,128,-1.036820535,-14376,128,-7224,-0.521006646,0.120082512,1665,5917.96875,62848
0.100393307,1392,128,-1.039200549,-14409,128,123383,8.898582923,0.131261364,1820,5937.5,63488
0.198406601,2751,128,-0.980132935,-13590,128,-7648,-0.551586217,0.276874933,3839,5957.03125,64128
0.267066391,3703,128,-0.948110932,-13146,128,-4560,-0.328874627,0.26302758,3647,5976.5625,64768
0.32281641,4476,128,-0.931090227,-12910,128,126848,9.148484367,0.581300328,8060,5996.09375,65408
0.297718084,4128,128,-0.953159446,-13216,128,130560,9.416199853,0.521006646,7224,6015.625,512
0.157874245,2189,128,-1.039777522,-14417,128,-14337,-1.034007792,0.16249003,2253,6035.15625,1152
0.035195355,488,128,-1.118101611,-15503,128,127999,9.231496362,0.017886164,248,6054.6875,1792
0.020771029,288,128,-1.109374894,-15382,128,115680,8.343030017,0,0,6074.21875,2432
-0.009159447,-127,128,-1.139665978,-15802,128,-7424,-0.535430972,1.172481319,16257,6093.75,3072
-0.009159447,-127,128,-1.137141721,-15767,128,-15361,-1.10786034,1.177097103,16321,6113.28125,3712
0.005625487,78,128,-1.128847734,-15652,128,122908,8.86432515,0,0,6132.8125,4352
0.018463137,256,128,-1.12336649,-15576,128,123896,8.935581319,0.018463137,256,6152.34375,4992
0.010890366,151,128,-1.130795018,-15679,128,122979,8.869445785,0.004327298,60,6171.875,5632
0.020049813,278,128,-1.122717395,-15567,128,123648,8.917695155,0,0,6191.40625,6272
0.019833448,275,128,-1.134473221,-15730,128,-7456,-0.537738864,0.001803041,25,6210.9375,6912
0.023295286,323,128,-1.125097409,-15600,128,-15464,-1.115288867,2.16E-04,3,6230.46875,7552
0.007140041,99,128,-1.136059896,-15752,128,-8132,-0.586493085,0.004543663,63,6250,8192
0.024232867,336,128,-1.131371991,-15687,128,115708,8.345049422,0,0,6269.53125,8832
0.011106731,154,128,-1.154595155,-16009,128,123159,8.882427678,5.77E-04,8,6289.0625,9472
0.033031706,458,128,-1.140531437,-15814,128,122883,8.862522109,0.013847353,192,6308.59375,10112
0.054379708,754,128,-1.146733898,-15900,128,-7696,-0.555048055,0.072914967,1011,6328.125,10752
0.090368401,1253,128,-1.14464237,-15871,128,115200,8.308411635,0.126934067,1760,6347.65625,11392
0.142295974,1973,128,-1.109879745,-15389,128,115711,8.345265787,0.138473527,1920,6367.1875,12032
0.068948277,956,128,-1.145796316,-15887,128,-16271,-1.173491022,0.032238368,447,6386.71875,12672
0.01327038,184,128,-1.177962563,-16333,128,122883,8.862522109,0,0,6406.25,13312
-0.004471541,-62,128,-1.197146916,-16599,128,-127,-0.009159447,1.177241347,16323,6425.78125,13952
-0.014929177,-207,128,-1.200897241,-16651,128,131069,9.452909762,1.166639467,16176,6445.3125,14592
0.028992895,402,128,-1.223110702,-16959,128,130112,9.383889363,1.44E-04,2,6464.84375,15232
0.917747726,12725,128,-0.901953089,-12506,128,129233,9.320494452,0,0,6484.375,15872
0.218023684,3023,128,-1.335187714,-18513,128,-3865,-0.278750095,0.152537245,2115,6503.90625,16512
0.05712033,792,128,-1.198733592,-16621,128,130832,9.435816936,5.77E-04,8,6523.4375,17152
0.035700206,495,128,-1.168226143,-16198,128,-4065,-0.293174421,0.034834747,483,6542.96875,17792
0.044138437,612,128,-1.150484222,-15952,128,-7752,-0.559086866,0.064548858,895,6562.5,18432
0.050701505,703,128,-1.135915653,-15750,128,-16257,-1.172481319,0.041469937,575,6582.03125,19072
0.07039071,976,128,-1.114423408,-15452,128,123783,8.927431575,0.072698602,1008,6601.5625,19712
0.096642983,1340,128,-1.087017189,-15072,128,115712,8.345337909,0.147416609,2044,6621.09375,20352
0.122823134,1703,128,-1.061269767,-14715,128,-7291,-0.525838795,0.14301719,1983,6640.625,20992
0.167466422,2322,128,-1.023333791,-14189,128,118015,8.51143402,1.44E-04,2,6660.15625,21632
0.245862632,3409,128,-0.958568568,-13291,128,123921,8.93738436,0,0,6679.6875,22272
0.322311559,4469,128,-0.902746427,-12517,128,-4221,-0.304425395,0.009159447,127,6699.21875,22912
0.348275345,4829,128,-0.888466345,-12319,128,-4127,-0.297645962,0.587286423,8143,6718.75,23552
0.279182825,3871,128,-0.933902971,-12949,128,-4176,-0.301179922,0.581228206,8059,6738.28125,24192
0.094695699,1313,128,-1.04677332,-14514,128,-6145,-0.443187409,0.077963481,1081,6757.8125,24832
0,0,128,18.83232758,261119,142,960,0.069236764,0,0,6777.34375,25472
0.024593475,341,128,-1.059755213,-14694,128,124479,8.977628228,0.034906868,484,6796.875,26112
0.012188555,169,128,-1.0627122,-14735,128,-8192,-0.590820383,0.033392314,463,6816.40625,26752
0.025170448,349,128,-1.045691496,-14499,128,123392,8.899232018,0,0,6835.9375,27392
0.029858354,414,128,-1.036387806,-14370,128,124897,9.007775069,0.023078921,320,6855.46875,28032
0.029281381,406,128,-1.023333791,-14189,128,-8192,-0.590820383,0.020698907,287,6875,28672
0.0256753,356,128,-1.025208953,-14215,128,-7713,-0.556274123,0.001803041,25,6894.53125,29312
0.022934678,318,128,-1.023694399,-14194,128,122880,8.862305744,0.032598976,452,6914.0625,29952
0.016948583,235,128,-1.015039803,-14074,128,-8069,-0.581949423,0.03454626,479,6933.59375,30592
0.017453434,242,128,-1.018573763,-14123,128,-7967,-0.574593016,2.16E-04,3,6953.125,31232
0.011250974,156,128,-1.026362899,-14231,128,124943,9.011092664,0.004471541,62,6972.65625,31872
0.006563068,91,128,-1.018357398,-14120,128,123132,8.880480394,0.001730919,24,6992.1875,32512
0.022646191,314,128,-1.000254869,-13869,128,122886,8.862738474,7.21E-04,10,7011.71875,33152
0.013414623,186,128,-1.003860951,-13919,128,123135,8.880696759,2.88E-04,4,7031.25,33792
0.077747116,1078,128,-0.979988692,-13588,128,125433,9.046432262,0.045003896,624,7050.78125,34432
0.104143632,1444,128,-0.964698907,-13376,128,125176,9.027897004,0.111932768,1552,7070.3125,35072
0.08012713,1111,128,-0.954024905,-13228,128,126012,9.088190685,0.130972878,1816,7089.84375,35712
-0.005120636,-71,128,-0.992033004,-13755,128,-6144,-0.443115287,0.004832149,67,7109.375,36352
-0.024232867,-336,128,-0.997946977,-13837,128,-7664,-0.552740163,1.17118313,16239,7128.90625,36992
-0.028488043,-395,128,-1.00205791,-13894,128,-8077,-0.582526396,1.181135914,16377,7148.4375,37632
-0.067577966,-937,128,-1.016193749,-14090,128,-8034,-0.579425166,1.126179233,15615,7167.96875,38272
0.447370463,6203,128,-0.760594697,-10546,128,126519,9.124756351,0.03231049,448,7187.5,38912
0.408857514,5669,128,-1.081247459,-14992,128,130995,9.447572761,1.163177629,16128,7207.03125,39552
0.056182749,779,128,-1.024271372,-14202,128,123135,8.880696759,0.230212239,3192,7226.5625,40192
0.004615784,64,128,-0.954385514,-13233,128,125423,9.045711046,0.004327298,60,7246.09375,40832
0.005048514,70,128,-0.943206661,-13078,128,126313,9.109899296,0.013558866,188,7265.625,41472
4.33E-04,6,128,-0.935561768,-12972,128,-4844,-0.34935717,5.05E-04,7,7285.15625,42112
0.02877653,399,128,-0.900366414,-12484,128,126849,9.148556489,0.009231568,128,7304.6875,42752
0.035483841,492,128,-0.896904575,-12436,128,-4159,-0.299953854,0.002380014,33,7324.21875,43392
0.056543357,784,128,-0.874042019,-12119,128,129038,9.306430734,0.059428222,824,7343.75,44032
0.08632959,1197,128,-0.852044922,-11814,128,129405,9.332899372,0.111067308,1540,7363.28125,44672
0.176553747,2448,128,-0.788577889,-10934,128,130567,9.416704704,0,0,7382.8125,45312
0.228192833,3164,128,-0.749271601,-10389,128,126976,9.157715935,0.290794407,4032,7402.34375,45952
0.302045381,4188,128,-0.711335625,-9863,128,-1793,-0.12931408,0.558437772,7743,7421.875,46592
0.274711284,3809,128,-0.723596302,-10033,128,129532,9.342058819,0.534277026,7408,7441.40625,47232
0.154484529,2142,128,-0.798530674,-11072,128,-3912,-0.282139812,0.29533807,4095,7460.9375,47872
-3.61E-04,-5,128,-0.889403926,-12332,128,-769,-0.055461533,0.004255176,59,7480.46875,48512
-0.019544961,-271,128,-0.888394223,-12318,128,-4157,-0.299809611,1.17652013,16313,7500,49152
-0.048177248,-668,128,-0.902169454,-12509,128,-6145,-0.443187409,1.163393994,16131,7519.53125,49792
-0.046806937,-649,128,-0.893370616,-12387,128,-4158,-0.299881732,1.143632667,15857,7539.0625,50432
-0.054884559,-761,128,-0.890774237,-12351,128,129024,9.305421031,1.143849032,15860,7558.59375,51072
-0.043056612,-597,128,-0.876566276,-12154,128,124856,9.004818082,1.17471709,16288,7578.125,51712
-0.06108702,-847,128,-0.890990602,-12354,128,126975,9.157643814,1.14817633,15920,7597.65625,52352
-0.044859653,-622,128,-0.869065627,-12050,128,129232,9.32042233,1.16721644,16184,7617.1875,52992
-0.04161418,-577,128,-0.87894629,-12187,128,126934,9.154686827,1.1734189,16270,7636.71875,53632
-0.055966384,-776,128,-0.899717319,-12475,128,124447,8.975320336,1.146733898,15900,7656.25,54272
-0.050989992,-707,128,-0.884211169,-12260,128,-6170,-0.44499045,1.173491022,16271,7675.78125,54912
-0.058418519,-810,128,-0.889331804,-12331,128,-4144,-0.29887203,1.145219343,15879,7695.3125,55552
-0.057264573,-794,128,-0.887745129,-12309,128,-6157,-0.444052868,1.146950262,15903,7714.84375,56192
-0.067938574,-942,128,-0.90462159,-12543,128,124865,9.005467177,1.144714492,15872,7734.375,56832
-0.048754221,-676,128,-0.896904575,-12436,128,-4157,-0.299809611,1.158633966,16065,7753.90625,57472
-0.009592177,-133,128,-0.889548169,-12334,128,-4110,-0.296419894,1.167721292,16191,7773.4375,58112
0.039666896,550,128,-0.86567591,-12003,128,126976,9.157715935,0.018463137,256,7792.96875,58752
0.034329895,476,128,-0.859257085,-11914,128,-1825,-0.131621973,0.040604477,563,7812.5,59392
-0.059500344,-825,128,-0.90685736,-12574,128,126752,9.141560691,1.124953166,15598,7832.03125,60032
-0.071688899,-994,128,-0.913853158,-12671,128,-6274,-0.452491099,1.109735502,15387,7851.5625,60672
-0.085608373,-1187,128,-0.923733821,-12808,128,-4128,-0.297718084,1.173491022,16271,7871.09375,61312
-0.118567958,-1644,128,-0.938951485,-13019,128,124926,9.009866596,1.181063793,16376,7890.625,61952
0.127799526,1772,128,-0.835312704,-11582,128,127227,9.175818464,0.01817465,252,7910.15625,62592
0.583031247,8084,128,-0.877503857,-12167,128,-897,-0.064693101,0.921353808,12775,7929.6875,63232
0.03894568,540,128,-1.000471234,-13872,128,-7549,-0.544446176,0.166096111,2303,7949.21875,63872
-0.039017801,-541,128,-0.919983497,-12756,128,126816,9.146176475,1.172409197,16256,7968.75,64512
-0.041397815,-574,128,-0.910319198,-12622,128,126963,9.156778354,1.181063793,16376,7988.28125,65152
-0.027117732,-376,128,-0.8953179,-12414,128,124926,9.009866596,1.181352279,16380,8007.8125,256
-0.020698907,-287,128,-0.883706317,-12253,128,-4088,-0.294833218,1.144930857,15875,8027.34375,896
-0.005986095,-83,128,-0.883417831,-12249,128,-2009,-0.144892352,1.172481319,16257,8046.875,1536
0.022934678,318,128,-0.86524318,-11997,128,-2040,-0.147128123,0.008582474,119,8066.40625,2176
0.04824937,669,128,-0.84353457,-11696,128,130840,9.436393909,0.01817465,252,8085.9375,2816
0.112726106,1563,128,-0.809565283,-11225,128,-881,-0.063539155,0.103638781,1437,8105.46875,3456
0.199416304,2765,128,-0.752372831,-10432,128,127071,9.16456749,0.276947054,3840,8125,4096
0.278173122,3857,128,-0.714508976,-9907,128,129280,9.323884168,0.262955459,3646,8144.53125,4736
0.274855527,3811,128,-0.724822369,-10050,128,129024,9.305421031,0.293246543,4066,8164.0625,5376
0.114384903,1586,128,-0.837620597,-11614,128,130855,9.437475733,0.166023989,2302,8183.59375,6016
0.01327038,184,128,-0.876566276,-12154,128,131007,9.448438221,0.05625487,780,8203.125,6656
-0.033608679,-466,128,-0.918973794,-12742,128,126472,9.121366635,1.145724195,15886,8222.65625,7296
-0.030074719,-417,128,-0.917675605,-12724,128,124912,9.008856894,1.172409197,16256,8242.1875,7936
-0.02170861,-301,128,-0.911401023,-12637,128,-6607,-0.476507601,1.15877821,16067,8261.71875,8576
-0.032959584,-457,128,-0.926907173,-12852,128,124416,8.973084566,1.177024982,16320,8281.25,9216
-0.017092826,-237,128,-0.923950186,-12811,128,123911,8.936663143,1.178034684,16334,8300.78125,9856
-0.007140041,-99,128,-0.918396821,-12734,128,124806,9.001212001,1.163177629,16128,8320.3125,10496
-0.014784934,-205,128,-0.927051416,-12854,128,124912,9.008856894,1.177601955,16328,8339.84375,11136
-0.020987394,-291,128,-0.932460538,-12929,128,-6273,-0.452418977,1.181424401,16381,8359.375,11776
-0.012765528,-177,128,-0.944793337,-13100,128,-5120,-0.369262739,1.145796316,15887,8378.90625,12416
0.001153946,16,128,-0.944360607,-13094,128,126539,9.126198784,0.002019406,28,8398.4375,13056
0.005841852,81,128,-0.946884864,-13129,128,-6175,-0.445351058,1.172914049,16263,8417.96875,13696
0.012549163,174,128,-0.953303689,-13218,128,123911,8.936663143,0,0,8437.5,14336
0.087844144,1218,128,-0.925104132,-12827,128,-5105,-0.368180915,0.056471235,783,8457.03125,14976
0.118063106,1637,128,-0.923445335,-12804,128,124415,8.973012444,0.092315685,1280,8476.5625,15616
0.061014898,846,128,-0.927916876,-12866,128,-4481,-0.323177019,0.083588968,1159,8496.09375,16256
0.019689205,273,128,-0.968521353,-13429,128,-4112,-0.296564138,0.00223577,31,8515.625,16896
0.009447933,131,128,-0.972848651,-13489,128,123841,8.931614629,0.013847353,192,8535.15625,17536
0.020915272,290,128,-0.965203758,-13383,128,-7967,-0.574593016,0.009159447,127,8554.6875,18176
-0.016299488,-226,128,-0.996648788,-13819,128,-6143,-0.443043166,1.181568644,16383,8574.21875,18816
1.015111925,14075,128,-0.482277332,-6687,128,-22,-0.001586676,0.286394988,3971,8593.75,19456
0.42198365,5851,128,-1.147238749,-15907,128,-573,-0.041325693,0.858463747,11903,8613.28125,20096
0.111355795,1544,128,-0.964771028,-13377,128,-1920,-0.138473527,0.144171136,1999,8632.8125,20736
0.064548858,895,128,-0.967151042,-13410,128,-4124,-0.297429597,0.092243563,1279,8652.34375,21376
0.084238062,1168,128,-0.949192756,-13161,128,126871,9.150143164,0.075871953,1052,8671.875,22016
0.09166659,1271,128,-0.943855756,-13087,128,-4804,-0.346472305,0.102052105,1415,8691.40625,22656
0.103999389,1442,128,-0.937148444,-12994,128,124926,9.009866596,0.101547253,1408,8710.9375,23296
0.136237757,1889,128,-0.918396821,-12734,128,-4595,-0.331398884,0.147632974,2047,8730.46875,23936
0.155710597,2159,128,-0.907939185,-12589,128,-4109,-0.296347773,0.267643364,3711,8750,24576
0.222062495,3079,128,-0.860915883,-11937,128,-3842,-0.277091298,0.290433799,4027,8769.53125,25216
0.27939919,3874,128,-0.820888379,-11382,128,130948,9.444183045,0.265407594,3680,8789.0625,25856
0.384191916,5327,128,-0.762974711,-10579,128,-1,-7.21E-05,0.587286423,8143,8808.59375,26496
0.41224723,5716,128,-0.746314615,-10348,128,129016,9.304844058,0.558221407,7740,8828.125,27136
0.387797998,5377,128,-0.771917793,-10703,128,126976,9.157715935,0.572357246,7936,8847.65625,27776
0.213263656,2957,128,-0.888826953,-12324,128,-3848,-0.277524028,0.288414393,3999,8867.1875,28416
0.125419512,1739,128,-0.949553364,-13166,128,-4221,-0.304425395,0.069453129,963,8886.71875,29056
0.100826037,1398,128,-0.954962487,-13241,128,126972,9.157427449,0.132703797,1840,8906.25,29696
0.102556956,1422,128,-0.957847352,-13281,128,-6096,-0.439653449,0.087050806,1207,8925.78125,30336
0.106595767,1478,128,-0.968881961,-13434,128,125408,9.044629222,0.110201849,1528,8945.3125,30976
0.11113943,1541,128,-0.958496446,-13290,128,125792,9.072323927,0.129241959,1792,8964.84375,31616
0.112798227,1564,128,-0.967295285,-13412,128,125135,9.024940017,0.111644281,1548,8984.375,32256
0.107389105,1489,128,-0.974435326,-13511,128,-4144,-0.29887203,0.109841241,1523,9003.90625,32896
0.100321186,1391,128,-0.982224462,-13619,128,-4500,-0.324547329,0.1107067,1535,9023.4375,33536
0.094839942,1315,128,-0.986335395,-13676,128,124930,9.010155083,0.105586065,1464,9042.96875,34176
0.093974482,1303,128,-0.98965299,-13722,128,-7618,-0.549422568,0.075511345,1047,9062.5,34816
0.133136527,1846,128,-0.989292382,-13717,128,124929,9.010082961,0.139627473,1936,9082.03125,35456
0.170856139,2369,128,-0.972343799,-13482,128,-4605,-0.332120101,0.147488731,2045,9101.5625,36096
0.169918557,2356,128,-0.962679501,-13348,128,-5902,-0.425661853,0.291731988,4045,9121.09375,36736
0.088060509,1221,128,-1.017780425,-14112,128,-6115,-0.44102376,0.073780426,1023,9140.625,37376
0.063394912,879,128,-1.029896859,-14280,128,-8192,-0.590820383,0.0230068,319,9160.15625,38016
0.059716709,828,128,-1.029608372,-14276,128,-7289,-0.525694552,0.018246772,253,9179.6875,38656
0.029137138,404,128,-1.050595766,-14567,128,123673,8.919498196,0.013847353,192,9199.21875,39296
0.321229735,4454,128,-0.938590877,-13014,128,124919,9.009361745,0.064620979,896,9218.75,39936
1.029536251,14275,128,-0.667052945,-9249,128,-830,-0.059860952,0.144459622,2003,9238.28125,40576
0.134578959,1866,128,-1.159787912,-16081,128,-13,-9.38E-04,0.443331652,6147,9257.8125,41216
0.081569562,1131,128,-1.067472228,-14801,128,-8154,-0.588079761,0.145325082,2015,9277.34375,41856
0.054812438,760,128,-1.073674688,-14887,128,123385,8.898727167,0.008943082,124,9296.875,42496
0.060510047,839,128,-1.062063105,-14726,128,-7937,-0.572429368,5.05E-04,7,9316.40625,43136
0.0593561,823,128,-1.068337687,-14813,128,124912,9.008856894,0.027694705,384,9335.9375,43776
0.072482237,1005,128,-1.058384902,-14675,128,-6656,-0.480041561,0.011467339,159,9355.46875,44416
0.090729009,1258,128,-1.050018793,-14559,128,-6148,-0.443403774,0.090224158,1251,9375,45056
0.116332187,1613,128,-1.013020398,-14046,128,-5111,-0.368613645,0.134362594,1863,9394.53125,45696
0.144892352,2009,128,-0.998812437,-13849,128,123279,8.891082274,0.143233555,1986,9414.0625,46336
0.212614562,2948,128,-0.936571471,-12986,128,-6298,-0.454222018,0.286683474,3975,9433.59375,46976
0.278245244,3858,128,-0.895678508,-12419,128,126872,9.150215286,0.26656154,3696,9453.125,47616
0.29093865,4034,128,-0.899212468,-12468,128,-4097,-0.295482313,0.291010772,4035,9472.65625,48256
0.136598365,1894,128,-0.987849949,-13697,128,-849,-0.061231263,0.260431202,3611,9492.1875,48896
0.016443731,228,128,-1.061774619,-14722,128,-7170,-0.517112078,0.018391015,255,9511.71875,49536
-0.070102223,-972,128,-1.106273664,-15339,128,122990,8.870239123,1.126251355,15616,9531.25,50176
-0.086257468,-1196,128,-1.107571853,-15357,128,122881,8.862377866,1.172120711,16252,9550.78125,50816
-0.097941172,-1358,128,-1.104542745,-15315,128,122942,8.866777285,1.168947359,16208,9570.3125,51456
-0.124337688,-1724,128,-1.110384597,-15396,128,-8071,-0.582093666,1.153873939,15999,9589.84375,52096
-0.113663687,-1576,128,-1.093436014,-15161,128,124135,8.952818388,1.177024982,16320,9609.375,52736
-0.124914661,-1732,128,-1.088964473,-15099,128,123965,8.940557711,1.155965466,16028,9628.90625,53376
-0.13284804,-1842,128,-1.080309877,-14979,128,123389,8.899015653,1.126107112,15614,9648.4375,54016
-0.149940866,-2079,128,-1.076920161,-14932,128,122887,8.862810595,1.145579951,15884,9667.96875,54656
-0.163932462,-2273,128,-1.07865108,-14956,128,-7952,-0.573511192,1.164259453,16143,9687.5,55296
-0.149724501,-2076,128,-1.069491633,-14829,128,123125,8.879975543,1.177313468,16324,9707.03125,55936
-0.115971579,-1608,128,-1.059971578,-14697,128,123456,8.903847802,1.175726792,16302,9726.5625,56576
-0.085680495,-1188,128,-1.035233859,-14354,128,-6170,-0.44499045,1.165413399,16159,9746.09375,57216
-0.133497135,-1851,128,-1.023550156,-14192,128,-8042,-0.580002139,1.175221941,16295,9765.625,57856
-0.224803117,-3117,128,-1.069852241,-14834,128,-6656,-0.480041561,1.178395293,16339,9785.15625,58496
-0.246006876,-3411,128,-1.064298876,-14757,128,116239,8.383346007,1.14904179,15932,9804.6875,59136
-0.249685079,-3462,128,-1.050956375,-14572,128,-7920,-0.5712033,1.153873939,15999,9824.21875,59776
-0.307382382,-4262,128,-1.082762013,-15013,128,116669,8.414358308,1.163754602,16136,9843.75,60416
0.277596149,3849,128,-0.776822064,-10771,128,127487,9.194570088,0.276947054,3840,9863.28125,61056
0.099095118,1374,128,-1.151421803,-15965,128,127103,9.166875382,0.562837191,7804,9882.8125,61696
-0.216581251,-3003,128,-1.078290472,-14951,128,-8096,-0.583896707,1.044970279,14489,9902.34375,62336
-0.273268851,-3789,128,-1.044970279,-14489,128,-7321,-0.528002444,1.181568644,16383,9921.875,62976
-0.277091298,-3842,128,-1.023045304,-14185,128,-7775,-0.560745664,1.156181831,16031,9941.40625,63616
-0.291731988,-4045,128,-1.038839941,-14404,128,-6268,-0.452058369,1.148969668,15931,9960.9375,64256
-0.275288257,-3817,128,-1.030906562,-14294,128,-8160,-0.588512491,1.140170829,15809,9980.46875,64896
-0.260214837,-3608,128,-1.011433722,-14024,128,122942,8.866777285,1.181352279,16380,10000,0
-0.242112308,-3357,128,-0.986407517,-13677,128,-14081,-1.015544655,1.147527235,15911,10019.53125,640
-0.225091603,-3121,128,-0.965997096,-13394,128,125319,9.038210397,1.177024982,16320,10039.0625,1280
-0.18023195,-2499,128,-0.924455038,-12818,128,126974,9.157571692,1.163177629,16128,10058.59375,1920
-0.081569562,-1131,128,-0.84620307,-11733,128,-4093,-0.295193827,2.215648558,30721,10078.125,2560
-0.054163343,-751,128,-0.835240583,-11581,128,-1823,-0.131477729,1.178828022,16345,10097.65625,3200
-0.113303079,-1571,128,-0.868632897,-12044,128,127815,9.218225982,1.126539841,15620,10117.1875,3840
-0.235260753,-3262,128,-0.929287187,-12885,128,124291,8.964069362,1.103172434,15296,10136.71875,4480
-0.368613645,-5111,128,-0.996071815,-13811,128,123875,8.934066765,1.107788218,15360,10156.25,5120
-0.407415081,-5649,128,-1.013741614,-14056,128,-7682,-0.554038352,1.14464237,15871,10175.78125,5760
-0.417295744,-5786,128,-1.002707005,-13903,128,116749,8.420128038,1.144714492,15872,10195.3125,6400
-0.423426083,-5871,128,-1.001553059,-13887,128,116987,8.437292986,1.163754602,16136,10214.84375,7040
-0.418954542,-5809,128,-0.994124531,-13784,128,-12360,-0.891423332,1.16368248,16135,10234.375,7680
-0.42595034,-5906,128,-0.996216058,-13813,128,118335,8.534512941,1.144714492,15872,10253.90625,8320
-0.433378867,-6009,128,-0.985253571,-13661,128,-7949,-0.573294827,1.108004583,15363,10273.4375,8960
-0.442394071,-6134,128,-0.981647489,-13611,128,118528,8.548432416,1.125962868,15612,10292.96875,9600
-0.453789288,-6292,128,-0.985469936,-13664,128,116976,8.436499648,1.164043088,16140,10312.5,10240
-0.45963114,-6373,128,-0.978978989,-13574,128,118528,8.548432416,1.179477117,16354,10332.03125,10880
-0.47867125,-6637,128,-0.986046909,-13672,128,-12321,-0.888610588,1.164403697,16145,10351.5625,11520
-0.472613033,-6553,128,-0.973137137,-13493,128,-7304,-0.526776377,1.170606157,16231,10371.09375,12160
-0.468862709,-6501,128,-0.974291083,-13509,128,-8192,-0.590820383,1.149258155,15935,10390.625,12800
-0.423930934,-5878,128,-0.955178852,-13244,128,-12682,-0.914646496,1.164259453,16143,10410.15625,13440
-0.398255634,-5522,128,-0.930657498,-12904,128,116707,8.41709893,1.181352279,16380,10429.6875,14080
-0.423498204,-5872,128,-0.921714416,-12780,128,118272,8.529969279,1.135482923,15744,10449.21875,14720
-0.521799984,-7235,128,-0.972488042,-13484,128,123104,8.878460989,1.109807624,15388,10468.75,15360
-0.531608526,-7371,128,-0.96664619,-13403,128,118689,8.560043998,1.167504927,16188,10488.28125,16000
-0.552235312,-7657,128,-0.984099625,-13645,128,-16384,-1.181640766,1.181568644,16383,10507.8125,16640
-0.584762166,-8108,128,-0.984171746,-13646,128,118783,8.566823431,1.113846435,15444,10527.34375,17280
-0.07926167,-1099,128,-0.73196241,-10149,128,129027,9.305637396,2.281351361,31632,10546.875,17920
-0.10717274,-1486,128,-1.051821834,-14584,128,-60,-0.004327298,0.350871724,4865,10566.40625,18560
-0.474127588,-6574,128,-1.001336694,-13884,128,123367,8.897428977,1.144714492,15872,10585.9375,19200
-0.537955229,-7459,128,-0.946524256,-13124,128,-13311,-0.960011001,1.179260752,16351,10605.46875,19840
-0.539541905,-7481,128,-0.925608984,-12834,128,-7742,-0.55836565,1.159066696,16071,10625,20480
-0.536945526,-7445,128,-0.912987699,-12659,128,-12289,-0.886302696,1.147238749,15907,10644.53125,21120
-0.538315837,-7464,128,-0.905559171,-12556,128,118780,8.566607066,1.153657574,15996,10664.0625,21760
-0.536584918,-7440,128,-0.903251279,-12524,128,116678,8.415007402,1.18048682,16368,10683.59375,22400
-0.535070364,-7419,128,-0.877143249,-12162,128,-12289,-0.886302696,1.172337076,16255,10703.125,23040
-0.540767973,-7498,128,-0.86524318,-11997,128,122115,8.807132698,1.154090304,16002,10722.65625,23680
-0.433811597,-6015,128,-0.814469554,-11293,128,-3073,-0.221629765,1.145219343,15879,10742.1875,24320
-0.377628848,-5236,128,-0.768528076,-10656,128,128992,9.303113139,1.172409197,16256,10761.71875,24960
-0.314161815,-4356,128,-0.731818167,-10147,128,128899,9.296405828,1.181496523,16382,10781.25,25600
-0.33255283,-4611,128,-0.767734738,-10645,128,-4085,-0.294616854,1.14464237,15871,10800.78125,26240
-0.531464282,-7369,128,-0.863728626,-11976,128,129084,9.309748329,1.170534035,16230,10820.3125,26880
-0.614692642,-8523,128,-0.916377415,-12706,128,-12530,-0.903684009,0.555120177,7697,10839.84375,27520
-0.620678737,-8606,128,-0.929647795,-12890,128,114935,8.289299403,0.572357246,7936,10859.375,28160
-0.651907403,-9039,128,-0.930441133,-12901,128,-7684,-0.554182596,0.535503094,7425,10878.90625,28800
-0.646281915,-8961,128,-0.929142944,-12883,128,-12832,-0.92546474,0.53535885,7423,10898.4375,29440
-0.622049048,-8625,128,-0.91349255,-12666,128,118150,8.52117044,0.550432271,7632,10917.96875,30080
-0.637338833,-8837,128,-0.921137443,-12772,128,-12388,-0.893442737,0.537234013,7449,10937.5,30720
-0.63495882,-8804,128,-0.917603483,-12723,128,-12304,-0.88738452,0.54949469,7619,10957.03125,31360
-0.647291618,-8975,128,-0.919839253,-12754,128,-12401,-0.894380318,0.534349148,7409,10976.5625,32000
-0.645777064,-8954,128,-0.923012605,-12798,128,-12800,-0.923156848,0.535647337,7427,10996.09375,32640
-0.656378943,-9101,128,-0.924166551,-12814,128,-15873,-1.144786614,0.521511498,7231,11015.625,33280
-0.6589032,-9136,128,-0.919118037,-12744,128,118588,8.552759713,0.518121781,7184,11035.15625,33920
-0.667341431,-9253,128,-0.930008403,-12895,128,-12290,-0.886374818,0.521367254,7229,11054.6875,34560
-0.655513484,-9089,128,-0.913204064,-12662,128,-14624,-1.054706699,0.55439896,7687,11074.21875,35200
-0.684434257,-9490,128,-0.925392619,-12831,128,-12354,-0.890990602,0.589882802,8179,11093.75,35840
-0.64779647,-8982,128,-0.91349255,-12666,128,116710,8.417315294,0.534853999,7416,11113.28125,36480
-0.601278019,-8337,128,-0.882985101,-12243,128,-10208,-0.736217587,0.588728856,8163,11132.8125,37120
-0.582814882,-8081,128,-0.875772938,-12143,128,-4071,-0.293607151,1.145219343,15879,11152.34375,37760
-0.644406753,-8935,128,-0.882191763,-12232,128,-12276,-0.885365115,0.519203606,7199,11171.875,38400
-0.717033233,-9942,128,-0.925608984,-12834,128,115964,8.363512559,0.553605622,7676,11191.40625,39040
-0.723163572,-10027,128,-0.932676903,-12932,128,118655,8.557591862,0.532834593,7388,11210.9375,39680
-0.746530979,-10351,128,-0.935994498,-12978,128,118079,8.516049804,0.572213003,7934,11230.46875,40320
-0.68234273,-9461,128,-0.940249674,-13037,128,-12392,-0.893731224,1.21416762,16835,11250,40960
0.176914355,2453,128,-0.633732752,-8787,128,126471,9.121294513,0.266850026,3700,11269.53125,41600
-0.545455878,-7563,128,-1.040642982,-14429,128,123360,8.896924126,1.07288135,14876,11289.0625,42240
-0.679169378,-9417,128,-0.936787836,-12989,128,118771,8.565957971,1.185102604,16432,11308.59375,42880
-0.710614408,-9853,128,-0.912050117,-12646,128,-14824,-1.069131025,0.586420964,8131,11328.125,43520
-0.726913896,-10079,128,-0.920921078,-12769,128,122895,8.863387568,0.585627626,8120,11347.65625,44160
-0.697921002,-9677,128,-0.89091848,-12353,128,-12544,-0.904693711,0.589017342,8167,11367.1875,44800
-0.701671326,-9729,128,-0.884643899,-12266,128,-12282,-0.885797845,0.590748261,8191,11386.71875,45440
-0.666548093,-9242,128,-0.854785544,-11852,128,-12231,-0.882119642,0.572429368,7937,11406.25,46080
-0.650248605,-9016,128,-0.842957597,-11688,128,120856,8.716331567,0.588512491,8160,11425.78125,46720
-0.621327832,-8615,128,-0.817787149,-11339,128,121759,8.781457398,0.562548704,7800,11445.3125,47360
-0.533483688,-7397,128,-0.747684926,-10367,128,-127,-0.009159447,1.174644968,16287,11464.84375,48000
-0.454871113,-6307,128,-0.697560394,-9672,128,122812,8.857401473,1.773326608,24588,11484.375,48640
-0.427032164,-5921,128,-0.693088853,-9610,128,-8196,-0.591108869,1.122717395,15567,11503.90625,49280
-0.503048361,-6975,128,-0.738309114,-10237,128,129025,9.305493153,1.121635571,15552,11523.4375,49920
-0.668134769,-9264,128,-0.825864771,-11451,128,-11785,-0.849953395,0.517039957,7169,11542.96875,50560
-0.721865382,-10009,128,-0.873104438,-12106,128,-9985,-0.720134463,0.524107876,7267,11562.5,51200
-0.748261899,-10375,128,-0.872022614,-12091,128,-4072,-0.293679272,0.590748261,8191,11582.03125,51840
-0.754175872,-10457,128,-0.877071128,-12161,128,-16353,-1.179404995,0.581805179,8067,11601.5625,52480
-0.738236992,-10236,128,-0.873537168,-12112,128,120888,8.718639459,0.516967835,7168,11621.09375,53120
-0.742275803,-10292,128,-0.867983802,-12035,128,122877,8.862089379,0.586493085,8132,11640.625,53760
-0.724173275,-10041,128,-0.84793399,-11757,128,-11757,-0.84793399,0.53535885,7423,11660.15625,54400
-0.730087248,-10123,128,-0.859978302,-11924,128,127231,9.176106951,0.531103674,7364,11679.6875,55040
-0.72265872,-10020,128,-0.844688516,-11712,128,-12168,-0.877575979,0.531897012,7375,11699.21875,55680
-0.719629612,-9978,128,-0.84310184,-11690,128,127052,9.163197179,0.553172893,7670,11718.75,56320
-0.717249598,-9945,128,-0.837909083,-11618,128,-11648,-0.840072732,0.519492092,7203,11738.28125,56960
-0.698930704,-9691,128,-0.822835663,-11409,128,121855,8.788381074,0.590531896,8188,11757.8125,57600
-0.728572694,-10102,128,-0.845121246,-11718,128,120835,8.714817013,0.534853999,7416,11777.34375,58240
-0.72042295,-9989,128,-0.83733211,-11610,128,127879,9.222841766,0.534853999,7416,11796.875,58880
-0.704556192,-9769,128,-0.824133852,-11427,128,-3075,-0.221774008,0.551514095,7647,11816.40625,59520
-0.659263809,-9141,128,-0.80192039,-11119,128,119839,8.642983871,0.521583619,7232,11835.9375,60160
-0.607768966,-8427,128,-0.77090809,-10689,128,-3712,-0.267715486,0.589594315,8175,11855.46875,60800
-0.640872793,-8886,128,-0.756628007,-10491,128,128773,9.287318502,0.57697303,8000,11875,61440
-0.733116357,-10165,128,-0.817642905,-11337,128,119808,8.6407481,0.520429673,7216,11894.53125,62080
-0.735135762,-10193,128,-0.80898831,-11217,128,-4089,-0.29490534,0.518049659,7183,11914.0625,62720
-0.739679425,-10256,128,-0.810070134,-11232,128,119808,8.6407481,0.589666437,8176,11933.59375,63360
-0.767590495,-10643,128,-0.835024218,-11578,128,118790,8.567328282,0.576684544,7996,11953.125,64000
-0.134218351,-1861,128,-0.497639239,-6900,128,-8188,-0.590531896,2.21665826,30735,11972.65625,64640
-0.400058675,-5547,128,-0.95157277,-13194,128,-8448,-0.60928352,0.001081824,15,11992.1875,65280
-0.681549392,-9450,128,-0.821032622,-11384,128,122824,8.858266933,0.582742761,8080,12011.71875,384
-0.716239895,-9931,128,-0.767518373,-10642,128,122657,8.846222621,0.584762166,8108,12031.25,1024
-0.719773855,-9980,128,-0.746242493,-10347,128,122753,8.853146297,0.586493085,8132,12050.78125,1664
-0.719052639,-9970,128,-0.734486667,-10184,128,-10240,-0.738525479,0.57343907,7951,12070.3125,2304
-0.698786461,-9689,128,-0.718403544,-9961,128,-256,-0.018463137,0.572862097,7943,12089.84375,2944
-0.683063946,-9471,128,-0.708450759,-9823,128,131041,9.450890356,0.581588814,8064,12109.375,3584
-0.649238902,-9002,128,-0.680539689,-9436,128,-10208,-0.736217587,0.563053556,7807,12128.90625,4224
-0.620101764,-8598,128,-0.649383145,-9004,128,130140,9.385908769,0.59067614,8190,12148.4375,4864
-0.533627931,-7399,128,-0.590027045,-8181,128,-385,-0.027766827,1.179549239,16355,12167.96875,5504
-0.444485598,-6163,128,-0.534565512,-7412,128,-242,-0.017453434,1.781620596,24703,12187.5,6144
-0.394793796,-5474,128,-0.519924822,-7209,128,123137,8.880841003,1.172409197,16256,12207.03125,6784
-0.439581327,-6095,128,-0.554975933,-7695,128,123129,8.88026403,1.108942164,15376,12226.5625,7424
-0.563342042,-7811,128,-0.634742455,-8801,128,-1,-7.21E-05,1.070789822,14847,12246.09375,8064
-0.683424554,-9476,128,-0.714292611,-9904,128,121088,8.733063785,0.572068759,7932,12265.625,8704
-0.714076247,-9901,128,-0.727490869,-10087,128,-881,-0.063539155,0.551225609,7643,12285.15625,9344
-0.717393841,-9947,128,-0.734270303,-10181,128,-8673,-0.625510886,0.572862097,7943,12304.6875,9984
-0.723884788,-10037,128,-0.749415845,-10391,128,-8448,-0.60928352,0.526127282,7295,12324.21875,10624
-0.711984719,-9872,128,-0.73282787,-10161,128,129055,9.307656802,0.536296432,7436,12343.75,11264
-0.703474367,-9754,128,-0.726336923,-10071,128,129025,9.305493153,0.553172893,7670,12363.28125,11904
-0.711840476,-9870,128,-0.728212086,-10097,128,-10233,-0.738020627,0.552956528,7667,12382.8125,12544
-0.695757353,-9647,128,-0.716672625,-9937,128,-8441,-0.608778668,0.555120177,7697,12402.34375,13184
-0.697632515,-9673,128,-0.727779356,-10091,128,-1913,-0.137968676,0.589882802,8179,12421.875,13824
-0.702031935,-9734,128,-0.718331423,-9960,128,-12520,-0.902962792,0.590459775,8187,12441.40625,14464
-0.697776758,-9675,128,-0.717033233,-9942,128,-1992,-0.143666285,0.557860799,7735,12460.9375,15104
-0.700228894,-9709,128,-0.734703032,-10187,128,-2017,-0.145469325,0.55439896,7687,12480.46875,15744
-0.694098555,-9624,128,-0.73636183,-10210,128,120862,8.716764297,0.59067614,8190,12500,16384
-0.670514783,-9297,128,-0.715518679,-9921,128,-8385,-0.604739857,0.582670639,8079,12519.53125,17024
-0.607264114,-8420,128,-0.703113759,-9749,128,131043,9.4510346,0.574520895,7966,12539.0625,17664
-0.583896707,-8096,128,-0.679962716,-9428,128,120876,8.717774,1.151638168,15968,12558.59375,18304
-0.649238902,-9002,128,-0.697560394,-9672,128,122424,8.829418281,0.535286729,7422,12578.125,18944
-0.68587669,-9510,128,-0.732106654,-10151,128,-10209,-0.736289708,0.554687447,7691,12597.65625,19584
-0.692151271,-9597,128,-0.733549086,-10171,128,-512,-0.036926274,0.563342042,7811,12617.1875,20224
-0.703258002,-9751,128,-0.7332606,-10167,128,121960,8.795953845,0.58937795,8172,12636.71875,20864
-0.614548399,-8521,128,-0.725615707,-10061,128,-8479,-0.61151929,0.563053556,7807,12656.25,21504
0.320724883,4447,128,-0.238289861,-3304,128,-3688,-0.265984567,0.009159447,127,12675.78125,22144
-0.296059286,-4105,128,-0.874330506,-12123,128,-3963,-0.285818015,1.180703185,16371,12695.3125,22784
-0.620101764,-8598,128,-0.732323019,-10154,128,129054,9.30758468,1.190295361,16504,12714.84375,23424
-0.651546794,-9034,128,-0.720567193,-9991,128,-8193,-0.590892505,0.590171288,8183,12734.375,24064
-0.645777064,-8954,128,-0.703330124,-9752,128,121960,8.795953845,0.572789976,7942,12753.90625,24704
-0.6305594,-8743,128,-0.700589502,-9714,128,-10233,-0.738020627,0.590748261,8191,12773.4375,25344
-0.596517992,-8271,128,-0.678592405,-9409,128,129855,9.365354105,0.585916112,8124,12792.96875,25984
-0.594282221,-8240,128,-0.687463365,-9532,128,122848,8.859997852,0.590531896,8188,12812.5,26624
-0.573511192,-7952,128,-0.677654824,-9396,128,130828,9.435528449,1.181063793,16376,12832.03125,27264
-0.504274428,-6992,128,-0.623419359,-8644,128,130623,9.420743516,1.18048682,16368,12851.5625,27904
-0.466626938,-6470,128,-0.600484681,-8326,128,130943,9.443822437,1.181496523,16382,12871.09375,28544
-0.354549927,-4916,128,-0.538532202,-7467,128,-7209,-0.519924822,1.181568644,16383,12890.625,29184
-0.31170968,-4322,128,-0.518482389,-7189,128,-1056,-0.07616044,1.165413399,16159,12910.15625,29824
-0.423858812,-5877,128,-0.606470776,-8409,128,-8201,-0.591469478,1.108870042,15375,12929.6875,30464
-0.538964932,-7473,128,-0.684722744,-9494,128,-8672,-0.625438765,1.145796316,15887,12949.21875,31104
-0.621327832,-8615,128,-0.731096951,-10137,128,122055,8.8028054,0.590531896,8188,12968.75,31744
-0.644478875,-8936,128,-0.751795858,-10424,128,122824,8.858266933,0.574376652,7964,12988.28125,32384
-0.651402551,-9032,128,-0.756916494,-10495,128,122625,8.843914729,0.55793292,7736,13007.8125,33024
-0.664889296,-9219,128,-0.767662617,-10644,128,-8220,-0.592839789,0.590748261,8191,13027.34375,33664
-0.653710443,-9064,128,-0.767446252,-10641,128,122639,8.844924431,0.518698754,7192,13046.875,34304
-0.637555198,-8840,128,-0.747396439,-10363,128,122753,8.853146297,0.553317136,7672,13066.40625,34944
-0.64072855,-8884,128,-0.762109251,-10567,128,-10244,-0.738813965,0.543436473,7535,13085.9375,35584
-0.644623118,-8938,128,-0.755185575,-10471,128,-11384,-0.821032622,0.574593016,7967,13105.46875,36224
-0.651186186,-9029,128,-0.7616044,-10560,128,-2560,-0.18463137,0.554975933,7695,13125,36864
-0.652484376,-9047,128,-0.762974711,-10579,128,-8259,-0.595652532,0.534926121,7417,13144.53125,37504
-0.64649828,-8964,128,-0.772711131,-10714,128,128902,9.296622192,0.535286729,7422,13164.0625,38144
-0.642964321,-8915,128,-0.768600198,-10657,128,119559,8.622789815,0.573222706,7948,13183.59375,38784
-0.650248605,-9016,128,-0.779418442,-10807,128,-2835,-0.204464818,0.554975933,7695,13203.125,39424
-0.63185759,-8761,128,-0.757204981,-10499,128,-10241,-0.7385976,0.58670945,8135,13222.65625,40064
-0.590748261,-8191,128,-0.757349224,-10501,128,-2053,-0.148065704,1.163249751,16129,13242.1875,40704
-0.563919015,-7819,128,-0.756411643,-10488,128,120800,8.712292756,1.164331575,16144,13261.71875,41344
-0.564928718,-7833,128,-0.737443654,-10225,128,-10240,-0.738525479,1.167288562,16185,13281.25,41984
-0.617505386,-8562,128,-0.765715333,-10617,128,122375,8.825884321,0.587214301,8142,13300.78125,42624
-0.644478875,-8936,128,-0.778841469,-10799,128,129020,9.305132545,0.550143784,7628,13320.3125,43264
-0.646642524,-8966,128,-0.782736037,-10853,128,-3047,-0.219754603,0.571996638,7931,13339.84375,43904
-0.670659026,-9299,128,-0.800982809,-11106,128,-12257,-0.883994804,0.590748261,8191,13359.375,44544
-0.40294354,-5587,128,-0.687319122,-9530,128,-1437,-0.103638781,1.838019709,25485,13378.90625,45184
0.394505309,5470,128,-0.341207426,-4731,128,-543,-0.039162044,0.076088318,1055,13398.4375,45824
-0.554975933,-7695,128,-0.870796546,-12074,128,-9186,-0.662509282,1.06978012,14833,13417.96875,46464
-0.604956222,-8388,128,-0.796078538,-11038,128,122594,8.841678958,0.573222706,7948,13437.5,47104
-0.623563602,-8646,128,-0.792328214,-10986,128,122654,8.846006256,0.572501489,7938,13457.03125,47744
-0.621111467,-8612,128,-0.789371227,-10945,128,127230,9.176034829,0.589666437,8176,13476.5625,48384
-0.614043547,-8514,128,-0.795213079,-11026,128,-10513,-0.758214683,0.558437772,7743,13496.09375,49024
-0.565217205,-7837,128,-0.768672319,-10658,128,121952,8.795376872,1.18048682,16368,13535.15625,50304
-0.530815188,-7360,128,-0.740617006,-10269,128,-10272,-0.740833371,1.181568644,16383,13554.6875,50944
-0.476579723,-6608,128,-0.714797463,-9911,128,-8223,-0.593056153,1.77253327,24577,13574.21875,51584
-0.385273741,-5342,128,-0.664312323,-9211,128,-1308,-0.09433509,1.774841163,24609,13593.75,52224
-0.316902437,-4394,128,-0.634742455,-8801,128,130172,9.388216661,1.781115744,24696,13613.28125,52864
-0.317695775,-4405,128,-0.644983726,-8943,128,131068,9.45283764,1.163177629,16128,13632.8125,53504
-0.426166704,-5909,128,-0.723163572,-10027,128,129248,9.321576276,1.172409197,16256,13652.34375,54144
-0.566010543,-7848,128,-0.805959202,-11175,128,-8260,-0.595724654,1.112331881,15423,13671.875,54784
-0.634021239,-8791,128,-0.850097638,-11787,128,122766,8.854083878,0.581011841,8056,13691.40625,55424
-0.653926808,-9067,128,-0.85637222,-11874,128,122815,8.857617838,0.552451676,7660,13710.9375,56064
-0.656955917,-9109,128,-0.863944991,-11979,128,121336,8.750949949,0.535142486,7420,13730.46875,56704
-0.660417755,-9157,128,-0.864089234,-11981,128,-9279,-0.669216593,0.534926121,7417,13750,57344
-0.647724348,-8981,128,-0.859545572,-11918,128,120948,8.722966757,0.530526701,7356,13769.53125,57984
-0.645200091,-8946,128,-0.866252883,-12011,128,121343,8.751454801,0.544518297,7550,13789.0625,58624
-0.644190388,-8932,128,-0.858031018,-11897,128,127372,9.1862761,0.588368248,8158,13808.59375,59264
-0.658758957,-9134,128,-0.873537168,-12112,128,-9980,-0.719773855,0.554687447,7691,13828.125,59904
-0.657605011,-9118,128,-0.870580181,-12071,128,120893,8.719000068,0.554038352,7682,13847.65625,60544
-0.672317823,-9322,128,-0.882840858,-12241,128,-10209,-0.736289708,0.519203606,7199,13867.1875,61184
-0.662004431,-9179,128,-0.885942088,-12284,128,120840,8.715177621,0.525622431,7288,13886.71875,61824
-0.659624417,-9146,128,-0.879306898,-12192,128,-10191,-0.734991519,0.590748261,8191,13906.25,62464
-0.671308121,-9308,128,-0.89048575,-12347,128,-9216,-0.664672931,0.590748261,8191,13925.78125,63104
-0.671524486,-9311,128,-0.886663304,-12294,128,-12304,-0.88738452,0.576900909,7999,13945.3125,63744
-0.664961417,-9220,128,-0.893226372,-12385,128,118782,8.566751309,0.581300328,8060,13964.84375,64384
-0.619957521,-8596,128,-0.894236075,-12399,128,-12416,-0.895462143,0.572285124,7935,13984.375,65024
-0.58937795,-8172,128,-0.876926884,-12159,128,121983,8.797612643,0.588512491,8160,14003.90625,128
-0.583319734,-8088,128,-0.855218274,-11858,128,-8394,-0.605388952,1.172625562,16259,14023.4375,768
-0.680756054,-9439,128,-0.91082405,-12629,128,-12431,-0.896543967,0.519780579,7207,14042.96875,1408
-0.710325922,-9849,128,-0.917891969,-12727,128,116728,8.418613484,0.55836565,7742,14062.5,2048
-0.698065245,-9679,128,-0.913636793,-12668,128,-12796,-0.922868362,0.558005042,7737,14082.03125,2688
-0.744223087,-10319,128,-0.939528458,-13027,128,117760,8.493043005,0.589666437,8176,14101.5625,3328
-0.269302162,-3734,128,-0.710325922,-9849,128,-13049,-0.941115134,1.254988462,17401,14121.09375,3968
-0.274567041,-3807,128,-1.039056306,-14407,128,122800,8.856536014,0.295265948,4094,14140.625,4608
-0.624717548,-8662,128,-0.969603177,-13444,128,-14457,-1.042662387,1.163393994,16131,14160.15625,5248
-0.681116662,-9444,128,-0.91349255,-12666,128,117886,8.50213033,0.571780273,7928,14179.6875,5888
-0.674337229,-9350,128,-0.895894873,-12422,128,-12781,-0.921786537,0.570554205,7911,14199.21875,6528
-0.673327526,-9336,128,-0.892793643,-12379,128,118663,8.558168835,0.590531896,8188,14218.75,7168
-0.654936511,-9081,128,-0.882336006,-12234,128,-12541,-0.904477346,0.576756665,7997,14238.28125,7808
-0.647652226,-8980,128,-0.882552371,-12237,128,-10226,-0.737515776,0.572140881,7933,14257.8125,8448
-0.611375047,-8477,128,-0.855867369,-11867,128,-10209,-0.736289708,0.590748261,8191,14277.34375,9088
-0.572789976,-7942,128,-0.828389028,-11486,128,-8385,-0.604739857,1.179837725,16359,14296.875,9728
-0.483287034,-6701,128,-0.770547482,-10684,128,-8462,-0.610293223,1.177529833,16327,14316.40625,10368
-0.423642447,-5874,128,-0.744367331,-10321,128,122848,8.859997852,1.164043088,16140,14335.9375,11008
-0.338538925,-4694,128,-0.704700435,-9771,128,-912,-0.065774925,1.167721292,16191,14355.46875,11648
-0.359959049,-4991,128,-0.729798762,-10119,128,-1802,-0.129963175,1.128487125,15647,14375,12288
-0.478310642,-6632,128,-0.804588891,-11156,128,127103,9.166875382,1.163177629,16128,14394.53125,12928
-0.602143479,-8349,128,-0.88558148,-12279,128,-8608,-0.620822981,1.110023988,15391,14414.0625,13568
-0.637266712,-8836,128,-0.91392528,-12672,128,-14337,-1.034007792,0.55439896,7687,14433.59375,14208
-0.654215295,-9071,128,-0.921353808,-12775,128,118287,8.531051103,0.534853999,7416,14453.125,14848
-0.63806005,-8847,128,-0.921786537,-12781,128,118268,8.529680792,0.53312308,7392,14472.65625,15488
-0.631929711,-8762,128,-0.925176254,-12828,128,118544,8.549586362,0.549278325,7616,14492.1875,16128
-0.621039345,-8611,128,-0.928854457,-12879,128,-13262,-0.956477041,0.58627672,8129,14511.71875,16768
-0.616712048,-8551,128,-0.92546474,-12832,128,-12304,-0.88738452,0.582670639,8079,14531.25,17408
-0.609572006,-8452,128,-0.930513254,-12902,128,116416,8.396111536,0.581588814,8064,14550.78125,18048
-0.594787073,-8247,128,-0.928782335,-12878,128,117950,8.506746114,0.590531896,8188,14570.3125,18688
-0.602287722,-8351,128,-0.932821147,-12934,128,-13190,-0.951284284,0.589738558,8177,14589.84375,19328
-0.569544502,-7897,128,-0.920993199,-12770,128,118607,8.554130024,1.117019786,15488,14609.375,19968
-0.574881503,-7971,128,-0.934696309,-12960,128,-13289,-0.958424325,0.590748261,8191,14628.90625,20608
-0.570914813,-7916,128,-0.940033309,-13034,128,-12831,-0.925392619,1.135987775,15751,14648.4375,21248
-0.505139888,-7004,128,-0.92719566,-12856,128,-12801,-0.92322897,1.181568644,16383,14667.96875,21888
-0.464968141,-6447,128,-0.916738023,-12711,128,118528,8.548432416,1.177024982,16320,14687.5,22528
-0.435686759,-6041,128,-0.891279088,-12358,128,118718,8.562135525,1.107788218,15360,14707.03125,23168
-0.535863702,-7430,128,-0.960732217,-13321,128,118268,8.529680792,1.107788218,15360,14726.5625,23808
-0.544590419,-7551,128,-0.956404919,-13261,128,117758,8.492898761,1.181063793,16376,14746.09375,24448
-0.551153487,-7642,128,-0.972199556,-13480,128,118720,8.562279768,1.140531437,15814,14765.625,25088
-0.565938421,-7847,128,-0.985614179,-13666,128,-12513,-0.902457941,1.163393994,16131,14785.15625,25728
-0.041830545,-580,128,-0.747684926,-10367,128,-12800,-0.923156848,1.902207959,26375,14804.6875,26368
0.322600046,4473,128,-0.769105049,-10664,128,-8065,-0.581660936,0.519203606,7199,14824.21875,27008
-0.341928642,-4741,128,-1.107283367,-15353,128,122887,8.862810595,1.109519137,15384,14843.75,27648
-0.479176102,-6644,128,-0.983522652,-13637,128,118567,8.551245159,1.178034684,16334,14863.28125,28288
-0.467997249,-6489,128,-0.963112231,-13354,128,-8112,-0.585050653,1.179837725,16359,14882.8125,28928
-0.461866911,-6404,128,-0.968881961,-13434,128,-7952,-0.573511192,1.179260752,16351,14902.34375,29568
-0.441095882,-6116,128,-0.969819542,-13447,128,117703,8.488932072,1.108942164,15376,14921.875,30208
-0.424796393,-5890,128,-0.97371411,-13501,128,118663,8.558168835,1.126107112,15614,14941.40625,30848
-0.380730078,-5279,128,-0.945947283,-13116,128,118780,8.566607066,1.181496523,16382,14960.9375,31488
-0.339476507,-4707,128,-0.920344105,-12761,128,-8067,-0.581805179,1.144786614,15873,14980.46875,32128
-0.28206769,-3911,128,-0.899428832,-12471,128,-12815,-0.924238673,1.146373289,15895,15000,32768
-0.216437008,-3001,128,-0.882191763,-12232,128,127000,9.159446855,1.149330276,15936,15019.53125,33408
-0.122678891,-1701,128,-0.847284895,-11748,128,129292,9.324749628,1.181496523,16382,15039.0625,34048
-0.119505539,-1657,128,-0.857454045,-11889,128,-3953,-0.285096799,1.066751011,14791,15058.59375,34688
-0.26879731,-3727,128,-0.976671097,-13542,128,123128,8.880191908,1.152792114,15984,15078.125,35328
-0.388807701,-5391,128,-1.076559553,-14927,128,116735,8.419118335,1.143560546,15856,15097.65625,35968
-0.434100084,-6019,128,-1.108220948,-15366,128,-16288,-1.17471709,1.066318281,14785,15117.1875,36608
-0.450688058,-6249,128,-1.140315073,-15811,128,-16136,-1.163754602,1.180414698,16367,15136.71875,37248
-0.450688058,-6249,128,-1.142045992,-15835,128,-15812,-1.140387194,1.172481319,16257,15156.25,37888
-0.443043166,-6143,128,-1.156398196,-16034,128,114696,8.272062334,1.172409197,16256,15175.78125,38528
-0.44809168,-6213,128,-1.17385163,-16276,128,-16260,-1.172697684,1.17695286,16319,15195.3125,39168
-0.442898922,-6141,128,-1.179116509,-16349,128,-16349,-1.179116509,1.179404995,16353,15214.84375,39808
-0.450832301,-6251,128,-1.199887538,-16637,128,114689,8.271557483,1.114711894,15456,15234.375,40448
-0.432441286,-5996,128,-1.199887538,-16637,128,-25,-0.001803041,1.124015584,15585,15253.90625,41088
-0.446000152,-6184,128,-1.216619756,-16869,128,130659,9.423339894,1.11096157,15404,15273.4375,41728
-0.449389869,-6231,128,-1.238256244,-17169,128,-128,-0.009231568,1.117524638,15495,15292.96875,42368
-0.429917029,-5961,128,-1.244025975,-17249,128,-8,-5.77E-04,1.173491022,16271,15312.5,43008
-0.363276644,-5037,128,-1.232270149,-17086,128,-256,-0.018463137,1.108004583,15363,15332.03125,43648
-0.319498815,-4430,128,-1.214095499,-16834,128,130584,9.417930772,1.144137519,15864,15351.5625,44288
-0.359454198,-4984,128,-1.230467109,-17061,128,130527,9.413819839,1.108797921,15374,15371.09375,44928
-0.435686759,-6041,128,-1.272874626,-17649,128,-1788,-0.128953472,1.125169531,15601,15390.625,45568
-0.445711666,-6180,128,-1.287154709,-17847,128,129053,9.307512558,1.181496523,16382,15410.15625,46208
-0.456313545,-6327,128,-1.302228129,-18056,128,129283,9.324100533,1.163177629,16128,15429.6875,46848
-0.484945832,-6724,128,-1.327831307,-18411,128,129151,9.314580478,1.159715791,16080,15449.21875,47488
-0.006563068,-91,128,-1.107643975,-15358,128,-8189,-0.590604018,2.361334248,32741,15468.75,48128
-0.014424326,-200,128,-1.460895712,-20256,128,-14400,-1.038551454,0.139555352,1935,15488.28125,48768
-0.36883001,-5114,128,-1.364973946,-18926,128,-3554,-0.256320269,1.145219343,15879,15507.8125,49408
-0.418305447,-5800,128,-1.305906332,-18107,128,-260,-0.018751623,1.145796316,15887,15527.34375,50048
-0.432297043,-5994,128,-1.298982656,-18011,128,130800,9.433509044,1.144858735,15874,15546.875,50688
-0.410516311,-5692,128,-1.289246236,-17876,128,129539,9.34256367,1.174428603,16284,15566.40625,51328
-0.388951944,-5393,128,-1.279726181,-17744,128,131062,9.452404911,1.180775306,16372,15585.9375,51968
-0.382028268,-5297,128,-1.263931544,-17525,128,129283,9.324100533,1.16764917,16190,15605.46875,52608
-0.359959049,-4991,128,-1.2531133,-17375,128,130944,9.443894558,1.145147222,15878,15625,53248
-0.335437695,-4651,128,-1.212508823,-16812,128,130560,9.416199853,1.181352279,16380,15644.53125,53888
-0.260863931,-3617,128,-1.164403697,-16145,128,130948,9.444183045,2.068159827,28676,15664.0625,54528
-0.192348384,-2667,128,-1.119904652,-15528,128,-16360,-1.179909847,1.181424401,16381,15683.59375,55168
-0.143666285,-1992,128,-1.091056,-15128,128,-8065,-0.581660936,1.181568644,16383,15703.125,55808
-0.186073802,-2580,128,-1.12690045,-15625,128,-15329,-1.105552448,1.181280158,16379,15722.65625,56448
-0.373517915,-5179,128,-1.246694475,-17286,128,130624,9.420815637,1.181063793,16376,15742.1875,57088
-0.437706165,-6069,128,-1.289678966,-17882,128,130816,9.43466299,1.116442813,15480,15761.71875,57728
-0.474993047,-6586,128,-1.316363968,-18252,128,130052,9.379562066,1.179477117,16354,15781.25,58368
-0.487470089,-6759,128,-1.316796698,-18258,128,130688,9.425431421,1.144281762,15866,15800.78125,59008
-0.493023454,-6836,128,-1.322277942,-18334,128,-2048,-0.147705096,1.168298265,16199,15820.3125,59648
-0.491653143,-6817,128,-1.313118495,-18207,128,130680,9.424854448,1.137646572,15774,15839.84375,60288
-0.485955535,-6738,128,-1.311459698,-18184,128,-8,-5.77E-04,1.17695286,16319,15859.375,60928
-0.498216212,-6908,128,-1.303021467,-18067,128,130752,9.430047206,1.13533868,15742,15878.90625,61568
-0.496990144,-6891,128,-1.303886927,-18079,128,-2,-1.44E-04,1.143199938,15851,15898.4375,62208
-0.503553212,-6982,128,-1.314560928,-18227,128,130241,9.393193053,1.149186033,15934,15917.96875,62848
-0.497206509,-6894,128,-1.30626694,-18112,128,130294,9.3970155,1.140531437,15814,15937.5,63488
-0.512712659,-7109,128,-1.321773091,-18327,128,-151,-0.010890366,1.112331881,15423,15957.03125,64128
-0.468790587,-6500,128,-1.314344563,-18224,128,-2020,-0.14568569,1.16368248,16135,15976.5625,64768
-0.43172007,-5986,128,-1.292852317,-17926,128,-1,-7.21E-05,1.174644968,16287,15996.09375,65408
-0.404025364,-5602,128,-1.269412788,-17601,128,-2046,-0.147560852,1.181568644,16383,16015.625,512
-0.478094277,-6629,128,-1.29429475,-17946,128,-1025,-0.073924669,1.144930857,15875,16035.15625,1152
-0.525838795,-7291,128,-1.328768889,-18424,128,-1793,-0.12931408,1.109447015,15383,16054.6875,1792
-0.534853999,-7416,128,-1.329345862,-18432,128,129023,9.30534891,1.177024982,16320,16074.21875,2432
-0.534709756,-7414,128,-1.316291847,-18251,128,-1795,-0.129458324,1.163970967,16139,16093.75,3072
-0.477661547,-6623,128,-1.327326456,-18404,128,-3856,-0.278101001,1.124015584,15585,16113.28125,3712
0.501173198,6949,128,-0.807329513,-11194,128,-506,-0.036493544,0.055461533,769,16132.8125,4352
-0.377123997,-5229,128,-1.41120391,-19567,128,-4089,-0.29490534,1.112331881,15423,16152.34375,4992
-0.482998548,-6697,128,-1.32220582,-18333,128,129121,9.312416829,1.178178928,16336,16171.875,5632
-0.52605516,-7294,128,-1.322782793,-18341,128,129335,9.327850858,1.146733898,15900,16191.40625,6272
-0.520573917,-7218,128,-1.298982656,-18011,128,-1544,-0.111355795,1.164259453,16143,16210.9375,6912
-0.501894415,-6959,128,-1.284414087,-17809,128,-1041,-0.075078616,1.181568644,16383,16230.46875,7552
-0.49194163,-6821,128,-1.283909235,-17802,128,130591,9.418435623,1.160869737,16096,16250,8192
-0.47910398,-6643,128,-1.264580639,-17534,128,-1086,-0.078324089,1.145796316,15887,16269.53125,8832
-0.45032745,-6244,128,-1.248497516,-17311,128,131023,9.449592167,1.170822522,16234,16289.0625,9472
-0.408352662,-5662,128,-1.217196729,-16877,128,130840,9.436393909,1.18048682,16368,16308.59375,10112
-0.320003667,-4437,128,-1.156181831,-16031,128,-8184,-0.59024341,1.16368248,16135,16328.125,10752
-0.246367484,-3416,128,-1.119616165,-15524,128,123343,8.895698058,1.162600656,16120,16347.65625,11392
-0.22804859,-3162,128,-1.10389365,-15306,128,-15300,-1.10346092,1.163105507,16127,16367.1875,12032
-0.33031706,-4580,128,-1.17781832,-16331,128,114688,8.271485361,1.111394299,15410,16386.71875,12672
-0.459486897,-6371,128,-1.250372678,-17337,128,-31,-0.00223577,1.181568644,16383,16406.25,13312
-0.552740163,-7664,128,-1.306843913,-18120,128,130403,9.404876757,1.149186033,15934,16425.78125,13952
-0.580434868,-8048,128,-1.329922835,-18440,128,131068,9.45283764,1.145868438,15888,16445.3125,14592
-0.566010543,-7848,128,-1.3071324,-18124,128,-1537,-0.110850943,1.181280158,16379,16464.84375,15232
-0.567741462,-7872,128,-1.305906332,-18107,128,130400,9.404660392,1.179332874,16352,16484.375,15872
-0.565145083,-7836,128,-1.302805102,-18064,128,-1856,-0.133857743,1.145796316,15887,16503.90625,16512
-0.55259592,-7662,128,-1.29429475,-17946,128,129263,9.3226581,1.165629764,16162,16523.4375,17152
-0.584690044,-8107,128,-1.330067078,-18442,128,131056,9.451972181,1.153657574,15996,16542.96875,17792
-0.568751165,-7886,128,-1.312541522,-18199,128,129054,9.30758468,1.123943463,15584,16562.5,18432
-0.576756665,-7997,128,-1.312325157,-18196,128,-1922,-0.138617771,1.114928259,15459,16582.03125,19072
-0.58317549,-8086,128,-1.314633049,-18228,128,129024,9.305421031,1.11586584,15472,16601.5625,19712
-0.583752463,-8094,128,-1.315210022,-18236,128,131012,9.448798829,1.144714492,15872,16621.09375,20352
-0.563053556,-7807,128,-1.316147604,-18249,128,-1009,-0.072770723,1.125313774,15603,16640.625,20992
-0.535286729,-7422,128,-1.320474901,-18309,128,129049,9.307224072,1.177024982,16320,16660.15625,21632
-0.494465887,-6856,128,-1.290905033,-17899,128,129529,9.341842454,1.109807624,15388,16679.6875,22272
-0.515092673,-7142,128,-1.283476506,-17796,128,130943,9.443822437,1.177601955,16328,16699.21875,22912
-0.589666437,-8176,128,-1.333673159,-18492,128,127456,9.192334317,1.03393567,14336,16718.75,23552
-0.619669034,-8592,128,-1.340164106,-18582,128,129038,9.306430734,1.107788218,15360,16738.28125,24192
-0.616639926,-8550,128,-1.335404078,-18516,128,-2076,-0.149724501,0.590459775,8187,16757.8125,24832
-0.664456566,-9213,128,-1.369301244,-18986,128,-193,-0.013919474,0.590315532,8185,16777.34375,25472
-0.191555046,-2656,128,-1.126611963,-15621,128,123903,8.93608617,2.362704559,32760,16796.875,26112
-0.177347085,-2459,128,-1.433489494,-19876,128,117248,8.456116731,0.321950951,4464,16816.40625,26752
-0.551081365,-7641,128,-1.394399571,-19334,128,-4086,-0.294688975,1.149258155,15935,16835.9375,27392
-0.578199098,-8017,128,-1.327182213,-18402,128,-993,-0.071616777,1.112331881,15423,16855.46875,28032
-0.599330735,-8310,128,-1.324946442,-18371,128,129039,9.306502856,0.574232408,7962,16875,28672
-0.599402857,-8311,128,-1.318888225,-18287,128,131024,9.449664289,0.582165787,8072,16894.53125,29312
-0.586493085,-8132,128,-1.313046373,-18206,128,130360,9.401775527,1.152215141,15976,16914.0625,29952
-0.575314233,-7977,128,-1.310522116,-18171,128,-2047,-0.147632974,1.126179233,15615,16933.59375,30592
-0.531680647,-7372,128,-1.269124302,-17597,128,-16,-0.001153946,1.172914049,16263,16953.125,31232
-0.510693253,-7081,128,-1.250733286,-17342,128,-400,-0.028848652,1.149835128,15943,16972.65625,31872
-0.450832301,-6251,128,-1.224264648,-16975,128,130051,9.379489944,1.146445411,15896,16992.1875,32512
-0.376474902,-5220,128,-1.169235846,-16212,128,131047,9.451323086,1.172409197,16256,17011.71875,33152
-0.318921842,-4422,128,-1.145579951,-15884,128,115184,8.307257689,1.158417601,16062,17031.25,33792
-0.339548628,-4708,128,-1.16721644,-16184,128,-16273,-1.173635265,1.145796316,15887,17050.78125,34432
-0.467853006,-6487,128,-1.254483611,-17394,128,-497,-0.03584445,1.180414698,16367,17070.3125,35072
-0.608129574,-8432,128,-1.343048971,-18622,128,130865,9.43819695,1.111971272,15418,17089.84375,35712
-0.639790969,-8871,128,-1.362161203,-18887,128,-2248,-0.162129421,0.542282527,7519,17109.375,36352
-0.661066849,-9166,128,-1.3664885,-18947,128,-870,-0.062745817,0.517472686,7175,17128.90625,36992
-0.66286989,-9191,128,-1.356102986,-18803,128,-51,-0.003678203,0.518049659,7183,17148.4375,37632
-0.659263809,-9141,128,-1.359997554,-18857,128,130935,9.443245464,0.558509893,7744,17167.96875,38272
-0.663807471,-9204,128,-1.359925432,-18856,128,128057,9.235679416,0.586204599,8128,17187.5,38912
-0.672317823,-9322,128,-1.372330352,-19028,128,127212,9.17473664,0.582021544,8070,17207.03125,39552
-0.671091756,-9305,128,-1.359204216,-18846,128,128032,9.233876375,0.57697303,8000,17226.5625,40192
-0.675419053,-9365,128,-1.371825501,-19021,128,130224,9.391966986,0.588512491,8160,17246.09375,40832
-0.691718542,-9591,128,-1.379109785,-19122,128,-2697,-0.194512033,0.588584612,8161,17265.625,41472
-0.69431492,-9627,128,-1.379975245,-19134,128,127075,9.164855977,0.581300328,8060,17285.15625,42112
-0.703907097,-9760,128,-1.394327449,-19333,128,131071,9.453054005,0.53312308,7392,17304.6875,42752
-0.699074948,-9693,128,-1.380407975,-19140,128,-196,-0.014135839,0.553966231,7681,17324.21875,43392
-0.707729543,-9813,128,-1.378460691,-19113,128,-1017,-0.073347696,0.582670639,8079,17343.75,44032
-0.677005729,-9387,128,-1.363098784,-18900,128,-3524,-0.25415662,0.563053556,7807,17363.28125,44672
-0.642675834,-8911,128,-1.35184781,-18744,128,130638,9.42182534,0.574088165,7960,17382.8125,45312
-0.609427763,-8450,128,-1.31643609,-18253,128,-2033,-0.146623271,0.572285124,7935,17402.34375,45952
-0.679529986,-9422,128,-1.341029565,-18594,128,130942,9.443750315,0.583319734,8088,17421.875,46592
-0.741193979,-10277,128,-1.375864312,-19077,128,130496,9.411584069,0.52605516,7294,17441.40625,47232
-0.743357628,-10307,128,-1.369950339,-18995,128,-57,-0.004110933,0.581949423,8069,17460.9375,47872
-0.7642729,-10597,128,-1.376585528,-19087,128,-3599,-0.259565742,0.583391855,8089,17480.46875,48512
-0.66330262,-9197,128,-1.36338727,-18904,128,-389,-0.028055314,0.530743066,7359,17500,49152
0.279543433,3876,128,-0.841587286,-11669,128,122379,8.826172808,0.129241959,1792,17519.53125,49792
-0.619885399,-8595,128,-1.47495943,-20451,128,-127,-0.009159447,1.070212849,14839,17539.0625,50432
-0.719629612,-9978,128,-1.373267934,-19041,128,131071,9.453054005,0.572357246,7936,17558.59375,51072
-0.75100252,-10413,128,-1.362954541,-18898,128,-2536,-0.182900451,0.583824585,8095,17578.125,51712
-0.754175872,-10457,128,-1.361728473,-18881,128,-225,-0.016227366,0.590748261,8191,17597.65625,52352
-0.737876384,-10231,128,-1.344058674,-18636,128,130864,9.438124828,0.553894109,7680,17617.1875,52992
-0.743718236,-10312,128,-1.346943539,-18676,128,131047,9.451323086,0.59024341,8184,17636.71875,53632
-0.726336923,-10071,128,-1.335115592,-18512,128,131007,9.448438221,0.553894109,7680,17656.25,54272
-0.716312017,-9932,128,-1.317806401,-18272,128,-1856,-0.133857743,0.581516693,8063,17675.78125,54912
-0.660922606,-9164,128,-1.269773396,-17606,128,-194,-0.013991596,0.583824585,8095,17695.3125,55552
-0.604018641,-8375,128,-1.236813812,-17149,128,130176,9.388505148,0.589666437,8176,17714.84375,56192
-0.539902513,-7486,128,-1.197146916,-16599,128,-224,-0.016155245,1.153873939,15999,17734.375,56832
-0.528940025,-7334,128,-1.204575444,-16702,128,131056,9.451972181,1.149186033,15934,17753.90625,57472
-0.620678737,-8606,128,-1.25974849,-17467,128,129505,9.340111535,0.590387653,8186,17773.4375,58112
-0.761676522,-10561,128,-1.35538177,-18793,128,-481,-0.034690503,0.590748261,8191,17792.96875,58752
-0.854641301,-11850,128,-1.394543814,-19336,128,-3057,-0.220475819,0.568390556,7881,17812.5,59392
-0.862286194,-11956,128,-1.389639543,-19268,128,128158,9.242963701,0.577261517,8004,17832.03125,60032
-0.882336006,-12234,128,-1.408463288,-19529,128,-4095,-0.29533807,0.266489418,3695,17851.5625,60672
-0.912482847,-12652,128,-1.42981129,-19825,128,126976,9.157715935,0.258772404,3588,17871.09375,61312
-0.894740927,-12406,128,-1.414088775,-19607,128,127438,9.191036128,0.287188326,3982,17890.625,61952
-0.909237374,-12607,128,-1.427359155,-19791,128,-4048,-0.291948353,0.263171823,3649,17910.15625,62592
-0.904549468,-12542,128,-1.413367559,-19597,128,127487,9.194570088,0.290794407,4032,17929.6875,63232
-0.918973794,-12742,128,-1.415891816,-19632,128,129792,9.360810442,0.294833218,4088,17949.21875,63872
-0.94450485,-13096,128,-1.428801588,-19811,128,129028,9.305709518,0.227038887,3148,17968.75,64512
-0.926546565,-12847,128,-1.421228817,-19706,128,-3199,-0.23071709,0.294184124,4079,17988.28125,65152
-0.938807242,-13017,128,-1.428296736,-19804,128,-272,-0.019617083,0.242833524,3367,18007.8125,256
-0.926835051,-12851,128,-1.415386965,-19625,128,-3846,-0.277379784,0.246295362,3415,18027.34375,896
-0.954097027,-13229,128,-1.444740468,-20032,128,-3904,-0.281562839,0.23071709,3199,18046.875,1536
-0.899573076,-12473,128,-1.418127587,-19663,128,-3095,-0.223216441,0.286250745,3969,18066.40625,2176
-0.861204369,-11941,128,-1.399952936,-19411,128,-985,-0.071039804,0.572573611,7939,18085.9375,2816
-0.859257085,-11914,128,-1.407309342,-19513,128,-3073,-0.221629765,0.574016043,7959,18105.46875,3456
-0.94270181,-13071,128,-1.432768277,-19866,128,-3993,-0.287981664,0.239948659,3327,18125,4096
-0.979123232,-13576,128,-1.457433874,-20208,128,130432,9.406968284,0.294833218,4088,18144.53125,4736
-1.001697302,-13889,128,-1.471569714,-20404,128,130447,9.408050109,0.28560165,3960,18164.0625,5376
-1.009486438,-13997,128,-1.468684848,-20364,128,-2017,-0.145469325,0.258411796,3583,18183.59375,6016
-0.686381541,-9517,128,-1.336485903,-18531,128,-4160,-0.300025976,0.274422797,3805,18203.125,6656
-0.033464436,-464,128,-1.10432638,-15312,128,116735,8.419118335,1.166639467,16176,18222.65625,7296
-0.760234089,-10541,128,-1.626414851,-22551,128,-6168,-0.444846206,0.559880204,7763,18242.1875,7936
-0.969314691,-13440,128,-1.484190999,-20579,128,126849,9.148556489,0.293102299,4064,18261.71875,8576
-0.981070516,-13603,128,-1.465439375,-20319,128,-17280,-1.246261745,0.291155015,4037,18281.25,9216
-0.991816639,-13752,128,-1.468107875,-20356,128,130079,9.38150935,0.267138513,3704,18300.78125,9856
-0.962174649,-13341,128,-1.441062265,-19981,128,-1537,-0.110850943,0.293174421,4065,18320.3125,10496
-0.986696003,-13681,128,-1.457433874,-20208,128,-65,-0.004687906,0.291876232,4047,18339.84375,11136
-0.961886163,-13337,128,-1.442793184,-20005,128,-8,-5.77E-04,0.29533807,4095,18359.375,11776
-0.926113835,-12841,128,-1.413944532,-19605,128,-1794,-0.129386202,0.276874933,3839,18378.90625,12416
-0.889331804,-12331,128,-1.385889219,-19216,128,-4096,-0.295410191,0.295193827,4093,18398.4375,13056
-0.824278095,-11429,128,-1.34167866,-18603,128,-4031,-0.290722286,0.590748261,8191,18417.96875,13696
-0.731746046,-10146,128,-1.299703872,-18021,128,-1649,-0.118928566,0.559014745,7751,18437.5,14336
-0.731385437,-10141,128,-1.301218426,-18042,128,-1537,-0.110850943,0.519492092,7203,18457.03125,14976
-0.870724424,-12073,128,-1.406876613,-19507,128,-497,-0.03584445,0.588728856,8163,18476.5625,15616
-0.978474138,-13567,128,-1.479142485,-20509,128,131057,9.452044302,0.276947054,3840,18496.09375,16256
-1.050163037,-14561,128,-1.52544457,-21151,128,-7144,-0.515236916,0.139555352,1935,18515.625,16896
-1.074972877,-14905,128,-1.53914768,-21341,128,-17345,-1.250949651,0.106379402,1475,18535.15625,17536
-1.083050499,-15017,128,-1.554509587,-21554,128,125895,9.079752455,0.107316984,1488,18554.6875,18176
-1.077569256,-14941,128,-1.552057451,-21520,128,-16400,-1.182794712,0.1107067,1535,18574.21875,18816
-1.082040797,-15003,128,-1.559413857,-21622,128,-4224,-0.30464176,0.132054702,1831,18593.75,19456
-1.085214148,-15047,128,-1.563164182,-21674,128,-17421,-1.256430895,0.103350294,1433,18613.28125,20096
-1.088459621,-15092,128,-1.570881196,-21781,128,125475,9.049461371,0.106595767,1478,18632.8125,20736
-1.084132324,-15032,128,-1.570232102,-21772,128,-6128,-0.441961341,0.110850943,1537,18652.34375,21376
-1.103605164,-15302,128,-1.591291617,-22064,128,125040,9.018088462,0.110778822,1536,18671.875,22016
-1.114423408,-15452,128,-1.594537091,-22109,128,112735,8.13063182,0.027838949,386,18691.40625,22656
-1.123943463,-15584,128,-1.61884208,-22446,128,112642,8.123924509,0.027694705,384,18710.9375,23296
-1.128919855,-15653,128,-1.621654823,-22485,128,-18376,-1.32530705,0.016083123,223,18730.46875,23936
-1.076415309,-14925,128,-1.611125065,-22339,128,-8161,-0.588584612,0.147200244,2041,18750,24576
-1.064947971,-14766,128,-1.608095957,-22297,128,123107,8.878677354,0.110923065,1538,18769.53125,25216
-1.032637481,-14318,128,-1.594681334,-22111,128,122928,8.865767582,0.258916647,3590,18789.0625,25856
-1.101441515,-15272,128,-1.619563296,-22456,128,124940,9.010876299,0.076016197,1054,18808.59375,26496
-1.158417601,-16062,128,-1.647330123,-22841,128,112136,8.087430964,0.003606081,50,18828.125,27136
-1.167721292,-16191,128,-1.649493772,-22871,128,122912,8.864613636,0.017886164,248,18847.65625,27776
-1.188348077,-16477,128,-1.668966612,-23141,128,-7969,-0.57473726,1.174789211,16289,18867.1875,28416
-1.115288867,-15464,128,-1.668822368,-23139,128,123133,8.880552516,0.070967683,984,18886.71875,29056
-0.173164031,-2401,128,-1.175582549,-16300,128,-16356,-1.17962136,2.328591028,32287,18906.25,29696
-1.036459927,-14371,128,-1.782774542,-24719,128,-14351,-1.035017495,0.03454626,479,18925.78125,30336
-1.152070898,-15974,128,-1.661249597,-23034,128,114182,8.234991817,0.001875162,26,18945.3125,30976
-1.19245901,-16534,128,-1.653965313,-22933,128,-16413,-1.183732293,1.163970967,16139,18964.84375,31616
-1.200176024,-16641,128,-1.650214988,-22881,128,-7665,-0.552812285,1.181568644,16383,18984.375,32256
-1.181352279,-16380,128,-1.625765756,-22542,128,123903,8.93608617,0,0,19003.90625,32896
-1.177962563,-16333,128,-1.624683931,-22527,128,-6143,-0.443043166,0.00223577,31,19023.4375,33536
-1.165197035,-16156,128,-1.61220689,-22354,128,112783,8.134093658,0,0,19042.96875,34176
-1.148248452,-15921,128,-1.595763158,-22126,128,-7725,-0.557139582,5.05E-04,7,19062.5,34816
-1.111899151,-15417,128,-1.56309206,-21673,128,-5249,-0.378566429,0.072049507,999,19082.03125,35456
-1.028093818,-14255,128,-1.49666804,-20752,128,-4368,-0.315027274,0.294328367,4081,19101.5625,36096
-0.972848651,-13489,128,-1.454476888,-20167,128,-1603,-0.115610971,0.281779204,3907,19121.09375,36736
-0.949553364,-13166,128,-1.442865305,-20006,128,-16608,-1.197796011,0.290722286,4031,19140.625,37376
-1.046052104,-14504,128,-1.515563907,-21014,128,124899,9.007919312,0.130107418,1804,19160.15625,38016
-1.157263655,-16046,128,-1.594537091,-22109,128,125315,9.03792191,0.001153946,16,19179.6875,38656
-1.260758193,-17481,128,-1.641344028,-22758,128,-16510,-1.190728091,1.180991671,16375,19199.21875,39296
-1.294871723,-17954,128,-1.660167773,-23019,128,-16873,-1.216908242,1.14464237,15871,19218.75,39936
-1.297540223,-17991,128,-1.655984718,-22961,128,-18609,-1.34211139,1.17695286,16319,19238.28125,40576
-1.302949345,-18066,128,-1.661465962,-23037,128,124417,8.973156687,1.172264954,16254,19257.8125,41216
-1.301723278,-18049,128,-1.647041636,-22837,128,112270,8.097095263,1.177024982,16320,19277.34375,41856
-1.319248834,-18292,128,-1.659951408,-23016,128,114204,8.236578493,1.108797921,15374,19296.875,42496
-1.317013063,-18261,128,-1.659302313,-23007,128,-16640,-1.200103903,1.112331881,15423,19316.40625,43136
-1.309079684,-18151,128,-1.645166474,-22811,128,-7179,-0.517761173,1.14464237,15871,19335.9375,43776
-1.315065779,-18234,128,-1.645671325,-22818,128,-18817,-1.357112689,1.121851936,15555,19355.46875,44416
-1.326965848,-18399,128,-1.656201083,-22964,128,114630,8.267302307,1.111250056,15408,19375,45056
-1.326821605,-18397,128,-1.654181678,-22936,128,114296,8.243213683,1.144714492,15872,19394.53125,45696
-1.330067078,-18442,128,-1.649565893,-22872,128,-6656,-0.480041561,1.181568644,16383,19414.0625,46336
-1.342760485,-18618,128,-1.660744746,-23027,128,111615,8.049855596,1.177024982,16320,19433.59375,46976
-1.352785391,-18757,128,-1.66579326,-23097,128,-16421,-1.184309266,1.172625562,16259,19453.125,47616
-1.299920237,-18024,128,-1.654181678,-22936,128,111608,8.049350744,1.17298617,16264,19472.65625,48256
-1.256863625,-17427,128,-1.635141568,-22672,128,-18672,-1.346655053,1.181424401,16381,19492.1875,48896
-1.251454503,-17352,128,-1.615812971,-22404,128,-6113,-0.440879517,1.146950262,15903,19511.71875,49536
-1.311459698,-18184,128,-1.633266405,-22646,128,124920,9.009433867,1.125674382,15608,19531.25,50176
-1.35761754,-18824,128,-1.653099853,-22921,128,114179,8.234775452,1.181352279,16380,19550.78125,50816
-1.384591029,-19198,128,-1.675746045,-23235,128,108319,7.812142707,1.126251355,15616,19570.3125,51456
-1.415891816,-19632,128,-1.676395139,-23244,128,123388,8.898943531,1.108942164,15376,19589.84375,52096
-1.237390785,-17157,128,-1.616534187,-22414,128,122994,8.87052761,0.017886164,248,19609.375,52736
-0.297429597,-4124,128,-1.143921154,-15861,128,115215,8.309493459,1.919012298,26608,19628.90625,53376
-1.259027274,-17457,128,-1.741448848,-24146,128,-7938,-0.572501489,1.10656215,15343,19648.4375,54016
-1.334178011,-18499,128,-1.651945907,-22905,128,-18713,-1.349612039,1.181568644,16383,19667.96875,54656
-1.366127892,-18942,128,-1.655551989,-22955,128,114684,8.271196875,1.144714492,15872,19687.5,55296
-1.350261134,-18722,128,-1.630742148,-22611,128,123783,8.927431575,1.145147222,15878,19707.03125,55936
-1.346799296,-18674,128,-1.615596606,-22401,128,122895,8.863387568,1.163177629,16128,19726.5625,56576
-1.350189012,-18721,128,-1.623169377,-22506,128,-16617,-1.198445105,1.181568644,16383,19746.09375,57216
-1.307276643,-18126,128,-1.591507982,-22067,128,-8173,-0.589450072,1.172337076,16255,19765.625,57856
-1.284053479,-17804,128,-1.57412667,-21826,128,123423,8.901467788,1.153657574,15996,19785.15625,58496
-1.247992664,-17304,128,-1.540445869,-21359,128,114205,8.236650614,1.171832224,16248,19804.6875,59136
-1.143776911,-15859,128,-1.488301931,-20636,128,-16416,-1.183948658,0.037286882,517,19824.21875,59776
-1.068265565,-14812,128,-1.438610129,-19947,128,130033,9.378191755,0.129241959,1792,19843.75,60416
-1.066462525,-14787,128,-1.439331345,-19957,128,-4085,-0.294616854,0.12974681,1799,19863.28125,61056
-1.14860906,-15926,128,-1.500129879,-20800,128,-8192,-0.590820383,0.032526855,451,19882.8125,61696
-1.323143402,-18346,128,-1.603985024,-22240,128,129280,9.323884168,1.04013813,14422,19902.34375,62336
-1.379975245,-19134,128,-1.634925203,-22669,128,-7173,-0.517328443,1.112620367,15427,19921.875,62976
-1.397140193,-19372,128,-1.641921001,-22766,128,110622,7.978238818,1.108942164,15376,19941.40625,63616
-1.393534111,-19322,128,-1.634925203,-22669,128,-7176,-0.517544808,1.145219343,15879,19960.9375,64256
-1.395986247,-19356,128,-1.631319121,-22619,128,124912,9.008856894,1.151926655,15972,19980.46875,64896
-1.390793489,-19284,128,-1.63968523,-22735,128,-7424,-0.535430972,1.149258155,15935,20000,0
-1.394543814,-19336,128,-1.636584,-22692,128,114624,8.266869577,1.144714492,15872,20019.53125,640
-1.398510504,-19391,128,-1.641199784,-22756,128,114630,8.267302307,1.107788218,15360,20039.0625,1280
-1.387908624,-19244,128,-1.625693634,-22541,128,111099,8.012640835,1.125097409,15600,20058.59375,1920
-1.400962639,-19425,128,-1.63968523,-22735,128,108416,7.819138505,1.179909847,16360,20078.125,2560
-1.394327449,-19333,128,-1.636944608,-22697,128,-6399,-0.461506303,1.116514935,15481,20097.65625,3200
-1.41740637,-19653,128,-1.652595002,-22914,128,-18882,-1.361800595,1.181280158,16379,20117.1875,3840
-1.391154097,-19289,128,-1.639613109,-22734,128,-8141,-0.58714218,1.149258155,15935,20136.71875,4480
-1.395553517,-19350,128,-1.646681028,-22832,128,-16432,-1.185102604,1.116947665,15487,20156.25,5120
-1.395048665,-19343,128,-1.645022231,-22809,128,-7197,-0.519059362,1.115937962,15473,20175.78125,5760
-1.392019557,-19301,128,-1.65252288,-22913,128,-16769,-1.209407593,1.118101611,15503,20195.3125,6400
-1.321412482,-18322,128,-1.610620214,-22332,128,-17184,-1.239338069,1.145796316,15887,20214.84375,7040
-1.304247535,-18084,128,-1.612351133,-22356,128,113670,8.198065543,1.131876842,15694,20234.375,7680
-1.398510504,-19391,128,-1.652595002,-22914,128,114627,8.267085942,1.174140116,16280,20273.4375,8960
-1.404280234,-19471,128,-1.650864083,-22890,128,114655,8.269105347,1.107788218,15360,20292.96875,9600
-1.427070669,-19787,128,-1.658004124,-22989,128,-16632,-1.19952693,1.160941858,16097,20312.5,10240
-1.458948429,-20229,128,-1.682669721,-23331,128,-16604,-1.197507524,1.149258155,15935,20332.03125,10880
-0.427537015,-5928,128,-1.147959965,-15917,128,131055,9.451900059,1.402044463,19440,20351.5625,11520
-0.957198257,-13272,128,-1.737626402,-24093,128,129535,9.342275183,0.737371533,10224,20371.09375,12160
-1.335404078,-18516,128,-1.686420046,-23383,128,122893,8.863243325,1.180198333,16364,20390.625,12800
-1.396418976,-19362,128,-1.645599204,-22817,128,-16542,-1.193035983,1.140892046,15819,20410.15625,13440
-1.394038963,-19329,128,-1.63038154,-22606,128,-16601,-1.197291159,1.114639773,15455,20429.6875,14080
-1.377450988,-19099,128,-1.610403849,-22329,128,-16781,-1.210273052,1.165846129,16165,20449.21875,14720
-1.375503704,-19072,128,-1.613721444,-22375,128,113721,8.201743746,1.143560546,15856,20468.75,15360
-1.350116891,-18720,128,-1.587757657,-22015,128,-16771,-1.209551836,1.181568644,16383,20488.28125,16000
-1.331437389,-18461,128,-1.563380547,-21677,128,114540,8.26081136,1.172264954,16254,20507.8125,16640
-1.29076079,-17897,128,-1.539941018,-21352,128,-16441,-1.185751699,1.163970967,16139,20527.34375,17280
-1.222028878,-16944,128,-1.486859499,-20616,128,124430,8.974094269,1.181496523,16382,20546.875,17920
-1.13533868,-15742,128,-1.431974939,-19855,128,-4068,-0.293390786,1.180703185,16371,20566.40625,18560
-1.076559553,-14927,128,-1.41206937,-19579,128,-3604,-0.25992635,0.138978379,1927,20585.9375,19200
-1.105840934,-15333,128,-1.432119183,-19857,128,-3824,-0.275793108,0.100465429,1393,20605.46875,19840
-1.290688669,-17896,128,-1.54095072,-21366,128,123075,8.876369462,1.173707387,16274,20625,20480
-1.367570325,-18962,128,-1.579391549,-21899,128,-8000,-0.57697303,1.163105507,16127,20644.53125,21120
-1.424834898,-19756,128,-1.618697836,-22444,128,113667,8.197849178,1.177601955,16328,20664.0625,21760
-1.431758574,-19852,128,-1.61797662,-22434,128,-17408,-1.255493314,1.149258155,15935,20683.59375,22400
-1.426060966,-19773,128,-1.616029336,-22407,128,113791,8.20679226,1.181063793,16376,20703.125,23040
-1.408174802,-19525,128,-1.603912902,-22239,128,114687,8.271413239,1.179044387,16348,20722.65625,23680
-1.418416073,-19667,128,-1.617904498,-22433,128,114680,8.270908388,1.158850331,16068,20742.1875,24320
-1.425556114,-19766,128,-1.625765756,-22542,128,-16420,-1.184237144,1.162817021,16123,20761.71875,24960
-1.420219114,-19692,128,-1.612567498,-22359,128,-16417,-1.18402078,1.16368248,16135,20781.25,25600
-1.408679653,-19532,128,-1.602975321,-22226,128,114687,8.271413239,1.179332874,16352,20800.78125,26240
-1.420868209,-19701,128,-1.622159674,-22492,128,-18418,-1.328336159,1.155172128,16017,20820.3125,26880
-1.412718464,-19588,128,-1.62064512,-22471,128,114657,8.269249591,1.172409197,16256,20839.84375,27520
-1.419497898,-19682,128,-1.621582701,-22484,128,112655,8.12486209,1.171111008,16238,20859.375,28160
-1.418199708,-19664,128,-1.624106958,-22519,128,112641,8.123852387,1.181352279,16380,20878.90625,28800
-1.404857207,-19479,128,-1.619563296,-22456,128,-16385,-1.181712887,1.180991671,16375,20898.4375,29440
-1.374782488,-19062,128,-1.607518984,-22289,128,-17362,-1.252175719,1.177529833,16327,20917.96875,30080
-1.319248834,-18292,128,-1.584728549,-21973,128,-16912,-1.219720986,1.179404995,16353,20937.5,30720
-1.307997859,-18136,128,-1.578381846,-21885,128,114176,8.234559087,1.174140116,16280,20957.03125,31360
-1.369878217,-18994,128,-1.60513897,-22256,128,113408,8.179169676,1.18048682,16368,20976.5625,32000
-1.39836626,-19389,128,-1.616101458,-22408,128,113699,8.20015707,1.174572846,16286,20996.09375,32640
-1.407742072,-19519,128,-1.629371837,-22592,128,-16416,-1.183948658,1.177097103,16321,21015.625,33280
-1.401179004,-19428,128,-1.619202688,-22451,128,113800,8.207441355,1.165197035,16156,21035.15625,33920
-1.409184505,-19539,128,-1.647762853,-22847,128,112670,8.125943914,1.172409197,16256,21054.6875,34560
-0.365656658,-5070,128,-1.176448009,-16312,128,-321,-0.023151043,1.322927037,18343,21074.21875,35200
-1.087377797,-15077,128,-1.787750934,-24788,128,-7999,-0.576900909,0.332264344,4607,21093.75,35840
-1.336125295,-18526,128,-1.623674229,-22513,128,122911,8.864541514,1.181352279,16380,21113.28125,36480
-1.346078079,-18664,128,-1.603335929,-22231,128,-8155,-0.588151883,1.177097103,16321,21132.8125,37120
-1.32970647,-18437,128,-1.589777063,-22043,128,-16473,-1.188059591,1.178395293,16339,21152.34375,37760
-1.324441591,-18364,128,-1.580401251,-21913,128,114561,8.262325914,1.145868438,15888,21171.875,38400
-1.30006448,-18026,128,-1.542609518,-21389,128,123007,8.871465191,1.174572846,16286,21191.40625,39040
-1.282971654,-17789,128,-1.53561372,-21292,128,-8191,-0.590748261,1.149113911,15933,21210.9375,39680
-1.250228435,-17335,128,-1.500490487,-20805,128,-7792,-0.561971731,1.16368248,16135,21230.46875,40320
-1.193252348,-16545,128,-1.464213307,-20302,128,-4084,-0.294544732,1.145796316,15887,21250,40960
-1.129857436,-15666,128,-1.421661546,-19712,128,-3583,-0.258411796,0.036854152,511,21269.53125,41600
-1.036315684,-14369,128,-1.374133393,-19053,128,130285,9.396366405,0.13328077,1848,21289.0625,42240
-0.994701504,-13792,128,-1.364396973,-18918,128,-53,-0.003822446,0.281490717,3903,21308.59375,42880
-1.053985483,-14614,128,-1.400097179,-19413,128,130063,9.380355403,0.073708305,1022,21328.125,43520
-1.215826418,-16858,128,-1.515347542,-21011,128,122880,8.862305744,2.88E-04,4,21347.65625,44160
-1.276841316,-17704,128,-1.557971425,-21602,128,-7728,-0.557355947,1.174789211,16289,21367.1875,44800
-1.318455496,-18281,128,-1.581843684,-21933,128,-8112,-0.585050653,1.144930857,15875,21386.71875,45440
-1.3124694,-18198,128,-1.584079454,-21964,128,-8159,-0.588440369,1.154450912,16007,21406.25,46080
-1.313190617,-18208,128,-1.604417754,-22246,128,122880,8.862305744,1.151349682,15964,21425.78125,46720
-1.27922133,-17737,128,-1.583502481,-21956,128,-17012,-1.226933149,1.16368248,16135,21445.3125,47360
-1.296819007,-17981,128,-1.613505079,-22372,128,-18429,-1.329129497,1.178251049,16337,21464.84375,48000
-1.282683168,-17785,128,-1.608023835,-22296,128,114495,8.257565887,1.1734189,16270,21484.375,48640
-1.274677667,-17674,128,-1.618337228,-22439,128,-17281,-1.246333867,1.162528534,16119,21503.90625,49280
-1.269629153,-17604,128,-1.633266405,-22646,128,-16413,-1.183732293,1.181280158,16379,21523.4375,49920
-1.273956451,-17664,128,-1.665865381,-23098,128,-16688,-1.203565741,1.179549239,16355,21542.96875,50560
-1.254483611,-17394,128,-1.686275802,-23381,128,-16889,-1.218062188,1.144786614,15873,21562.5,51200
-1.228375581,-17032,128,-1.713249292,-23755,128,-16608,-1.197796011,1.116947665,15487,21582.03125,51840
-1.160869737,-16096,128,-1.703945601,-23626,128,113511,8.186598204,1.179332874,16352,21601.5625,52480
-1.13930537,-15797,128,-1.705676521,-23650,128,-7424,-0.535430972,6.49E-04,9,21621.09375,53120
-1.203493619,-16687,128,-1.757676215,-24371,128,-17281,-1.246333867,1.158633966,16065,21640.625,53760
-1.260397584,-17476,128,-1.83095179,-25387,128,-24643,-1.777293298,1.181568644,16383,21660.15625,54400
-1.262921841,-17511,128,-1.854391319,-25712,128,-24704,-1.781692717,1.181135914,16377,21679.6875,55040
-1.269773396,-17606,128,-1.87523447,-26001,128,-26592,-1.917858352,1.108004583,15363,21699.21875,55680
-1.197291159,-16601,128,-1.918435325,-26600,128,-25345,-1.827922681,1.171471616,16243,21718.75,56320
-0.345174115,-4786,128,-1.685915194,-23376,128,-1841,-0.132775919,1.16368248,16135,21738.28125,56960
-1.023261669,-14188,128,-2.085180531,-28912,128,102368,7.382946895,0.405035067,5616,21757.8125,57600
-1.159427304,-16076,128,-1.963511343,-27225,128,106431,7.675977072,0.01990557,276,21777.34375,58240
-1.205224538,-16711,128,-1.973824736,-27368,128,106382,7.672443112,1.179477117,16354,21796.875,58880
-1.197363281,-16602,128,-1.979161737,-27442,128,-25370,-1.829725722,1.181568644,16383,21816.40625,59520
-1.179693482,-16357,128,-1.983849643,-27507,128,104444,7.532671396,0,0,21835.9375,60160
-1.161735196,-16108,128,-1.979089615,-27441,128,106255,7.663283666,0.028127435,390,21855.46875,60800
-1.127910152,-15639,128,-1.956515545,-27128,128,105983,7.643666583,0.016011002,222,21875,61440
-1.093868744,-15167,128,-1.953342194,-27084,128,-24640,-1.777076933,0.076088318,1055,21894.53125,62080
-1.041869049,-14446,128,-1.914612879,-26547,128,-24582,-1.772893879,0.146479028,2031,21914.0625,62720
-0.970829245,-13461,128,-1.876172051,-26014,128,-26097,-1.882158146,0.294761097,4087,21933.59375,63360
-0.901953089,-12506,128,-1.834702114,-25439,128,114689,8.271557483,0.281418595,3902,21953.125,64000
-0.88738452,-12304,128,-1.841120939,-25528,128,114688,8.271485361,0.519275727,7200,21972.65625,64640
-0.97018015,-13452,128,-1.905886162,-26426,128,106214,7.660326679,0.206844831,2868,21992.1875,65280
-1.134328977,-15728,128,-2.029286269,-28137,128,103360,7.45449155,0.001153946,16,22011.71875,384
-1.19556024,-16577,128,-2.06477011,-28629,128,-26610,-1.919156542,0.002812744,39,22031.25,1024
-1.222966459,-16957,128,-2.08777691,-28948,128,-28724,-2.071621665,1.177529833,16327,22050.78125,1664
-1.218855526,-16900,128,-2.084603558,-28904,128,100351,7.237477569,1.144137519,15864,22070.3125,2304
-1.212869431,-16817,128,-2.086839329,-28935,128,-31232,-2.25250271,1.164259453,16143,22089.84375,2944
-1.200969362,-16652,128,-2.070684084,-28711,128,102264,7.375446245,1.18048682,16368,22109.375,3584
-1.213734891,-16829,128,-2.072559246,-28737,128,-30817,-2.222572234,1.163393994,16131,22128.90625,4224
-1.211210634,-16794,128,-2.070539841,-28709,128,-30721,-2.215648558,1.147527235,15911,22148.4375,4864
-1.212653066,-16814,128,-2.066789516,-28657,128,102407,7.385759638,1.168947359,16208,22167.96875,5504
-1.207748795,-16746,128,-2.06253434,-28598,128,100345,7.23704484,1.14904179,15932,22187.5,6144
-1.225851324,-16997,128,-2.066861637,-28658,128,-31808,-2.294044768,1.126179233,15615,22207.03125,6784
-1.211138512,-16793,128,-2.064553745,-28626,128,-30841,-2.224303153,1.163393994,16131,22226.5625,7424
-1.196786308,-16594,128,-2.0687368,-28684,128,100255,7.230553893,1.163177629,16128,22246.09375,8064
-1.139449613,-15799,128,-2.051427609,-28444,128,-28442,-2.051283366,0.036998396,513,22265.625,8704
-1.102523339,-15287,128,-2.017674687,-27976,128,104952,7.569309183,0.059428222,824,22285.15625,9344
-1.129641072,-15663,128,-2.008875848,-27854,128,104706,7.551567263,0.013847353,192,22304.6875,9984
-1.217052486,-16875,128,-2.066645273,-28655,128,99193,7.153960723,1.109519137,15384,22324.21875,10624
-1.229385284,-17046,128,-2.059793718,-28560,128,102432,7.387562679,1.1424066,15840,22343.75,11264
-1.237895636,-17164,128,-2.065130718,-28634,128,100225,7.228390244,1.116442813,15480,22363.28125,11904
-1.270566734,-17617,128,-2.104076398,-29174,128,100350,7.237405448,1.172120711,16252,22382.8125,12544
-0.508168996,-7046,128,-1.702214682,-23602,128,-7197,-0.519059362,1.777004811,24639,22402.34375,13184
-0.91392528,-12672,128,-2.170428296,-30094,128,-24577,-1.77253327,0.729221789,10111,22421.875,13824
-1.15084483,-15957,128,-2.061741002,-28587,128,-25596,-1.84602521,0.004255176,59,22441.40625,14464
-1.197074794,-16598,128,-2.034695391,-28212,128,104479,7.535195653,1.172409197,16256,22460.9375,15104
-1.196930551,-16596,128,-2.026401404,-28097,128,106047,7.648282367,1.164043088,16140,22480.46875,15744
-1.178034684,-16334,128,-2.013635875,-27920,128,-25728,-1.855545265,1.178106806,16335,22500,16384
-1.173923752,-16277,128,-2.010534645,-27877,128,105415,7.602701497,0,0,22519.53125,17024
-1.15748002,-16049,128,-1.985436319,-27529,128,103939,7.496249973,0.036782031,510,22539.0625,17664
-1.124231949,-15588,128,-1.967622276,-27282,128,-25537,-1.841770034,0.009159447,127,22558.59375,18304
-1.109158529,-15379,128,-1.95096218,-27051,128,106244,7.662490328,0.073564061,1020,22578.125,18944
-1.014823439,-14071,128,-1.886341201,-26155,128,-24589,-1.77339873,0.145613568,2019,22597.65625,19584
-0.921858659,-12782,128,-1.833043317,-25416,128,-16136,-1.163754602,0.260719688,3615,22617.1875,20224
-0.856877071,-11881,128,-1.799146151,-24946,128,-16272,-1.173563143,0.553966231,7681,22636.71875,20864
-0.947245472,-13134,128,-1.844438534,-25574,128,114699,8.272278699,0.287332569,3984,22656.25,21504
-1.155172128,-16017,128,-1.955794329,-27118,128,106305,7.666889747,0.002307892,32,22675.78125,22144
-1.21149912,-16798,128,-1.970290777,-27319,128,-26688,-1.924782029,1.180414698,16367,22695.3125,22784
-1.232702879,-17092,128,-1.987239359,-27554,128,105567,7.613663985,1.112259759,15422,22714.84375,23424
-1.250805408,-17343,128,-2.000798225,-27742,128,-25597,-1.846097332,1.120553746,15537,22734.375,24064
-1.240131407,-17195,128,-1.97707021,-27413,128,-27525,-1.985147832,1.121707692,15553,22753.90625,24704
-1.222389486,-16949,128,-1.984066008,-27510,128,106364,7.671144923,1.128559247,15648,22773.4375,25344
-1.210633661,-16786,128,-1.972021696,-27343,128,-25091,-1.809603788,1.172337076,16255,22792.96875,25984
-1.217917945,-16887,128,-1.976925966,-27411,128,102910,7.422036817,1.176736495,16316,22812.5,26624
-1.214456107,-16839,128,-1.970507141,-27322,128,-27585,-1.98947513,1.163249751,16129,22832.03125,27264
-1.213302161,-16823,128,-1.963078614,-27219,128,104447,7.532887761,1.174140116,16280,22851.5625,27904
-1.194983267,-16569,128,-1.9606986,-27186,128,114975,8.292184268,1.17471709,16288,22871.09375,28544
-1.198300862,-16615,128,-1.963944073,-27231,128,-26751,-1.929325691,1.174644968,16287,22890.625,29184
-1.185463212,-16437,128,-1.960121627,-27178,128,-25597,-1.846097332,1.179837725,16359,22910.15625,29824
-1.173995873,-16278,128,-1.954424018,-27099,128,103999,7.500577271,0.004471541,62,22929.6875,30464
-1.112259759,-15422,128,-1.935095422,-26831,128,106036,7.647489029,7.21E-04,10,22949.21875,31104
-1.088026892,-15086,128,-1.918723812,-26604,128,105500,7.608831836,0.109769119,1522,22968.75,31744
-1.079805026,-14972,128,-1.886413322,-26156,128,104448,7.532959882,0.110778822,1536,22988.28125,32384
-1.151566047,-15967,128,-1.94786095,-27008,128,-25521,-1.840616088,0.001081824,15,23007.8125,33024
-1.166350981,-16172,128,-1.951034302,-27052,128,106096,7.651816327,0.017309191,240,23027.34375,33664
-1.159932156,-16083,128,-1.954424018,-27099,128,104350,7.525891963,0.002452135,34,23046.875,34304
-1.190800213,-16511,128,-1.961275573,-27194,128,-26633,-1.920815339,1.180558941,16369,23066.40625,34944
-0.53355581,-7398,128,-1.636511879,-22691,128,114693,8.271845969,1.324730077,18368,23085.9375,35584
-0.371859118,-5156,128,-1.775346014,-24616,128,116680,8.415151646,0.885942088,12284,23105.46875,36224
-1.0627122,-14735,128,-1.961203451,-27193,128,-16256,-1.172409197,0.239948659,3327,23125,36864
-1.097979676,-15224,128,-1.91951715,-26615,128,105484,7.60767789,0.110778822,1536,23144.53125,37504
-1.088171135,-15088,128,-1.892760026,-26244,128,114720,8.273793253,0.111644281,1548,23164.0625,38144
-1.097835433,-15222,128,-1.902352202,-26377,128,-25593,-1.845808845,0.110850943,1537,23183.59375,38784
-1.077352891,-14938,128,-1.887855755,-26176,128,104568,7.541614478,0.142945068,1982,23203.125,39424
-1.069203147,-14825,128,-1.876027808,-26012,128,115223,8.310070432,0.109336389,1516,23222.65625,40064
-1.038118725,-14394,128,-1.851434332,-25671,128,115199,8.308339513,0.143522041,1990,23242.1875,40704
-0.991816639,-13752,128,-1.816383221,-25185,128,105535,7.611356093,0.290794407,4032,23261.71875,41344
-0.948832148,-13156,128,-1.792727326,-24857,128,116723,8.418252876,0.290794407,4032,23281.25,41984
-0.820022919,-11370,128,-1.710725035,-23720,128,123122,8.879759178,0.590531896,8188,23300.78125,42624
-0.785548781,-10892,128,-1.706325615,-23659,128,-7744,-0.558509893,0.56766934,7871,23320.3125,43264
-0.765643211,-10616,128,-1.691973411,-23460,128,122894,8.863315447,0.582598517,8078,23339.84375,43904
-0.932244174,-12926,128,-1.799001908,-24944,128,123109,8.878821597,0.517112078,7170,23359.375,44544
-1.031988386,-14309,128,-1.862468942,-25824,128,-15616,-1.126251355,0.222639468,3087,23378.90625,45184
-1.083771716,-15027,128,-1.888649093,-26187,128,-15601,-1.125169531,0.115322484,1599,23398.4375,45824
-1.088243257,-15089,128,-1.890956985,-26219,128,-16367,-1.180414698,0.102052105,1415,23417.96875,46464
-1.086656581,-15067,128,-1.887783633,-26175,128,-26128,-1.884393917,0.133497135,1851,23437.5,47104
-1.076559553,-14927,128,-1.882230268,-26098,128,-16370,-1.180631063,0.109696997,1521,23457.03125,47744
-1.067688592,-14804,128,-1.867950185,-25900,128,105078,7.578396509,0.11510612,1596,23476.5625,48384
-1.075044999,-14906,128,-1.886341201,-26155,128,-25855,-1.864704712,0.101619375,1409,23496.09375,49024
-1.051389104,-14578,128,-1.861170752,-25806,128,115075,8.299396431,0.130251662,1806,23515.625,49664
-1.06624616,-14784,128,-1.873647794,-25979,128,114713,8.273288402,0.110778822,1536,23535.15625,50304
-1.063505538,-14746,128,-1.875955686,-26011,128,115260,8.312738933,0.138329284,1918,23554.6875,50944
-1.058817632,-14681,128,-1.875450835,-26004,128,106495,7.680592856,0.142512338,1976,23574.21875,51584
-1.036964779,-14378,128,-1.87747024,-26032,128,-16368,-1.18048682,0.143594163,1991,23593.75,52224
-0.972560164,-13485,128,-1.863622888,-25840,128,-15409,-1.111322178,0.290722286,4031,23613.28125,52864
