Device,Device,Device,Device,Device,Device,Device,Device,Device,Device,Device,Device
ECG LL-RA,ECG LL-RA,EXG2 Status,ECG LA-RA,ECG LA-RA,EXG1 Status,ECG Vx-RL,ECG Vx-RL,ExG2 CH1,ExG2 CH1,Timestamp,Timestamp
CAL,RAW,RAW,RAW,CAL,RAW,CAL,RAW,CAL,RAW,RAW,CAL
mV,No Units,No Units,No Units,mV,No Units,mV,No Units,mV,No Units,No Units,mSecs
4.70824417,65282,128,31578,2.277456793,128,1.153729696,15997,1.153801817,15998,1920,58.59375
4.98454213,69113,128,31658,2.283226524,128,2.355131788,32655,0.281418595,3902,2560,78.125
5.043249135,69927,128,32250,2.325922528,128,2.348280233,32560,0.290866529,4033,3200,97.65625
5.078660855,70418,128,32466,2.3415008,128,0.574016043,7959,0.516390862,7160,3840,117.1875
5.153234619,71452,128,30988,2.234905033,128,3.546869582,49179,0.53312308,7392,4480,136.71875
5.201772475,72125,128,10759,0.775956604,128,1.472435173,20416,0.589594315,8175,5120,156.25
5.27194682,73098,128,10441,0.753021926,128,0.724101153,10040,0.588368248,8158,5760,175.78125
5.306276716,73574,128,10556,0.761315913,128,1.034007792,14337,0.581805179,8067,6400,195.3125
5.264590414,72996,128,9674,0.697704637,128,0.720927801,9996,0.558582015,7745,7040,214.84375
5.105490101,70790,128,7904,0.570049354,128,0.620750859,8607,0.588512491,8160,7680,234.375
5.040292149,69886,128,7461,0.538099472,128,0.244708686,3393,0.499009549,6919,8320,253.90625
4.966223236,68859,128,6903,0.497855603,128,0.267643364,3711,0.235981969,3272,8960,273.4375
4.939466112,68488,128,6581,0.474632439,128,0.007428528,103,0.227255252,3151,9600,292.96875
4.93586003,68438,128,6619,0.477373061,128,0.016083123,223,0.279110703,3870,10240,312.5
4.950717086,68644,128,6709,0.483864007,128,6.49E-04,9,0.286178623,3968,10880,332.03125
4.969035979,68898,128,6746,0.486532508,128,0.055317289,767,0.239876537,3326,11520,351.5625
4.977329967,69013,128,6836,0.493023454,128,0.016155245,224,0.248603254,3447,12160,371.09375
5.003293753,69373,128,7061,0.509250821,128,0.055605776,771,0.29533807,4095,12800,390.625
4.972714182,68949,128,6706,0.483647643,128,0.034618382,480,0.253868133,3520,13440,410.15625
4.989518522,69182,128,7038,0.507592023,128,0.072698602,1008,0.295121705,4092,14080,429.6875
4.978195426,69025,128,6583,0.474776682,128,0.027766827,385,0.246944457,3424,14720,449.21875
4.959660168,68768,128,6676,0.481483994,128,0.008077622,112,0.257906945,3576,15360,468.75
4.943649166,68546,128,6534,0.471242722,128,0.147777217,2049,0.260070593,3606,16000,488.28125
4.946389788,68584,128,6449,0.465112384,128,0.013558866,188,0.231510428,3210,16640,507.8125
4.950861329,68646,128,6319,0.455736572,128,0.007212163,100,0.239876537,3326,17280,527.34375
4.960381384,68778,128,6573,0.474055466,128,0.008798839,122,0.286827718,3977,17920,546.875
4.954683775,68699,128,6502,0.46893483,128,0.001081824,15,0.26302758,3647,18560,566.40625
4.948120707,68608,128,6390,0.460857208,128,0.016515853,229,0.293030178,4063,19200,585.9375
4.939970963,68495,128,6371,0.459486897,128,0.033392314,463,0.294400489,4082,19840,605.46875
4.947327369,68597,128,6401,0.461650546,128,0,0,0.29533807,4095,20480,625
4.945524328,68572,128,6538,0.471531209,128,0.018679502,259,0.293318664,4067,21120,644.53125
4.944586747,68559,128,6447,0.464968141,128,5.05E-04,7,0.258483918,3584,21760,664.0625
5.021973255,69632,128,6848,0.493888914,128,0.00223577,31,0.29533807,4095,22400,683.59375
5.04699946,69979,128,7262,0.523747268,128,0.008510352,118,0.590604018,8189,23040,703.125
5.053851015,70074,128,7646,0.551441974,128,0.10847093,1504,0.576900909,7999,23680,722.65625
4.995793104,69269,128,7283,0.525261822,128,0.135660784,1881,0.29447261,4083,24320,742.1875
4.933840625,68410,128,6184,0.446000152,128,0.00223577,31,0.224081901,3107,24960,761.71875
4.934778206,68423,128,6246,0.450471693,128,0.004110933,57,0.291227137,4038,25600,781.25
4.931821219,68382,128,6382,0.460280235,128,0.017164948,238,0.288342272,3998,26240,800.78125
5.039354567,69873,128,4972,0.358588738,128,0.01637161,227,0.283798609,3935,26880,820.3125
5.403785158,74926,128,11241,0.810719229,128,0.284087096,3939,0.146406906,2030,27520,839.84375
5.177467487,71788,128,8033,0.579353044,128,1.144786614,15873,0.958857055,13295,28160,859.375
4.95446741,68696,128,7018,0.506149591,128,0.14568569,2020,0.518915119,7195,28800,878.90625
5.025002363,69674,128,6683,0.481988845,128,0.016732218,232,0.29533807,4095,29440,898.4375
5.028536323,69723,128,6724,0.484945832,128,0.004543663,63,0.295193827,4093,30080,917.96875
5.022261741,69636,128,6549,0.472324547,128,0.036277179,503,0.582021544,8070,30720,937.5
5.045989757,69965,128,6805,0.490787684,128,8.65E-04,12,0,0,31360,957.03125
5.057096488,70119,128,6930,0.499802887,128,0.014496447,201,0.010385515,144,32000,976.5625
5.078516612,70416,128,7134,0.5145157,128,0.01817465,252,0.004327298,60,32640,996.09375
5.13022782,71133,128,7503,0.541128581,128,0.235332875,3263,0.008654595,120,33280,1015.625
5.201483989,72121,128,8449,0.609355642,128,0.278317365,3859,0.009159447,127,33920,1035.15625
5.239564209,72649,128,8857,0.638781266,128,0.612745358,8496,0,0,34560,1054.6875
5.304834283,73554,128,9493,0.684650622,128,0.88738452,12304,0.004760027,66,35200,1074.21875
5.344861787,74109,128,9974,0.719341125,128,0.888177858,12315,8.65E-04,12,35840,1093.75
5.330653826,73912,128,9577,0.690708839,128,0.726986018,10080,1.146445411,15896,36480,1113.28125
5.19621911,72048,128,7747,0.558726258,128,0.893442737,12388,0.516967835,7168,37120,1132.8125
5.088253032,70551,128,6668,0.480907021,128,0.276947054,3840,0.55793292,7736,37760,1152.34375
5.031132702,69759,128,6489,0.467997249,128,7.21E-05,1,0.588873099,8165,38400,1171.875
4.9894464,69181,128,6052,0.436480097,128,0.001370311,19,0.276874933,3839,39040,1191.40625
5.00004828,69328,128,6123,0.441600733,128,0.016083123,223,0.286394988,3971,39680,1210.9375
5.003654361,69378,128,6331,0.456602032,128,0,0,0.001298189,18,40320,1230.46875
5.027670864,69711,128,6305,0.454726869,128,0.017309191,240,2.16E-04,3,40960,1250
5.053129799,70064,128,6574,0.474127588,128,0.018391015,255,0.001153946,16,41600,1269.53125
5.032719378,69781,128,6423,0.463237222,128,0.017237069,239,0.002019406,28,42240,1289.0625
5.042239433,69913,128,6466,0.466338452,128,0.032887463,456,0.589666437,8176,42880,1308.59375
5.029834512,69741,128,6568,0.473694858,128,0.26346031,3653,0,0,43520,1328.125
5.006394983,69416,128,6180,0.445711666,128,0.021997097,305,0.581516693,8063,44160,1347.65625
5.025651458,69683,128,6251,0.450832301,128,0.00223577,31,0.004038811,56,44800,1367.1875
5.019232633,69594,128,6331,0.456602032,128,0.013775231,191,0.001875162,26,45440,1386.71875
5.006394983,69416,128,6238,0.44989472,128,0.553894109,7680,0.022790435,316,46080,1406.25
5.029906634,69742,128,6175,0.445351058,128,0,0,0.003317595,46,46720,1425.78125
5.003510118,69376,128,6194,0.446721369,128,0.14878692,2063,0.003245473,45,47360,1445.3125
4.993629455,69239,128,5906,0.42595034,128,5.05E-04,7,0.29490534,4089,48000,1464.84375
4.999759793,69324,128,5965,0.430205516,128,0.011539461,160,5.05E-04,7,48640,1484.375
5.001130104,69343,128,6242,0.450183207,128,0.143089311,1984,0.005120636,71,49280,1503.90625
5.010866524,69478,128,6173,0.445206814,128,0.004615784,64,7.21E-05,1,49920,1523.4375
5.067265638,70260,128,6448,0.465040262,128,0.582670639,8079,0.001226068,17,50560,1542.96875
5.134050266,71186,128,7116,0.51321751,128,0.216941859,3008,0.001730919,24,51200,1562.5
5.10765375,70820,128,7115,0.513145389,128,0.056471235,783,0.035483841,492,51840,1582.03125
5.096042168,70659,128,7296,0.526199404,128,0.290794407,4032,0.581660936,8065,52480,1601.5625
5.001923442,69354,128,5999,0.432657651,128,0.002307892,32,0.295121705,4092,53120,1621.09375
4.997956753,69299,128,6150,0.443548017,128,0.138329284,1918,0.001730919,24,53760,1640.625
4.999327063,69318,128,6037,0.435398273,128,0.129458324,1795,2.88E-04,4,54400,1660.15625
5.081112991,70452,128,4737,0.341640156,128,0.138473527,1920,0.293318664,4067,55040,1679.6875
5.407246996,74974,128,10300,0.742852776,128,1.112259759,15422,0.014857056,206,55680,1699.21875
5.396572995,74826,128,8166,0.588945221,128,0.886302696,12289,1.111250056,15408,56320,1718.75
5.045340663,69956,128,6425,0.463381465,128,0.443115287,6144,0.577261517,8004,56960,1738.28125
5.074622044,70362,128,6446,0.464896019,128,0.184054397,2552,0.572573611,7939,57600,1757.8125
5.070078381,70299,128,6299,0.45429414,128,0.148209947,2055,0.572357246,7936,58240,1777.34375
5.073972949,70353,128,6469,0.466554817,128,0.222062495,3079,0.590604018,8189,58880,1796.875
5.097412479,70678,128,6741,0.4861719,128,0.179943464,2495,0.010601879,147,59520,1816.40625
5.145373362,71343,128,7133,0.514443578,128,0.160398502,2224,0,0,60160,1835.9375
5.134915726,71198,128,7077,0.510404767,128,0.162129421,2248,0.001947284,27,60800,1855.46875
5.163403769,71593,128,7434,0.536152188,128,0.518049659,7183,0.035267476,489,61440,1875
5.239419966,72647,128,8334,0.601061654,128,0.59067614,8190,5.05E-04,7,62080,1894.53125
5.264806779,72999,128,8792,0.63409336,128,0.959794636,13308,0.034834747,483,62720,1914.0625
5.345727246,74121,128,9810,0.707513178,128,0.664961417,9220,0.036854152,511,63360,1933.59375
5.372484371,74492,128,10046,0.724533883,128,0.955467338,13248,0.036277179,503,64000,1953.125
5.337577502,74008,128,9033,0.651474673,128,0.904116738,12536,1.178106806,16335,64640,1972.65625
5.232424168,72550,128,7618,0.549422568,128,1.037397508,14384,0.553821987,7679,65280,1992.1875
5.147609132,71374,128,6720,0.484657345,128,0.203094507,2816,0.590748261,8191,384,2011.71875
5.07491053,70366,128,6263,0.451697761,128,0.258411796,3583,7.21E-05,1,1024,2031.25
5.063659556,70210,128,6194,0.446721369,128,0.147705096,2048,0.007140041,99,1664,2050.78125
5.084502707,70499,128,6310,0.455087478,128,0.138545649,1921,0.00396669,55,2304,2070.3125
5.070222625,70301,128,6229,0.449245626,128,0.182828329,2535,0.589161585,8169,2944,2089.84375
5.083781491,70489,128,6333,0.456746275,128,0.221774008,3075,0.002019406,28,3584,2109.375
5.092508208,70610,128,6522,0.470377263,128,0.156864543,2175,0.018391015,255,4224,2128.90625
5.101811898,70739,128,6733,0.485594927,128,0.152393002,2113,0.004687906,65,4864,2148.4375
5.092940938,70616,128,6516,0.469944533,128,0.184342883,2556,0.59024341,8184,5504,2167.96875
5.099792492,70711,128,6532,0.471098479,128,0.180015585,2496,0.001658797,23,6144,2187.5
5.077218423,70398,128,6472,0.466771181,128,0.166312476,2306,0.008293987,115,6784,2207.03125
5.070655354,70307,128,6274,0.452491099,128,0,0,7.21E-05,1,7424,2226.5625
5.065101989,70230,128,6272,0.452346856,128,0.184487126,2558,0.009159447,127,8064,2246.09375
5.063154705,70203,128,6323,0.456025059,128,0.147705096,2048,0.017164948,238,8704,2265.625
5.055221326,70093,128,5965,0.430205516,128,0,0,0.588368248,8158,9344,2285.15625
5.055365569,70095,128,6106,0.440374665,128,0.153979677,2135,0.014135839,196,9984,2304.6875
5.055942542,70103,128,6329,0.456457789,128,0.013775231,191,5.05E-04,7,10624,2324.21875
5.070078381,70299,128,6228,0.449173504,128,0.151166934,2096,0.018391015,255,11264,2343.75
5.07534326,70372,128,6303,0.454582626,128,0.239948659,3327,0.016443731,228,11904,2363.28125
5.156552214,71498,128,6770,0.488263427,128,0.20323875,2818,0.027694705,384,12544,2382.8125
5.201411867,72120,128,7009,0.505500496,128,0.505500496,7009,0.028560165,396,13184,2402.34375
5.177900216,71794,128,7318,0.527786079,128,0.239948659,3327,5.77E-04,8,13824,2421.875
5.129218117,71119,128,6832,0.492734968,128,0.221557644,3072,0.590748261,8191,14464,2441.40625
5.090633046,70584,128,6233,0.449534112,128,0.00223577,31,0.583319734,8088,15104,2460.9375
5.078732977,70419,128,6170,0.44499045,128,0.073564061,1020,0.010313393,143,15744,2480.46875
5.077723274,70405,128,6101,0.440014057,128,0.004615784,64,7.21E-05,1,16384,2500
5.261128576,72948,128,5404,0.389745282,128,0.022790435,316,0.573366949,7950,17024,2519.53125
5.721336689,79329,128,13426,0.968304988,128,0.009087325,126,0.146623271,2033,17664,2539.0625
5.289688741,73344,128,6509,0.469439682,128,0.85904072,11911,1.033358697,14328,18304,2558.59375
5.10145129,70734,128,7170,0.517112078,128,0.239804416,3325,0.590171288,8183,18944,2578.125
5.153811592,71460,128,6681,0.481844602,128,0.25329116,3512,0.581733058,8066,19584,2597.65625
5.173356554,71731,128,6645,0.479248223,128,0.459270532,6368,0.006995798,97,20224,2617.1875
5.181866906,71849,128,6761,0.487614332,128,0.452130491,6269,5.77E-04,8,20864,2636.71875
5.191098474,71977,128,6726,0.485090075,128,0.18643441,2585,0.590171288,8183,21504,2656.25
5.215980436,72322,128,6919,0.499009549,128,0.203599358,2823,1.44E-04,2,22144,2675.78125
5.271658334,73094,128,7511,0.541705554,128,0.279038582,3869,0.001153946,16,22784,2695.3125
5.281106267,73225,128,7519,0.542282527,128,0.588440369,8159,0.037503247,520,23424,2714.84375
5.378614709,74577,128,8620,0.62168844,128,0.586132477,8127,0.009159447,127,24064,2734.375
5.423474362,75199,128,9302,0.670875391,128,0.887312399,12303,0.004543663,63,24704,2753.90625
5.4809553,75996,128,9771,0.704700435,128,0.999966383,13865,0.006851555,95,25344,2773.4375
5.513049425,76441,128,10157,0.732539383,128,1.181424401,16381,0.014280082,198,25984,2792.96875
5.464150961,75763,128,9195,0.663158377,128,0.957991595,13283,1.18048682,16368,26624,2812.5
5.31312827,73669,128,7543,0.544013446,128,0.583824585,8095,1.146373289,15895,27264,2832.03125
5.234659938,72581,128,6824,0.492157995,128,0.510044159,7072,0.581949423,8069,27904,2851.5625
5.17364504,71735,128,6434,0.46403056,128,0.451842004,6265,8.65E-04,12,28544,2871.09375
5.167803188,71654,128,6471,0.46669906,128,0.293607151,4071,0.034834747,483,29184,2890.625
5.163043161,71588,128,6191,0.446505004,128,0.519492092,7203,0.034618382,480,29824,2910.15625
5.179270527,71813,128,6274,0.452491099,128,0.452346856,6272,0.004615784,64,30464,2929.6875
5.194632434,72026,128,6425,0.463381465,128,0.294833218,4088,0.009087325,126,31104,2949.21875
5.219009545,72364,128,6589,0.475209412,128,0.258483918,3584,0.013847353,192,31744,2968.75
5.204873705,72168,128,6494,0.468357857,128,0.223793414,3103,0.017886164,248,32384,2988.28125
5.20948949,72232,128,6743,0.486316143,128,0.447154098,6200,5.05E-04,7,33024,3007.8125
5.188429974,71940,128,6368,0.459270532,128,0.165014287,2288,0,0,33664,3027.34375
5.198815489,72084,128,6410,0.46229964,128,0.29533807,4095,0.012621285,175,34304,3046.875
5.198743367,72083,128,6441,0.464535411,128,0.459847505,6376,0.016155245,224,34944,3066.40625
5.176025054,71768,128,6297,0.454149896,128,0.444846206,6168,0.008654595,120,35584,3085.9375
5.193334245,72008,128,6388,0.460712965,128,0.443115287,6144,0.027766827,385,36224,3105.46875
5.176457784,71774,128,6082,0.438643746,128,0.366954847,5088,0.59067614,8190,36864,3125
5.182876609,71863,128,6281,0.45299595,128,0.458044464,6351,5.05E-04,7,37504,3144.53125
5.210427071,72245,128,6559,0.473045763,128,0.256103904,3551,0.004543663,63,38144,3164.0625
5.18734815,71925,128,6265,0.451842004,128,0.296492016,4111,0.001081824,15,38784,3183.59375
5.181722663,71847,128,6283,0.453140194,128,0.452923829,6280,0.016660096,231,39424,3203.125
5.177395365,71787,128,6299,0.45429414,128,0.444846206,6168,0.00887096,123,40064,3222.65625
5.204585219,72164,128,6491,0.468141492,128,0.332192222,4606,2.16E-04,3,40704,3242.1875
5.291347538,73367,128,7073,0.51011628,128,0.589666437,8176,0.00930369,129,41344,3261.71875
5.308224,73601,128,7077,0.510404767,128,0.515164794,7143,0.00223577,31,41984,3281.25
5.29538635,73423,128,7539,0.543724959,128,0.572429368,7937,0.013847353,192,42624,3300.78125
5.227447775,72481,128,6761,0.487614332,128,0.291010772,4035,0.581877301,8068,43264,3320.3125
5.193406367,72009,128,6356,0.458405072,128,0.452274734,6271,0.005264879,73,43904,3339.84375
5.187636636,71929,128,6242,0.450183207,128,0.531969134,7376,0.002163649,30,44544,3359.375
5.170255324,71688,128,6041,0.435686759,128,0.036854152,511,0.590748261,8191,45184,3378.90625
5.32062892,73773,128,4948,0.356857819,128,0.063467033,880,0.002307892,32,45824,3398.4375
5.881590948,81551,128,15243,1.099349987,128,0.119794025,1661,0.330966154,4589,46464,3417.96875
5.394697832,74800,128,8045,0.580218504,128,0.590748261,8191,0.890269386,12344,47104,3437.5
5.262282522,72964,128,7235,0.521799984,128,0.44325953,6146,0.588512491,8160,47744,3457.03125
5.270215901,73074,128,6664,0.480618534,128,0.276947054,3840,0.590748261,8191,48384,3476.5625
5.292717849,73386,128,6858,0.49461013,128,0.447514707,6205,0.008077622,112,49024,3496.09375
5.275769267,73151,128,6683,0.481988845,128,0.573150584,7947,0.590748261,8191,49664,3515.625
5.303103364,73530,128,6804,0.490715562,128,0.258916647,3590,0.004038811,56,50304,3535.15625
5.320917406,73777,128,6894,0.497206509,128,0.443331652,6147,1.163177629,16128,50944,3554.6875
5.367868587,74428,128,7493,0.540407364,128,0.572645732,7940,0.002019406,28,51584,3574.21875
5.415973713,75095,128,7817,0.563774772,128,0.556129879,7711,7.21E-05,1,52224,3593.75
5.459102447,75693,128,8464,0.610437466,128,1.070284971,14840,0.028055314,389,52864,3613.28125
5.554591483,77017,128,9604,0.692656123,128,1.107643975,15358,0.037791733,524,53504,3632.8125
5.575074026,77301,128,9713,0.70051738,128,1.181135914,16377,0.035772328,496,54144,3652.34375
5.6093318,77776,128,9938,0.716744747,128,1.18048682,16368,7.21E-04,10,54784,3671.875
5.526752535,76631,128,8791,0.634021239,128,1.151566047,15967,1.172337076,16255,55424,3691.40625
5.44597631,75511,128,7823,0.564207502,128,0.554975933,7695,1.180558941,16369,56064,3710.9375
5.311108865,73641,128,6786,0.489417373,128,0.582742761,8080,1.181568644,16383,56704,3730.46875
5.273533496,73120,128,6543,0.471891817,128,0.476507601,6607,0.581588814,8064,57344,3750
5.248218804,72769,128,6392,0.461001451,128,0.182395599,2529,0.590531896,8188,57984,3769.53125
5.247858196,72764,128,6267,0.451986248,128,0.452274734,6271,0.59067614,8190,58624,3789.0625
5.27504805,73141,128,6484,0.467636641,128,0.475209412,6589,0.032094125,445,59264,3808.59375
5.285289322,73283,128,6615,0.477084574,128,0.221629765,3073,2.16E-04,3,59904,3828.125
5.294304525,73408,128,6629,0.478094277,128,0.293102299,4064,0.018391015,255,60544,3847.65625
5.299930012,73486,128,6651,0.479680953,128,0.554110474,7683,0.018463137,256,61184,3867.1875
5.293799674,73401,128,6809,0.49107617,128,0.267715486,3712,0.002019406,28,61824,3886.71875
5.263652833,72983,128,6609,0.476651845,128,0.4604966,6385,2.16E-04,3,62464,3906.25
5.279231105,73199,128,6618,0.477300939,128,0.588440369,8159,0.017237069,239,63104,3925.78125
5.273172888,73115,128,6486,0.467780884,128,0.479753075,6652,0.008293987,115,63744,3945.3125
5.269638928,73066,128,6453,0.46540087,128,0.443115287,6144,0.009087325,126,64384,3964.84375
5.260695846,72942,128,6470,0.466626938,128,0.517112078,7170,0.016660096,231,65024,3984.375
5.252834589,72833,128,6328,0.456385667,128,0.225596455,3128,0.013919474,193,128,4003.90625
5.253555805,72843,128,6308,0.454943234,128,0.521511498,7231,0.009808542,136,768,4023.4375
5.258532197,72912,128,6229,0.449245626,128,0.55439896,7687,0.005120636,71,1408,4042.96875
5.270432266,73077,128,6432,0.463886316,128,0.150012988,2080,0.022213462,308,2048,4062.5
5.248363048,72771,128,6079,0.438427381,128,0.262955459,3646,8.65E-04,12,2688,4082.03125
5.26264313,72969,128,6448,0.465040262,128,0.574376652,7964,0,0,3328,4101.5625
5.246343642,72743,128,6224,0.448885018,128,0.26302758,3647,0.004615784,64,3968,4121.09375
5.254781873,72860,128,6238,0.44989472,128,0.23071709,3199,0.013847353,192,4608,4140.625
5.328850785,73887,128,6835,0.492951333,128,0.456890518,6335,5.05E-04,7,5248,4160.15625
5.368806168,74441,128,7038,0.507592023,128,0.295193827,4093,0.036854152,511,5888,4179.6875
5.353300018,74226,128,7194,0.518842997,128,0.258483918,3584,0.035772328,496,6528,4199.21875
5.283919011,73264,128,6716,0.484368859,128,0.281490717,3903,0.586132477,8127,7168,4218.75
5.249661237,72789,128,6118,0.441240125,128,0.588945221,8166,0.004904271,68,7808,4238.28125
5.263292225,72978,128,6321,0.455880815,128,0.221629765,3073,0.035123233,487,8448,4257.8125
5.219153788,72366,128,5879,0.424003056,128,0.119938269,1663,0.018391015,255,9088,4277.34375
5.335413854,73978,128,5011,0.361401482,128,0.364646955,5056,1.181568644,16383,9728,4296.875
5.910655965,81954,128,14253,1.027949575,128,0.036854152,511,1.185246847,16434,10368,4316.40625
5.605942083,77729,128,8054,0.580867598,128,0.59067614,8190,1.172409197,16256,11008,4335.9375
5.286948119,73306,128,7054,0.508745969,128,0.57343907,7951,0.010529758,146,11648,4355.46875
5.324884096,73832,128,6561,0.473190006,128,0.474343952,6577,0.004327298,60,12288,4375
5.312911905,73666,128,6667,0.480834899,128,0.183405302,2543,0.017741921,246,12928,4394.53125
5.32553319,73841,128,6600,0.47600275,128,0.477733669,6624,0.008149744,113,13568,4414.0625
5.343058746,74084,128,6819,0.491797387,128,0.460424478,6384,0.036060814,500,14208,4433.59375
5.375080749,74528,128,7151,0.515741767,128,0.514876308,7139,0.034618382,480,14848,4453.125
5.389505075,74728,128,7143,0.515164794,128,0.29447261,4083,0.036349301,504,15488,4472.65625
5.438547783,75408,128,7898,0.569616624,128,0.554110474,7683,0.009231568,128,16128,4492.1875
5.458236987,75681,128,8053,0.580795477,128,0.001514554,21,0.034690503,481,16768,4511.71875
5.564472147,77154,128,9448,0.681405149,128,0.90462159,12543,0.072698602,1008,17408,4531.25
5.58675773,77463,128,9737,0.702248299,128,0.038008098,527,0.014063718,195,18048,4550.78125
5.602408123,77680,128,9729,0.701671326,128,0.138545649,1921,0.001081824,15,18688,4570.3125
5.591301392,77526,128,8900,0.641882496,128,0.016443731,228,1.178178928,16336,19328,4589.84375
5.504466951,76322,128,7897,0.569544502,128,0.59024341,8184,1.147022384,15904,19968,4609.375
5.386331723,74684,128,6766,0.48797494,128,0.293607151,4071,1.181568644,16383,20608,4628.90625
5.34767453,74148,128,6406,0.462011154,128,0.44325953,6146,1.181352279,16380,21248,4648.4375
5.309738554,73622,128,5896,0.425229123,128,0.310339369,4303,0.590604018,8189,21888,4667.96875
5.341399949,74061,128,6328,0.456385667,128,0.461001451,6392,0.006995798,97,22528,4687.5
5.335413854,73978,128,6268,0.452058369,128,0.519780579,7207,0.016587975,230,23168,4707.03125
5.361521883,74340,128,6494,0.468357857,128,0.241102605,3343,0.004327298,60,23808,4726.5625
5.362675829,74356,128,6569,0.473766979,128,0.452274734,6271,0,0,24448,4746.09375
5.359141869,74307,128,6624,0.477733669,128,0.183477424,2544,0.007140041,99,25088,4765.625
5.366065546,74403,128,6578,0.474416074,128,0.258123309,3579,2.16E-04,3,25728,4785.15625
5.358492775,74298,128,6471,0.46669906,128,0.443620139,6151,0.004471541,62,26368,4804.6875
5.33966903,74037,128,6468,0.466482695,128,0.443403774,6148,0.021924975,304,27008,4824.21875
5.358132167,74293,128,6469,0.466554817,128,0.461001451,6392,0.03454626,479,27648,4843.75
5.338731448,74024,128,6279,0.452851707,128,0.590748261,8191,0.002307892,32,28288,4863.28125
5.340967219,74055,128,6430,0.463742073,128,0.26302758,3647,0.006995798,97,28928,4882.8125
5.317816176,73734,128,6034,0.435181908,128,0.588440369,8159,1.179765604,16358,29568,4902.34375
5.329716245,73899,128,6182,0.445855909,128,0.5171842,7171,7.93E-04,11,30208,4921.875
5.34233753,74074,128,6437,0.464246924,128,0.150517839,2087,0.027117732,376,30848,4941.40625
5.327552596,73869,128,6107,0.440446787,128,0.586420964,8131,5.05E-04,7,31488,4960.9375
5.361305518,74337,128,6378,0.459991748,128,0.281274352,3900,1.181063793,16376,32128,4980.46875
5.42116647,75167,128,6518,0.470088776,128,0.285024677,3952,0.018391015,255,32768,5000
5.485066233,76053,128,7059,0.509106578,128,0.516823592,7166,0.001009703,14,33408,5019.53125
5.458020622,75678,128,7419,0.535070364,128,0.239660172,3323,0.029930476,415,34048,5039.0625
5.390803264,74746,128,6610,0.476723966,128,0.587358545,8144,1.181280158,16379,34688,5058.59375
5.354021234,74236,128,6169,0.444918328,128,0.221629765,3073,0.01817465,252,35328,5078.125
5.325316826,73838,128,5880,0.424075177,128,0.304064787,4216,1.181496523,16382,35968,5097.65625
5.349333328,74171,128,5935,0.428041867,128,0.576900909,7999,0.00223577,31,36608,5117.1875
5.547090834,76913,128,5721,0.412607838,128,0.129818932,1800,0.077963481,1081,37248,5136.71875
5.9387834,82344,128,14048,1.013164641,128,0.137391703,1905,1.216259148,16864,37888,5156.25
5.525814954,76618,128,6211,0.447947436,128,0.450038964,6240,1.164259453,16143,38528,5175.78125
5.417848875,75121,128,6758,0.487397967,128,0.518698754,7192,0.002091527,29,39168,5195.3125
5.435518674,75366,128,6714,0.484224616,128,0.207133318,2872,2.16E-04,3,39808,5214.84375
5.434581093,75353,128,6425,0.463381465,128,0.463669951,6429,0.009015204,125,40448,5234.375
5.450736338,75577,128,6668,0.480907021,128,0.18463137,2560,0.020698907,287,41088,5253.90625
5.482541976,76018,128,6847,0.493816792,128,0.590748261,8191,0.017525556,243,41728,5273.4375
5.514852466,76466,128,6997,0.504635037,128,0.008077622,112,0,0,42368,5292.96875
5.553221172,76998,128,7476,0.539181297,128,0.019617083,272,0.014063718,195,43008,5312.5
5.593681406,77559,128,7769,0.560312934,128,0.562548704,7800,8.65E-04,12,43648,5332.03125
5.652244169,78371,128,8636,0.622842386,128,1.070789822,14847,0.039450531,547,44288,5351.5625
5.712105121,79201,128,9190,0.662797768,128,0.072049507,999,0.006923676,96,44928,5371.09375
5.793025588,80323,128,10187,0.734703032,128,0.032382611,449,0.017525556,243,45568,5390.625
5.7997329,80416,128,10088,0.727562991,128,1.164259453,16143,0.004038811,56,46208,5410.15625
5.694868051,78962,128,8479,0.61151929,128,1.036171441,14367,1.144858735,15874,46848,5429.6875
5.60269661,77684,128,7602,0.548268622,128,0.109624876,1520,1.167721292,16191,47488,5449.21875
5.482974706,76024,128,6499,0.468718465,128,0.516895713,7167,2.88E-04,4,48128,5468.75
5.465377029,75780,128,6523,0.470449385,128,0.461794789,6403,4.33E-04,6,48768,5488.28125
5.465809758,75786,128,6478,0.467203911,128,0.583824585,8095,0,0,49408,5507.8125
5.463141258,75749,128,6144,0.443115287,128,0.147705096,2048,0.016660096,231,50048,5527.34375
5.475329813,75918,128,6309,0.455015356,128,0.534565512,7412,0.018391015,255,50688,5546.875
5.500211775,76263,128,6534,0.471242722,128,0.29093865,4034,0.036854152,511,51328,5566.40625
5.526031318,76621,128,6781,0.489056765,128,0.267427,3708,0.063394912,879,51968,5585.9375
5.504034222,76316,128,6541,0.471747574,128,0.476507601,6607,0.00223577,31,52608,5605.46875
5.521343413,76556,128,6942,0.500668347,128,0.03454626,479,0.035628085,494,53248,5625
5.494153559,76179,128,6598,0.475858507,128,0.452346856,6272,0.03231049,448,53888,5644.53125
5.493071734,76164,128,6643,0.47910398,128,0.447154098,6200,0.027694705,384,54528,5664.0625
5.477349219,75946,128,6440,0.464463289,128,0.473117885,6560,0.017886164,248,55168,5683.59375
5.481027422,75997,128,6417,0.462804492,128,0.176625869,2449,0.014929177,207,55808,5703.125
5.490763842,76132,128,6501,0.468862709,128,0.543580716,7537,2.88E-04,4,56448,5722.65625
5.485282598,76056,128,6319,0.455736572,128,0.443620139,6151,0.027694705,384,57088,5742.1875
5.473887381,75898,128,6267,0.451986248,128,0.526127282,7295,0.002163649,30,57728,5761.71875
5.476988611,75941,128,6363,0.458909924,128,0.450976545,6253,0.032238368,447,58368,5781.25
5.469920691,75843,128,6261,0.451553518,128,0.451481396,6260,2.16E-04,3,59008,5800.78125
5.466026123,75789,128,6329,0.456457789,128,0.521511498,7231,0.001081824,15,59648,5820.3125
5.491485058,76142,128,6428,0.46359783,128,0.535935823,7431,0.004543663,63,60288,5839.84375
5.470425543,75850,128,6090,0.439220719,128,0.59067614,8190,0,0,60928,5859.375
5.488672315,76103,128,6308,0.454943234,128,0.452346856,6272,5.05E-04,7,61568,5878.90625
5.522713724,76575,128,6598,0.475858507,128,0.451697761,6263,0.065702804,911,62208,5898.4375
5.59296019,77549,128,7140,0.514948429,128,0.589666437,8176,0.073564061,1020,62848,5917.96875
5.592815947,77547,128,7146,0.515381159,128,0.004471541,62,0.037503247,520,63488,5937.5
5.547523564,76919,128,7250,0.522881809,128,0.516967835,7168,0.003678203,51,64128,5957.03125
5.472156462,75874,128,6239,0.449966842,128,0.516967835,7168,0.006923676,96,64768,5976.5625
5.459318812,75696,128,6129,0.442033463,128,0.072698602,1008,0.036349301,504,65408,5996.09375
5.452827865,75606,128,6008,0.433306746,128,0.59024341,8184,0.02524257,350,512,6015.625
5.494081437,76178,128,5490,0.395947742,128,0.035772328,496,2.16E-04,3,1152,6035.15625
6.011265637,83349,128,12025,0.867262586,128,0.01817465,252,1.211571242,16799,1792,6054.6875
5.913468708,81993,128,12218,0.88118206,128,0.29533807,4095,0,0,2432,6074.21875
5.465593394,75783,128,6956,0.50167805,128,0.05625487,780,1.16368248,16135,3072,6093.75
5.548389023,76931,128,6601,0.476074872,128,0.226173428,3136,1.177241347,16323,3712,6113.28125
5.544205969,76873,128,6589,0.475209412,128,0.013775231,191,7.21E-05,1,4352,6132.8125
5.550336307,76958,128,6573,0.474055466,128,0.003389717,47,0.010313393,143,4992,6152.34375
5.539445941,76807,128,6516,0.469944533,128,0.447586828,6206,2.16E-04,3,5632,6171.875
5.576011607,77314,128,6721,0.484729467,128,0.560817785,7776,2.16E-04,3,6272,6191.40625
5.618274882,77900,128,7083,0.510837497,128,0.590748261,8191,4.33E-04,6,6912,6210.9375
5.652244169,78371,128,7524,0.542643135,128,0.035772328,496,0.036998396,513,7552,6230.46875
5.703306282,79079,128,8176,0.589666437,128,0.589666437,8176,0.009159447,127,8192,6250
5.757469625,79830,128,8726,0.629333333,128,0.909165252,12606,0.050773627,704,8832,6269.53125
5.824182132,80755,128,9553,0.68897792,128,1.163177629,16128,0.07349194,1019,9472,6289.0625
5.84935258,81104,128,9850,0.710398043,128,0.002163649,30,0.017886164,248,10112,6308.59375
5.852814418,81152,128,9630,0.694531285,128,1.181496523,16382,0.018463137,256,10752,6328.125
5.747084111,79686,128,8394,0.605388952,128,1.038695698,14402,1.179477117,16354,11392,6347.65625
5.595123839,77579,128,6826,0.492302238,128,0.002452135,34,1.177024982,16320,12032,6367.1875
5.549975699,76953,128,6493,0.468285736,128,0.590748261,8191,0.017958286,249,12672,6386.71875
5.502447546,76294,128,6196,0.446865612,128,0.443403774,6148,0,0,13312,6406.25
5.50706333,76358,128,6354,0.458260829,128,0.589666437,8176,0.037431125,519,13952,6425.78125
5.510380925,76404,128,6176,0.445423179,128,0.556202001,7712,0.03808022,528,14592,6445.3125
5.513842763,76452,128,6368,0.459270532,128,0.523891511,7264,0.039234166,544,15232,6464.84375
5.54911024,76941,128,6556,0.472829398,128,0.443980747,6156,0.010097028,140,15872,6484.375
5.538868968,76799,128,6547,0.472180304,128,0.461001451,6392,0.073780426,1023,16512,6503.90625
5.53627259,76763,128,6421,0.463092978,128,0.443620139,6151,0.073780426,1023,17152,6523.4375
5.533459846,76724,128,6574,0.474127588,128,0.157946367,2190,0.064620979,896,17792,6542.96875
5.5012936,76278,128,6295,0.454005653,128,0.517256322,7172,0.01817465,252,18432,6562.5
5.505188168,76332,128,6289,0.453572923,128,0.156936664,2176,0.004471541,62,19072,6582.03125
5.505188168,76332,128,6179,0.445639544,128,9.38E-04,13,0,0,19712,6601.5625
5.492855369,76161,0,6123,0.441600733,128,0,0,0.027694705,384,20352,6621.09375
5.492206275,76152,128,5949,0.42905157,128,0.313873328,4352,0.033392314,463,20992,6640.625
5.481460152,76003,128,6130,0.442105584,128,0.53535885,7423,0.001081824,15,21632,6660.15625
5.485138355,76054,128,6140,0.442826801,128,0.445351058,6175,0.027766827,385,22272,6679.6875
5.479296503,75973,128,5901,0.425589731,128,0.438715868,6083,0.019544961,271,22912,6699.21875
5.489393531,76113,128,6089,0.439148598,128,0.424363664,5884,0.004038811,56,23552,6718.75
5.480594692,75991,128,6044,0.435903124,128,0.576900909,7999,0.036854152,511,24192,6738.28125
5.506342114,76348,128,6256,0.45119291,128,0.43705707,6060,0.01817465,252,24832,6757.8125
5.559063024,77079,128,6520,0.47023302,128,0.444197112,6159,0.00223577,31,25472,6777.34375
5.618491247,77903,128,6906,0.498071968,128,0.516390862,7160,0.046085721,639,26112,6796.875
5.569809147,77228,128,7210,0.519996943,128,0.553894109,7680,0.037935977,526,26752,6816.40625
5.497399032,76224,128,6351,0.458044464,128,0.498504698,6912,1.172409197,16256,27392,6835.9375
5.458381231,75683,128,5912,0.426383069,128,0.59024341,8184,8.65E-04,12,28032,6855.46875
5.450664216,75576,128,5821,0.419820001,128,0.581011841,8056,0.004327298,60,28672,6875
5.442009621,75456,128,5819,0.419675758,128,0.554110474,7683,1.177024982,16320,29312,6894.53125
5.713619675,79222,128,7406,0.534132783,128,0.498504698,6912,0.145397204,2016,29952,6914.0625
6.145339745,85208,128,14644,1.056149132,128,0.293318664,4067,1.327542821,18407,30592,6933.59375
5.581781337,77394,128,5548,0.400130796,128,0.459775383,6375,1.174789211,16289,31232,6953.125
5.506919087,76356,128,7078,0.510476888,128,0.576900909,7999,0.032526855,451,31872,6972.65625
5.527257386,76638,128,6346,0.457683856,128,0.461794789,6403,0.009159447,127,32512,6992.1875
5.537210171,76776,128,6403,0.461794789,128,0.460135992,6380,0.02170861,301,33152,7011.71875
5.558918781,77077,128,6614,0.477012453,128,0.501966536,6960,0.02257407,313,33792,7031.25
5.577165553,77330,128,6764,0.487830697,128,0.451986248,6267,0.02877653,399,34432,7050.78125
5.593969893,77563,128,7073,0.51011628,128,0.499586523,6927,0.037431125,519,35072,7070.3125
5.637964086,78173,128,7485,0.539830391,128,0.519564214,7204,0.006995798,97,35712,7089.84375
5.650657493,78349,128,7779,0.56103415,128,0.574520895,7966,0,0,36352,7109.375
5.718307581,79287,128,8770,0.632506684,128,0.589666437,8176,0.064837344,899,36992,7128.90625
5.773408505,80051,128,9415,0.679025135,128,7.21E-05,1,0.055894262,775,37632,7148.4375
5.830096105,80837,128,10053,0.725038734,128,0.11510612,1596,0.038873558,539,38272,7167.96875
5.831538538,80857,128,9866,0.71155199,128,0.128953472,1788,0.009159447,127,38912,7187.5
5.768359991,79981,128,8745,0.630703644,128,1.179909847,16360,1.152719993,15983,39552,7207.03125
5.642579871,78237,128,7401,0.533772175,128,0.588656734,8162,2.16E-04,3,40192,7226.5625
5.560144849,77094,128,6621,0.477517304,128,0.482277332,6687,0.00223577,31,40832,7246.09375
5.511895479,76425,128,6270,0.452202612,128,0.443187409,6145,0.018391015,255,41472,7265.625
5.520838561,76549,128,6256,0.45119291,128,0.582598517,8078,0.039306288,545,42112,7285.15625
5.524516764,76600,128,6208,0.447731071,128,0.454582626,6303,0.016155245,224,42752,7304.6875
5.522064629,76566,128,6206,0.447586828,128,0.435903124,6044,0.001081824,15,43392,7324.21875
5.536777441,76770,128,6283,0.453140194,128,0.59067614,8190,0.00223577,31,44032,7343.75
5.556322403,77041,128,6574,0.474127588,128,0.582165787,8072,0.002524257,35,44672,7363.28125
5.542619293,76851,128,6534,0.471242722,128,0.47996944,6655,0.005192757,72,45312,7382.8125
5.544782942,76881,128,6444,0.464751776,128,0.461434181,6398,0.004327298,60,45952,7402.34375
5.512544574,76434,128,6123,0.441600733,128,0.58670945,8135,2.88E-04,4,46592,7421.875
5.519756737,76534,128,6325,0.456169302,128,0.560529299,7772,0.018463137,256,47232,7441.40625
5.526175562,76623,128,6362,0.458837802,128,0.516967835,7168,0.033897166,470,47872,7460.9375
5.510380925,76404,128,6302,0.454510505,128,0.576900909,7999,0.004471541,62,48512,7480.46875
5.498336613,76237,128,6019,0.434100084,128,0.572357246,7936,0.017525556,243,49152,7500
5.508361519,76376,128,6372,0.459559019,128,0.588512491,8160,5.77E-04,8,49792,7519.53125
5.492278396,76153,128,5979,0.431215218,128,0.435542516,6039,0.006851555,95,50432,7539.0625
5.51059729,76407,128,6332,0.456674153,128,0.444197112,6159,0.00973642,135,51072,7558.59375
5.497038424,76219,128,6127,0.44188922,128,0.586204599,8128,7.21E-05,1,51712,7578.125
5.486941396,76079,128,6174,0.445278936,128,0.443115287,6144,0.03584445,497,52352,7597.65625
5.537354414,76778,128,6469,0.466554817,128,0.589594315,8175,0.008654595,120,52992,7617.1875
5.583728621,77421,128,6585,0.474920925,128,0.590315532,8185,0.034041409,472,53632,7636.71875
5.641425924,78221,128,7144,0.515236916,128,0.588512491,8160,0.001081824,15,54272,7656.25
5.604066921,77703,128,7324,0.528218809,128,0.563342042,7811,0.008005501,111,54912,7675.78125
5.570530363,77238,128,7037,0.507519902,128,0.507519902,7037,5.05E-04,7,55552,7695.3125
5.485643206,76061,128,6164,0.44455772,128,0.554110474,7683,0.018391015,255,56192,7714.84375
5.484272895,76042,128,6247,0.450543815,128,0.443115287,6144,0.036854152,511,56832,7734.375
5.478431043,75961,128,5714,0.412102987,128,0.517039957,7169,0.002307892,32,57472,7753.90625
5.695012295,78964,128,5932,0.427825502,128,0.36486332,5059,0.014929177,207,58112,7773.4375
6.068746575,84146,128,14114,1.017924669,128,0.138473527,1920,1.475247917,20455,58752,7792.96875
5.63414164,78120,128,6298,0.454222018,128,1.181496523,16382,1.144786614,15873,59392,7812.5
5.525310102,76611,128,7091,0.51141447,128,0.585699747,8121,7.21E-05,1,60032,7832.03125
5.577309796,77332,128,6784,0.48927313,128,0.480257926,6659,0.016299488,226,60672,7851.5625
5.565914579,77174,128,6456,0.465617235,128,0.516967835,7168,0.003461838,48,61312,7871.09375
5.590868663,77520,128,6819,0.491797387,128,0.443764382,6153,0.04514814,626,61952,7890.625
5.59829719,77623,128,6840,0.493311941,128,0.444197112,6159,0.039234166,544,62592,7910.15625
5.654840547,78407,128,7344,0.529661242,128,0.518121781,7184,0,0,63232,7929.6875
5.666091522,78563,128,7400,0.533700053,128,0.588440369,8159,7.21E-05,1,63872,7949.21875
5.697248065,78995,128,7772,0.560529299,128,0.590531896,8188,0.001153946,16,64512,7968.75
5.767638775,79971,128,8643,0.623347238,128,0.004615784,64,0.069236764,960,65152,7988.28125
5.8334137,80883,128,9339,0.673543891,128,0.009159447,127,0.072698602,1008,256,8007.8125
5.908275951,81921,128,10197,0.735424249,128,0.057336695,795,0.072770723,1009,896,8027.34375
5.912747492,81983,128,10120,0.729870883,128,0.146334785,2029,1.181712887,16385,1536,8046.875
5.819422104,80689,128,8723,0.629116968,128,0.074068913,1027,1.165413399,16159,2176,8066.40625
5.701214755,79050,128,7608,0.548701352,128,0.581588814,8064,1.151782412,15970,2816,8085.9375
5.605004502,77716,128,6729,0.48530644,128,0.589522194,8174,1.181063793,16376,3456,8105.46875
5.579184959,77358,128,6629,0.478094277,128,0.588368248,8158,0.004543663,63,4096,8125
5.547523564,76919,128,6325,0.456169302,128,0.444341355,6161,0.008293987,115,4736,8144.53125
5.568438836,77209,128,6409,0.462227519,128,0.445351058,6175,2.16E-04,3,5376,8164.0625
5.569448539,77223,128,6348,0.457828099,128,0.443403774,6148,0.034618382,480,6016,8183.59375
5.609259678,77775,128,6636,0.478599129,128,0.452058369,6268,0.025963786,360,6656,8203.125
5.608754827,77768,128,6842,0.493456184,128,0.452202612,6270,0.03454626,479,7296,8222.65625
5.62087126,77936,128,6926,0.499514401,128,0.582598517,8078,0.001081824,15,7936,8242.1875
5.612649395,77822,128,6823,0.492085873,128,0.509539307,7065,0,0,8576,8261.71875
5.59252746,77543,128,6586,0.474993047,128,0.521006646,7224,0.016155245,224,9216,8281.25
5.594763231,77574,128,6647,0.479392466,128,0.482060967,6684,0.035628085,494,9856,8300.78125
5.609476043,77778,128,6855,0.494393765,128,0.572285124,7935,0.036349301,504,10496,8320.3125
5.570746728,77241,128,6481,0.467420276,128,0.451337153,6258,0.018246772,253,11136,8339.84375
5.577958891,77341,128,6568,0.473694858,128,0.583319734,8088,0.00396669,55,11776,8359.375
5.57925708,77359,128,6465,0.46626633,128,0.552091068,7655,4.33E-04,6,12416,8378.90625
5.555529065,77030,128,6276,0.452635342,128,0.455808694,6320,0.001875162,26,13056,8398.4375
5.581781337,77394,128,6504,0.469079074,128,0.479464588,6648,0.008654595,120,13696,8417.96875
5.562813349,77131,128,6499,0.468718465,128,0.443187409,6145,2.88E-04,4,14336,8437.5
5.5836565,77420,128,6543,0.471891817,128,0.477733669,6624,0.004327298,60,14976,8457.03125
5.567933985,77202,128,6355,0.458332951,128,0.447731071,6208,2.16E-04,3,15616,8476.5625
5.580771635,77380,128,6514,0.46980029,128,0.451769883,6264,2.88E-04,4,16256,8496.09375
5.583944986,77424,128,6458,0.465761479,128,0.44679349,6195,7.21E-05,1,16896,8515.625
5.581781337,77394,128,6430,0.463742073,128,0.553966231,7681,0.001009703,14,17536,8535.15625
5.660826643,78490,128,6959,0.501894415,128,0.590748261,8191,0.036782031,510,18176,8554.6875
5.690468632,78901,128,7261,0.523675147,128,0.517544808,7176,0.035772328,496,18816,8574.21875
5.722779122,79349,128,7474,0.539037053,128,0.58981068,8178,0.008582474,119,19456,8593.75
5.653686601,78391,128,7476,0.539181297,128,0.548989838,7612,0.039017801,541,20096,8613.28125
5.60803361,77758,128,6740,0.486099778,128,0.561971731,7792,0.032238368,447,20736,8632.8125
5.579545567,77363,128,6354,0.458260829,128,0.471026358,6531,0.007140041,99,21376,8652.34375
5.594042014,77564,128,6627,0.477950034,128,0.581588814,8064,0.037431125,519,22016,8671.875
5.664360602,78539,128,5358,0.386427687,128,0.590748261,8191,1.179332874,16352,22656,8691.40625
5.980109093,82917,128,10229,0.737732141,128,0.145397204,2016,0.156792421,2174,23296,8710.9375
6.140507596,85141,128,14073,1.014967682,128,0.147200244,2041,0.221629765,3073,23936,8730.46875
5.584810446,77436,128,6961,0.502038658,128,0.531320039,7367,1.163105507,16127,24576,8750
5.665875157,78560,128,7089,0.511270226,128,0.475209412,6589,0.004038811,56,25216,8769.53125
5.659312088,78469,128,6918,0.498937428,128,0.553894109,7680,0.006346703,88,25856,8789.0625
5.666163643,78564,128,6893,0.497134387,128,0.572285124,7935,0.017597677,244,26496,8808.59375
5.691045605,78909,128,7019,0.506221712,128,0.499586523,6927,0.0230068,319,27136,8828.125
5.694723808,78960,128,7222,0.520862403,128,0.071616777,993,0,0,27776,8847.65625
5.733885853,79503,128,7514,0.541921919,128,0.590171288,8183,0.009159447,127,28416,8867.1875
5.755522341,79803,128,7896,0.569472381,128,0.007140041,99,0.034690503,481,29056,8886.71875
5.787616466,80248,128,8256,0.595436167,128,1.038551454,14400,0,0,29696,8906.25
5.859593852,81246,128,9183,0.662292917,128,1.172192832,16253,0.006851555,95,30336,8925.78125
5.933374278,82269,128,10072,0.726409045,128,0.064476736,894,1.218350675,16893,30976,8945.3125
5.963088389,82681,128,10315,0.743934601,128,0.145469325,2017,1.21856704,16896,31616,8964.84375
5.966117497,82723,128,10188,0.734775154,128,0.144099014,1998,1.185318969,16435,32256,8984.375
5.802617765,80456,128,8348,0.602071357,128,0.037070517,514,1.16368248,16135,32896,9003.90625
5.733092515,79492,128,7673,0.553389258,128,0.0593561,823,5.77E-04,8,33536,9023.4375
5.639983492,78201,128,6803,0.490643441,128,0.00223577,31,0.027117732,376,34176,9042.96875
5.603489948,77695,128,6728,0.485234318,128,0.512135686,7101,0.009159447,127,34816,9062.5
5.598874163,77631,128,6846,0.493744671,128,0.498360455,6910,0.056471235,783,35456,9082.03125
5.597648096,77614,128,6558,0.472973642,128,0.558437772,7743,0.029858354,414,36096,9101.5625
5.602336002,77679,128,6743,0.486316143,128,0.560745664,7775,0.035123233,487,36736,9121.09375
5.620510652,77931,128,6982,0.503553212,128,0.586204599,8128,0.018318894,254,37376,9140.625
5.626280382,78011,128,7026,0.506726564,128,0.581660936,8065,7.21E-05,1,38016,9160.15625
5.632771329,78101,128,7312,0.52735335,128,0.555769271,7706,0,0,38656,9179.6875
5.590796541,77519,128,6773,0.488479792,128,0.508241118,7047,0.008077622,112,39296,9199.21875
5.592238974,77539,128,6888,0.496773779,128,0,0,0.018102529,251,39936,9218.75
5.576300094,77318,128,6789,0.489633738,128,0.580362747,8047,0.055389411,768,40576,9238.28125
5.569087931,77218,128,6779,0.488912521,128,0.452274734,6271,0.034618382,480,41216,9257.8125
5.551995105,76981,128,6809,0.49107617,128,0.51408297,7128,4.33E-04,6,41856,9277.34375
5.545504158,76891,128,6642,0.479031858,128,0.479897318,6654,0.008654595,120,42496,9296.875
5.527329508,76639,128,6529,0.470882114,128,0.583391855,8089,0.007212163,100,43136,9316.40625
5.53627259,76763,128,6789,0.489633738,128,0.55439896,7687,0.073780426,1023,43776,9335.9375
5.535262887,76749,128,6688,0.482349453,128,0.498504698,6912,0.033175949,460,44416,9355.46875
5.525237981,76610,128,6735,0.48573917,128,0.514659943,7136,0.055533654,770,45056,9375
5.520622196,76546,128,6731,0.485450683,128,0.581516693,8063,0.018463137,256,45696,9394.53125
5.550480551,76960,128,6869,0.495403468,128,0.516895713,7167,0.071761021,995,46336,9414.0625
5.614885165,77853,128,7360,0.530815188,128,0.534277026,7408,0.002091527,29,46976,9433.59375
5.645176249,78273,128,7509,0.54156131,128,0.541921919,7514,0.009231568,128,47616,9453.125
5.610413624,77791,128,7764,0.559952326,128,0.588584612,8161,0.004327298,60,48256,9472.65625
5.542114442,76844,128,7078,0.510476888,128,0.582093666,8071,2.88E-04,4,48896,9492.1875
5.500283897,76264,128,6648,0.479464588,128,0.47996944,6655,5.05E-04,7,49536,9511.71875
5.48268622,76020,128,6349,0.457900221,128,0.572285124,7935,0.017741921,246,50176,9531.25
5.509443344,76391,128,5946,0.428835205,128,0.53535885,7423,0.016155245,224,50816,9550.78125
5.723283973,79356,128,7658,0.552307433,128,0.036782031,510,0.110490335,1532,51456,9570.3125
6.026050571,83554,128,12199,0.879811749,128,0.035555963,493,1.403342653,19458,52096,9589.84375
5.657004196,78437,128,6367,0.45919841,128,0.457179005,6339,1.144714492,15872,52736,9609.375
5.571395823,77250,128,7197,0.519059362,128,0.587214301,8142,0.035628085,494,53376,9628.90625
5.538436239,76793,128,7013,0.505788983,128,0.59024341,8184,0.016083123,223,54016,9648.4375
5.542547171,76850,128,7034,0.507303537,128,0.479897318,6654,0.001730919,24,54656,9667.96875
5.559639997,77087,128,6983,0.503625334,128,0.57783849,8012,0.036854152,511,55296,9687.5
5.568583079,77211,128,7198,0.519131484,128,0.573366949,7950,0.03454626,479,55936,9707.03125
5.598369312,77624,128,7588,0.547258919,128,0.521439376,7230,0,0,56576,9726.5625
5.599955988,77646,128,7654,0.552018947,128,0.552740163,7664,0.035628085,494,57216,9746.09375
5.651955682,78367,128,8363,0.603153181,128,5.05E-04,7,0,0,57856,9765.625
5.690684997,78904,128,9084,0.655152876,128,0.073780426,1023,0.004038811,56,58496,9785.15625
5.731794325,79474,128,9656,0.696406447,128,0.092171442,1278,0.041397815,574,59136,9804.6875
5.787688588,80249,128,10381,0.748694628,128,1.145796316,15887,5.05E-04,7,59776,9824.21875
5.781702492,80166,128,10093,0.727923599,128,0.138401406,1919,0,0,60416,9843.75
5.700926268,79046,128,8302,0.598753762,128,0.05978883,829,1.165485521,16160,61056,9863.28125
5.618707611,77906,128,7540,0.543797081,128,0.590531896,8188,1.144714492,15872,61696,9882.8125
5.530502859,76683,128,6754,0.487109481,128,0.57343907,7951,1.146950262,15903,62336,9902.34375
5.502591789,76296,128,6601,0.476074872,128,0.590315532,8185,0,0,62976,9921.875
5.497903883,76231,128,6551,0.47246879,128,0.586925815,8138,0.004543663,63,63616,9941.40625
5.5012936,76278,128,6419,0.462948735,128,0.557355947,7728,0.002307892,32,64256,9960.9375
5.503313005,76306,128,6646,0.479320345,128,0.47996944,6655,0,0,64896,9980.46875
5.521487656,76558,128,6862,0.494898617,128,0.588512491,8160,0.0026685,37,0,10000
5.534469549,76738,128,7061,0.509250821,128,0.507808388,7041,0.032526855,451,640,10019.53125
5.526464048,76627,128,6847,0.493816792,128,0.590748261,8191,0.004543663,63,1280,10039.0625
5.520261588,76541,128,6856,0.494465887,128,0.516679349,7164,0.01817465,252,1920,10058.59375
5.511967601,76426,128,6723,0.48487371,128,0.493888914,6848,0.010097028,140,2560,10078.125
5.498120248,76234,128,6627,0.477950034,128,0.588728856,8163,0.016876461,234,3200,10097.65625
5.521271291,76555,128,6773,0.488479792,128,0.572429368,7937,0.019544961,271,3840,10117.1875
5.514275493,76458,128,6756,0.487253724,128,0.496341049,6882,0.027694705,384,4480,10136.71875
5.504178465,76318,128,6582,0.474704561,128,0.518554511,7190,0.002163649,30,5120,10156.25
5.498625099,76241,128,6479,0.467276033,128,0.443836503,6154,9.38E-04,13,5760,10175.78125
5.514491858,76461,128,6672,0.481195507,128,0.555048055,7696,0.012044312,167,6400,10195.3125
5.594402623,77569,128,7160,0.516390862,128,0.588512491,8160,0.045003896,624,7040,10214.84375
5.643156844,78245,128,7461,0.538099472,128,0.581660936,8065,0.012765528,177,7680,10234.375
5.619573071,77918,128,7648,0.551586217,128,0.59024341,8184,4.33E-04,6,8320,10253.90625
5.544061726,76871,128,7004,0.505139888,128,0.554038352,7682,0.018102529,251,8960,10273.4375
5.494586288,76185,128,6554,0.472685155,128,0.479897318,6654,0.001081824,15,9600,10292.96875
5.490908085,76134,128,6459,0.4658336,128,0.331398884,4595,0.008654595,120,10240,10312.5
5.48492199,76051,128,6331,0.456602032,128,0.581588814,8064,0,0,10880,10332.03125
5.729053703,79436,128,6568,0.473694858,128,0.47996944,6655,0.016732218,232,11520,10351.5625
6.200224304,85969,128,14699,1.060115821,128,0.464968141,6447,1.475897011,20464,12160,10371.09375
5.682535253,78791,128,6321,0.455880815,128,0.959938879,13310,1.135482923,15744,12800,10390.625
5.506774844,76354,128,7171,0.5171842,128,0,0,0,0,13440,10410.15625
5.558125443,77066,128,6629,0.478094277,128,0.034618382,480,0.01860738,258,14080,10429.6875
5.575795242,77311,128,6834,0.492879211,128,0.53312308,7392,0.028271678,392,14720,10449.21875
5.58589227,77451,128,6892,0.497062266,128,0.461434181,6398,0.046374207,643,15360,10468.75
5.599811745,77644,128,6978,0.503264726,128,0.454077775,6296,0.03231049,448,16000,10488.28125
5.619428828,77916,128,7209,0.519924822,128,0.516967835,7168,0.00663519,92,16640,10507.8125
5.645392614,78276,128,7534,0.543364351,128,0.019544961,271,0.008943082,124,17280,10527.34375
5.691983186,78922,128,7998,0.576828787,128,0.586060355,8126,5.77E-04,8,17920,10546.875
5.724726406,79376,128,8523,0.614692642,128,1.035017495,14351,0.055389411,768,18560,10566.40625
5.825768808,80777,128,9624,0.694098555,128,0,0,0.07219375,1001,19200,10585.9375
5.855122311,81184,128,9998,0.721072045,128,1.181568644,16383,0.018463137,256,19840,10605.46875
5.866878136,81347,128,9976,0.719485369,128,0.143594163,1991,0.043777829,607,20480,10625
5.825624564,80775,128,9059,0.653349835,128,1.171832224,16248,5.05E-04,7,21120,10644.53125
5.673592171,78667,128,7530,0.543075865,128,0.072698602,1008,1.173491022,16271,21760,10664.0625
5.597792339,77616,128,6888,0.496773779,128,0.452202612,6270,0,0,22400,10683.59375
5.554375119,77014,128,6634,0.478454885,128,0.445134693,6172,0.030074719,417,23040,10703.125
5.539590185,76809,128,6502,0.46893483,128,0.580651233,8051,8.65E-04,12,23680,10722.65625
5.548533267,76933,128,6598,0.475858507,128,0.477950034,6627,0.016515853,229,24320,10742.1875
5.554952092,77022,128,6653,0.479825196,128,0.444846206,6168,0.004543663,63,24960,10761.71875
5.566924282,77188,128,6706,0.483647643,128,0.447298342,6202,0.027983192,388,25600,10781.25
5.573847958,77284,128,6934,0.500091374,128,0.586132477,8127,0.037070517,514,26240,10800.78125
5.573126742,77274,128,6908,0.498216212,128,0.572213003,7934,0.036854152,511,26880,10820.3125
5.558341808,77069,128,6753,0.487037359,128,0.51141447,7091,0.002019406,28,27520,10839.84375
5.563823052,77145,128,6922,0.499225914,128,0.586204599,8128,0.034329895,476,28160,10859.375
5.561226673,77109,128,6819,0.491797387,128,0.011755825,163,0.004399419,61,28800,10878.90625
5.542186563,76845,128,6691,0.482565818,128,0.553966231,7681,0,0,29440,10898.4375
5.554591483,77017,128,6547,0.472180304,128,0.583824585,8095,0.001803041,25,30080,10917.96875
5.551057524,76968,128,6688,0.482349453,128,0.572357246,7936,5.05E-04,7,30720,10937.5
5.552355713,76986,128,6623,0.477661547,128,0.531897012,7375,0.004471541,62,31360,10957.03125
5.553942389,77008,128,6631,0.47823852,128,0.553821987,7679,0.009015204,125,32000,10976.5625
5.53187317,76702,128,6481,0.467420276,128,0.001226068,17,0.02791107,387,32640,10996.09375
5.615822746,77866,128,7036,0.50744778,128,0.557283826,7727,0.011250974,156,33280,11015.625
5.669986089,78617,128,7525,0.542715257,128,0.535503094,7425,0.055966384,776,33920,11035.15625
5.652821142,78379,128,7387,0.532762472,128,0.588151883,8155,0.056471235,783,34560,11054.6875
5.584810446,77436,128,7298,0.526343647,128,2.16E-04,3,7.21E-05,1,35200,11074.21875
5.523723426,76589,128,6605,0.476363358,128,0.58627672,8129,9.38E-04,13,35840,11093.75
5.508938492,76384,128,6304,0.454654748,128,0.549278325,7616,0.013847353,192,36480,11113.28125
5.514996709,76468,128,6336,0.45696264,128,0.017309191,240,0,0,37120,11132.8125
5.614885165,77853,128,5128,0.369839712,128,0.312647261,4335,1.152792114,15984,37760,11152.34375
5.974411485,82838,128,11102,0.800694323,128,0.057625181,799,1.197651767,16606,38400,11171.875
6.049345857,83877,128,13517,0.974868056,128,0.125491634,1740,0.146623271,2033,39040,11191.40625
5.515717926,76478,128,6968,0.502543509,128,0.479464588,6648,1.176880738,16318,39680,11210.9375
5.584233473,77428,128,6864,0.49504286,128,0.008654595,120,0.008943082,124,40320,11230.46875
5.59959538,77641,128,6757,0.487325846,128,0.00223577,31,0.020410421,283,40960,11250
5.580338905,77374,128,6714,0.484224616,128,0.259060891,3592,0.004471541,62,41600,11269.53125
5.610197259,77788,128,6944,0.50081259,128,0.499081671,6920,0.006851555,95,42240,11289.0625
5.630463437,78069,128,6994,0.504418672,128,0.573655435,7954,0.017669799,245,42880,11308.59375
5.644166546,78259,128,7181,0.517905416,128,0.572862097,7943,0.028848652,400,43520,11328.125
5.70409962,79090,128,7787,0.561611123,128,0.073780426,1023,0.018102529,251,44160,11347.65625
5.719461527,79303,128,8114,0.585194896,128,0.147128123,2040,0.005120636,71,44800,11367.1875
5.800381994,80425,128,9058,0.653277713,128,0.027622584,383,0.055461533,769,45440,11386.71875
5.859665973,81247,128,9772,0.704772556,128,0.058562763,812,0.027622584,383,46080,11406.25
5.895438301,81743,128,10203,0.735856978,128,0.015217664,211,0.035772328,496,46720,11425.78125
5.896303761,81755,128,9811,0.7075853,128,0.129458324,1795,0.006851555,95,47360,11445.3125
5.728260366,79425,128,7848,0.566010543,128,0.008005501,111,1.164259453,16143,48000,11464.84375
5.62750645,78028,128,7068,0.509755672,128,0.018318894,254,1.181568644,16383,48640,11484.375
5.588632892,77489,128,6611,0.476796088,128,0.478959737,6641,0.001803041,25,49280,11503.90625
5.551057524,76968,128,6432,0.463886316,128,0,0,5.77E-04,8,49920,11523.4375
5.550264186,76957,128,6480,0.467348154,128,0.443115287,6144,0.011467339,159,50560,11542.96875
5.56995339,77230,128,6438,0.464319046,128,0.545816487,7568,0.036926274,512,51200,11562.5
5.574569175,77294,128,6522,0.470377263,128,0.294833218,4088,0.001009703,14,51840,11582.03125
5.583944986,77424,128,6456,0.465617235,128,0.563053556,7807,0.018318894,254,52480,11601.5625
5.608105732,77759,128,6777,0.488768278,128,0.444197112,6159,0.06685675,927,53120,11621.09375
5.621448233,77944,128,6849,0.493961035,128,0.017309191,240,0.008654595,120,53760,11640.625
5.599955988,77646,128,6673,0.481267629,128,0.555048055,7696,0.023511651,326,54400,11660.15625
5.592671703,77545,128,6781,0.489056765,128,0.563053556,7807,0.018246772,253,55040,11679.6875
5.570963093,77244,128,6546,0.472108182,128,0.589666437,8176,0.02877653,399,55680,11699.21875
5.581564973,77391,128,6583,0.474776682,128,0.160903354,2231,0.038008098,527,56320,11718.75
5.577165553,77330,128,6465,0.46626633,128,0.573511192,7952,5.05E-04,7,56960,11738.28125
5.566347309,77180,128,6527,0.470737871,128,0.590748261,8191,0.009087325,126,57600,11757.8125
5.566491552,77182,128,6476,0.467059668,128,0.294256245,4080,0.018391015,255,58240,11777.34375
5.556899376,77049,128,6401,0.461650546,128,0.517039957,7169,0.017886164,248,58880,11796.875
5.55711574,77052,128,6516,0.469944533,128,0.553028649,7668,0.009159447,127,59520,11816.40625
5.556683011,77046,128,6349,0.457900221,128,0.457323248,6341,0.004471541,62,60160,11835.9375
5.559279389,77082,128,6556,0.472829398,128,0.526199404,7296,5.77E-04,8,60800,11855.46875
5.570025512,77231,128,6446,0.464896019,128,0.009159447,127,0.034906868,484,61440,11875
5.561443038,77112,128,6538,0.471531209,128,0.553317136,7672,0.022501948,312,62080,11894.53125
5.588055919,77481,128,6677,0.481556115,128,0.293535029,4070,0.036854152,511,62720,11914.0625
5.63724287,78163,128,6904,0.497927725,128,0.562837191,7804,0,0,63360,11933.59375
5.68109282,78771,128,7283,0.525261822,128,0.08193017,1136,0.031949882,443,64000,11953.125
5.663423021,78526,128,7696,0.555048055,128,0.129241959,1792,0.011395217,158,64640,11972.65625
5.615822746,77866,128,7193,0.518770876,128,0.073924669,1025,0.002307892,32,65280,11992.1875
5.550192064,76956,128,6324,0.45609718,128,0.269157919,3732,0.002019406,28,384,12011.71875
5.534253184,76735,128,6201,0.44722622,128,0.517039957,7169,0.010313393,143,1024,12031.25
5.550336307,76958,128,6399,0.461506303,128,0.147632974,2047,0.031733517,440,1664,12050.78125
5.703378404,79080,128,5415,0.39053862,128,0.109696997,1521,0,0,2304,12070.3125
6.152840394,85312,128,13308,0.959794636,128,0.073564061,1020,1.181640766,16384,2944,12089.84375
5.784226749,80201,128,7064,0.509467186,128,0.175976774,2440,1.116442813,15480,3584,12109.375
5.548605388,76934,128,7221,0.520790281,128,0.590531896,8188,0,0,4224,12128.90625
5.609548165,77779,128,6579,0.474488196,128,0.460640843,6387,0.032526855,451,4864,12148.4375
5.61510153,77856,128,6547,0.472180304,128,0.581660936,8065,0.004327298,60,5504,12167.96875
5.641930776,78228,128,6977,0.503192604,128,0.461650546,6401,0.036637787,508,6144,12187.5
5.649431425,78332,128,7040,0.507736267,128,0.461001451,6392,0.036637787,508,6784,12207.03125
5.657436926,78443,128,7124,0.513794483,128,0.525622431,7288,0.055389411,768,7424,12226.5625
5.684482537,78818,128,7284,0.525333944,128,0.003894568,54,0.071544656,992,8064,12246.09375
5.710662688,79181,128,7708,0.555913515,128,0.556057758,7710,0.004615784,64,8704,12265.625
5.77759156,80109,128,8556,0.617072656,128,2.88E-04,4,0.018246772,253,9344,12285.15625
5.837740998,80943,128,9289,0.66993781,128,1.112404002,15424,0.004543663,63,9984,12304.6875
5.888081895,81641,128,9960,0.718331423,128,0.04384995,608,0.053658492,744,10624,12324.21875
5.904958356,81875,128,10053,0.725038734,128,0.062673695,869,0.03454626,479,11264,12343.75
5.838822822,80958,128,8866,0.639430361,128,1.134256856,15727,0.00223577,31,11904,12363.28125
5.740881651,79600,128,7843,0.565649934,128,0.274711284,3809,1.181352279,16380,12544,12382.8125
5.648926574,78325,128,6941,0.500596225,128,0.572357246,7936,1.180558941,16369,13184,12402.34375
5.586108635,77454,128,6509,0.469439682,128,0.008943082,124,5.05E-04,7,13824,12421.875
5.586397122,77458,128,6608,0.476579723,128,0.03231049,448,1.44E-04,2,14464,12441.40625
5.580194662,77372,128,6651,0.479680953,128,0.29533807,4095,0.00223577,31,15104,12460.9375
5.560577579,77100,128,6438,0.464319046,128,0.47333425,6563,8.65E-04,12,15744,12480.46875
5.594330501,77568,128,6681,0.481844602,128,0.443764382,6153,0.018463137,256,16384,12500
5.591806244,77533,128,6781,0.489056765,128,0.590531896,8188,0.018391015,255,17024,12519.53125
5.594042014,77564,128,6908,0.498216212,128,0.073419818,1018,0.027694705,384,17664,12539.0625
5.589209865,77497,128,6974,0.502976239,128,0.059933074,831,0.004327298,60,18304,12558.59375
5.569448539,77223,128,6706,0.483647643,128,1.44E-04,2,0.017814042,247,18944,12578.125
5.552860564,76993,128,6789,0.489633738,128,0.553966231,7681,0.013847353,192,19584,12597.65625
5.542186563,76845,128,6583,0.474776682,128,0.475353655,6591,9.38E-04,13,20224,12617.1875
5.531368319,76695,128,6579,0.474488196,128,0.035988693,499,0.071472534,991,20864,12636.71875
5.535984103,76759,128,6621,0.477517304,128,0.457323248,6341,0.073780426,1023,21504,12656.25
5.527329508,76639,128,6618,0.477300939,128,0.156936664,2176,0.046085721,639,22144,12675.78125
5.520045223,76538,128,6523,0.470449385,128,0.0230068,319,0.045725113,634,22784,12695.3125
5.506702722,76353,128,6566,0.473550615,128,0.461434181,6398,0.046085721,639,23424,12714.84375
5.507279695,76361,128,6438,0.464319046,128,0.576828787,7998,0.042119031,584,24064,12734.375
5.498264491,76236,128,6553,0.472613033,128,0.461506303,6399,0.036782031,510,24704,12753.90625
5.49999541,76260,128,6664,0.480618534,128,0.480618534,6664,0.009087325,126,25344,12773.4375
5.56728489,77193,128,7029,0.506942929,128,0.452130491,6269,7.21E-05,1,25984,12792.96875
5.628155545,78037,128,7424,0.535430972,128,0.018463137,256,7.21E-05,1,26624,12812.5
5.588849257,77492,128,7544,0.544085567,128,0.581011841,8056,0.012693407,176,27264,12832.03125
5.525310102,76611,128,7082,0.510765375,128,0.535430972,7424,0.00223577,31,27904,12851.5625
5.483191071,76027,128,6569,0.473766979,128,0.517905416,7181,0.018391015,255,28544,12871.09375
5.468045529,75817,128,6584,0.474848804,128,0.443115287,6144,6.49E-04,9,29184,12890.625
5.449654514,75562,128,6287,0.45342868,128,0.518049659,7183,0.027694705,384,29824,12910.15625
5.542402928,76848,128,5270,0.380080984,128,0.309690274,4294,1.166639467,16176,30464,12929.6875
6.139786379,85131,128,14754,1.064082511,128,0.161480327,2239,1.181712887,16385,31104,12949.21875
5.844448309,81036,128,9136,0.6589032,128,0.066351898,920,1.154234547,16004,31744,12968.75
5.480594692,75991,128,7395,0.533339445,128,0.525261822,7283,0.01550615,215,32384,12988.28125
5.511534871,76420,128,6939,0.500451982,128,0.444846206,6168,4.33E-04,6,33024,13007.8125
5.506053627,76344,128,6824,0.492157995,128,0.009231568,128,0.002019406,28,33664,13027.34375
5.519179764,76526,128,7013,0.505788983,128,0.285024677,3952,0.018318894,254,34304,13046.875
5.539950793,76814,128,7113,0.513001145,128,0.008654595,120,0.001081824,15,34944,13066.40625
5.561443038,77112,128,7510,0.541633432,128,0.574016043,7959,5.77E-04,8,35584,13085.9375
5.572333404,77263,128,7559,0.545167392,128,0.553245014,7671,0.033392314,463,36224,13105.46875
5.603057218,77689,128,8273,0.596662235,128,0.008077622,112,0.055389411,768,36864,13125
5.631977991,78090,128,8729,0.629549698,128,0.039162044,543,2.16E-04,3,37504,13144.53125
5.685275875,78829,128,9449,0.68147727,128,0.002307892,32,0.072410115,1004,38144,13164.0625
5.749031395,79713,128,10372,0.748045534,128,1.047783023,14528,0.071616777,993,38784,13183.59375
5.788265561,80257,128,10675,0.769898387,128,1.135699288,15747,0.018391015,255,39424,13203.125
5.724221554,79369,128,9699,0.699507677,128,0.996937275,13823,5.77E-04,8,40064,13222.65625
5.51723248,76499,128,7271,0.524396363,128,0.576612422,7995,5.05E-04,7,41344,13261.71875
5.464511569,75768,128,6961,0.502038658,128,0.586637328,8134,0.00223577,31,41984,13281.25
5.445399337,75503,128,6887,0.496701657,128,0.450038964,6240,0.018391015,255,42624,13300.78125
5.447130257,75527,128,6952,0.501389563,128,0.586420964,8131,0.004255176,59,43264,13320.3125
5.462852772,75745,128,7066,0.509611429,128,0.451769883,6264,0.011467339,159,43904,13339.84375
5.454847271,75634,128,6963,0.502182901,128,0.443115287,6144,0,0,44544,13359.375
5.450303608,75571,128,7168,0.516967835,128,0.588584612,8161,0.035195355,488,45184,13378.90625
5.466098245,75790,128,7357,0.530598823,128,0.588728856,8163,0.028199557,391,45824,13398.4375
5.436888985,75385,128,7154,0.515958132,128,0.5171842,7171,0.017309191,240,46464,13417.96875
5.430542282,75297,128,7136,0.514659943,128,0.589882802,8179,0.006923676,96,47104,13437.5
5.450015122,75567,128,7272,0.524468484,128,0.447298342,6202,7.21E-05,1,47744,13457.03125
5.421094349,75166,128,7039,0.507664145,128,0.590748261,8191,0.00223577,31,48384,13476.5625
5.420517376,75158,128,7051,0.508529604,128,0.553966231,7681,0.004327298,60,49024,13496.09375
5.392462062,74769,128,6824,0.492157995,128,0.450038964,6240,0.004327298,60,49664,13515.625
5.407751847,74981,128,7001,0.504923523,128,0.572862097,7943,0,0,50304,13535.15625
5.394986319,74804,128,6914,0.498648941,128,0.568029948,7876,0.001947284,27,50944,13554.6875
5.386908697,74692,128,6979,0.503336847,128,0.588512491,8160,0.035772328,496,51584,13574.21875
5.38085048,74608,128,6724,0.484945832,128,0.590315532,8185,0.001081824,15,52224,13593.75
5.367507978,74423,128,6819,0.491797387,128,0.443331652,6147,0.01817465,252,52864,13613.28125
5.372844979,74497,128,6788,0.489561616,128,0.554326839,7686,5.05E-04,7,53504,13632.8125
5.371186181,74474,128,6794,0.489994346,128,0.590748261,8191,0.033320192,462,54144,13652.34375
5.376234695,74544,128,7041,0.507808388,128,0.580651233,8051,0.017958286,249,54784,13671.875
5.417993119,75123,128,7225,0.521078768,128,0.590748261,8191,0.00223577,31,55424,13691.40625
5.481099544,75998,128,7713,0.556274123,128,0.521511498,7231,0.009159447,127,56064,13710.9375
5.464872177,75773,128,7718,0.556634731,128,0.590531896,8188,0,0,56704,13730.46875
5.405299712,74947,128,7636,0.550720757,128,0.590459775,8187,0.009447933,131,57344,13750
5.360584302,74327,128,6843,0.493528306,128,0.519131484,7198,1.163177629,16128,57984,13769.53125
5.354670328,74245,128,6929,0.499730766,128,0.583824585,8095,7.21E-05,1,58624,13789.0625
5.32949988,73896,128,6433,0.463958438,128,0.545816487,7568,0.001081824,15,59264,13808.59375
5.388351129,74712,128,5911,0.426310948,128,0.516895713,7167,1.18048682,16368,59904,13828.125
5.950611347,82508,128,13440,0.969314691,128,0.010097028,140,0.299953854,4159,60544,13847.65625
5.776509735,80094,128,12574,0.90685736,128,0.147632974,2047,0.147416609,2044,61184,13867.1875
5.347313922,74143,128,7547,0.544301932,128,0.444846206,6168,1.163177629,16128,61824,13886.71875
5.427945903,75261,128,7292,0.525910917,128,0.519780579,7207,0.004399419,61,62464,13906.25
5.415468862,75088,128,6998,0.504707158,128,0.572862097,7943,0.008077622,112,63104,13925.78125
5.445832067,75509,128,7398,0.53355581,128,0.525261822,7283,5.05E-04,7,63744,13945.3125
5.439124756,75416,128,7233,0.521655741,128,0.444197112,6159,0,0,64384,13964.84375
5.457083041,75665,128,7496,0.540623729,128,0.572573611,7939,0.036782031,510,65024,13984.375
5.499634802,76255,128,7834,0.56500084,128,0.590748261,8191,0.00223577,31,128,14003.90625
5.535984103,76759,128,8235,0.593921613,128,0.590531896,8188,0.008654595,120,768,14023.4375
5.572333404,77263,128,8765,0.632146076,128,1.035810832,14362,0.018391015,255,1408,14042.96875
5.659600575,78473,128,9674,0.697704637,128,1.181496523,16382,0.004543663,63,2048,14062.5
5.721048203,79325,128,10471,0.755185575,128,0,0,0.071544656,992,2688,14082.03125
5.738501637,79567,128,10622,0.766075941,128,0.004543663,63,0.009159447,127,3328,14101.5625
5.696959579,78991,128,10034,0.723668423,128,0.01637161,227,1.171687981,16246,3968,14121.09375
5.604139042,77704,128,8852,0.638420658,128,1.112404002,15424,1.179837725,16359,4608,14140.625
5.451241189,75584,128,7548,0.544374054,128,0.555985636,7709,1.180703185,16371,5248,14160.15625
5.408256699,74988,128,7116,0.51321751,128,0.524324241,7270,1.181352279,16380,5888,14179.6875
5.368806168,74441,128,6954,0.501533807,128,0.573222706,7948,0.018967988,263,6528,14199.21875
5.36844556,74436,128,6924,0.499370158,128,0.563053556,7807,0.008077622,112,7168,14218.75
5.369311019,74448,128,6911,0.498432576,128,0.572285124,7935,0.009087325,126,7808,14238.28125
5.396500873,74825,128,7093,0.511558713,128,0.587358545,8144,0.034618382,480,8448,14257.8125
5.408617307,74993,128,7189,0.518482389,128,0.574448773,7965,0.017309191,240,9088,14277.34375
5.421454957,75171,128,7331,0.528723661,128,0.577045152,8001,0.001803041,25,9728,14296.875
5.417488267,75116,128,7348,0.529949728,128,0.573366949,7950,0,0,10368,14316.40625
5.417488267,75116,128,7186,0.518266024,128,0.526127282,7295,0.004543663,63,11008,14335.9375
5.418786456,75134,128,7255,0.523242417,128,0.588296126,8157,0.019544961,271,11648,14355.46875
5.383158372,74640,128,7068,0.509755672,128,0.582526396,8077,7.21E-05,1,12288,14375
5.365200086,74391,128,6976,0.503120482,128,0.574593016,7967,0,0,12928,14394.53125
5.369960114,74457,128,6858,0.49461013,128,0.587286423,8143,0.006346703,88,13568,14414.0625
5.376523182,74548,128,6973,0.502904117,128,0.574016043,7959,0.027117732,376,14208,14433.59375
5.367940708,74429,128,6834,0.492879211,128,0.590748261,8191,0.011467339,159,14848,14453.125
5.353516382,74229,128,6866,0.495187103,128,0.588151883,8155,0.01817465,252,15488,14472.65625
5.373638317,74508,128,6818,0.491725265,128,0.479464588,6648,0.003606081,50,16128,14492.1875
5.366426154,74408,128,6869,0.495403468,128,0.590748261,8191,0.014929177,207,16768,14511.71875
5.356761856,74274,128,6816,0.491581022,128,0.581805179,8067,8.65E-04,12,17408,14531.25
5.355319423,74254,128,6689,0.482421575,128,0.57473726,7969,0,0,18048,14550.78125
5.362098856,74348,128,6817,0.491653143,128,0.55439896,7687,0.00223577,31,18688,14570.3125
5.365777059,74399,128,6758,0.487397967,128,0.554038352,7682,0.016083123,223,19328,14589.84375
5.373421952,74505,128,6797,0.490210711,128,0.573222706,7948,0.008149744,113,19968,14609.375
5.418570092,75131,128,7068,0.509755672,128,0.478815493,6639,2.16E-04,3,20608,14628.90625
5.487085639,76081,128,7694,0.554903812,128,0.590748261,8191,0.016732218,232,21248,14648.4375
5.50482756,76327,128,7868,0.567452975,128,0.517977538,7182,0.002307892,32,21888,14667.96875
5.445399337,75503,128,7581,0.546754068,128,0.585843991,8123,0.011827947,164,22528,14687.5
5.400756049,74884,128,6898,0.497494995,128,0.519203606,7199,0.003461838,48,23168,14707.03125
5.378831074,74580,128,6729,0.48530644,128,0.55483169,7693,0.018463137,256,23808,14726.5625
5.364695235,74384,128,6505,0.469151195,128,0.57343907,7951,0.027406219,380,24448,14746.09375
5.4269362,75247,128,5743,0.414194514,128,0.528723661,7331,0.004255176,59,25088,14765.625
5.982777593,82954,128,13588,0.979988692,128,5.77E-04,8,0.295482313,4097,25728,14785.15625
5.755955071,79809,128,12300,0.887096034,128,0.147632974,2047,1.208181525,16752,26368,14804.6875
5.397799062,74843,128,7516,0.542066162,128,0.499514401,6926,1.153657574,15996,27008,14824.21875
5.4782868,75959,128,7314,0.527497593,128,0.557428069,7729,0,0,27648,14843.75
5.475329813,75918,128,7178,0.517689051,128,0.517544808,7176,0.014280082,198,28288,14863.28125
5.486003814,76066,128,7146,0.515381159,128,0.516246619,7158,0.033392314,463,28928,14882.8125
5.510813655,76410,128,7398,0.53355581,128,0.562981434,7806,0.039089923,542,29568,14902.34375
5.530214373,76679,128,7353,0.530310336,128,0.590748261,8191,0.035628085,494,30208,14921.875
5.568871566,77215,128,7829,0.564640232,128,0.587935518,8152,2.16E-04,3,30848,14941.40625
5.597720217,77615,128,8000,0.57697303,128,0.554110474,7683,0.041397815,574,31488,14960.9375
5.649359304,78331,128,8676,0.625727251,128,1.108365191,15368,7.21E-05,1,32128,14980.46875
5.694435322,78956,128,9195,0.663158377,128,0.071761021,995,0.001009703,14,32768,15000
5.782640074,80179,128,10280,0.741410344,128,0.058130033,806,0.071256169,988,33408,15019.53125
5.819422104,80689,128,10468,0.75496921,128,0.017597677,244,0.031733517,440,34048,15039.0625
5.785669182,80221,128,9998,0.721072045,128,0.009159447,127,0.017309191,240,34688,15058.59375
5.687223159,78856,128,8558,0.617216899,128,0.002740622,38,1.145796316,15887,35328,15078.125
5.555096335,77024,128,7441,0.53665704,128,0.552956528,7667,0.006851555,95,35968,15097.65625
5.489105044,76109,128,6909,0.498288333,128,0.516679349,7164,0.001081824,15,36608,15117.1875
5.471579489,75866,128,6859,0.494682252,128,0.581660936,8065,1.44E-04,2,37248,15136.71875
5.464944299,75774,128,6774,0.488551913,128,0.553317136,7672,5.05E-04,7,37888,15156.25
5.477565584,75949,128,6647,0.479392466,128,0.461506303,6399,0.004543663,63,38528,15175.78125
5.492783248,76160,128,6746,0.486532508,128,0.588728856,8163,0.020482543,284,39168,15195.3125
5.503817857,76313,128,6893,0.497134387,128,0.447442585,6204,6.49E-04,9,39808,15214.84375
5.510741533,76409,128,7015,0.505933226,128,0.500235617,6936,0.00223577,31,40448,15234.375
5.530502859,76683,128,7176,0.517544808,128,0.587935518,8152,0.034618382,480,41088,15253.90625
5.499851167,76258,128,6900,0.497639239,128,0.588728856,8163,0,0,41728,15273.4375
5.496822059,76216,128,6789,0.489633738,128,0.576684544,7996,0.016155245,224,42368,15292.96875
5.493360221,76168,128,6835,0.492951333,128,0.558437772,7743,0.027694705,384,43008,15312.5
5.487734734,76090,128,6765,0.487902819,128,0.572213003,7934,0.02127588,295,43648,15332.03125
5.474824962,75911,128,6611,0.476796088,128,0.54949469,7619,0,0,44288,15351.5625
5.469055232,75831,128,6734,0.485667048,128,0.553894109,7680,0.001442433,20,44928,15371.09375
5.475329813,75918,128,6613,0.476940331,128,0.444774085,6167,0.009447933,131,45568,15390.625
5.47518557,75916,128,6604,0.476291236,128,0.535286729,7422,0.009159447,127,46208,15410.15625
5.478935895,75968,128,6739,0.486027656,128,0.446649247,6193,0.03231049,448,46848,15429.6875
5.463862474,75759,128,6369,0.459342654,128,0.523891511,7264,0.003822446,53,47488,15449.21875
5.478575287,75963,128,6690,0.482493697,128,0.58670945,8135,0.008582474,119,48128,15468.75
5.473166165,75888,128,6582,0.474704561,128,0.590748261,8191,0,0,48768,15488.28125
5.559423633,77084,128,7147,0.515453281,128,0.589666437,8176,0.072698602,1008,49408,15507.8125
5.594835352,77575,128,7425,0.535503094,128,0.544734662,7553,0.055894262,775,50048,15527.34375
5.576227972,77317,128,7657,0.552235312,128,0.544374054,7548,0.030146841,418,50688,15546.875
5.538868968,76799,128,7391,0.533050958,128,0.52605516,7294,0.00223577,31,51328,15566.40625
5.480666814,75992,128,6495,0.468429979,128,0.516895713,7167,0.009159447,127,51968,15585.9375
5.496677816,76214,128,6604,0.476291236,128,0.552451676,7660,0.016299488,226,52608,15605.46875
5.474824962,75911,128,6394,0.461145694,128,0.590387653,8186,0.00973642,135,53248,15625
5.611639692,77808,128,5272,0.380225227,128,0.441961341,6128,1.16721644,16184,53888,15644.53125
5.982416985,82949,128,12014,0.866469248,128,0.261801512,3630,1.182145617,16391,54528,15664.0625
5.78336129,80189,128,8006,0.57740576,128,1.05694247,14655,0.073564061,1020,55168,15683.59375
5.506342114,76348,128,7211,0.520069065,128,0.576900909,7999,0.004471541,62,55808,15703.125
5.57392008,77285,128,6897,0.497422874,128,0.514659943,7136,0.009375812,130,56448,15722.65625
5.569304296,77221,128,6851,0.494105279,128,0.554759569,7692,0.034690503,481,57088,15742.1875
5.585387419,77444,128,6871,0.495547711,128,0.461506303,6399,0.009231568,128,57728,15761.71875
5.597864461,77617,128,7046,0.508168996,128,0.575963327,7986,0.010097028,140,58368,15781.25
5.631401018,78082,128,7374,0.531824891,128,0.559014745,7751,0,0,59008,15800.78125
5.657509048,78444,128,7552,0.544662541,128,0.003173352,44,0.036926274,512,59648,15820.3125
5.681597672,78778,128,7851,0.566226908,128,0.565649934,7843,0.073419818,1018,60288,15839.84375
5.740737407,79598,128,8704,0.627746657,128,1.17695286,16319,0.036349301,504,60928,15859.375
5.803338981,80466,128,9494,0.684722744,128,0.110634579,1534,0.008221866,114,61568,15878.90625
5.882456408,81563,128,10542,0.760306211,128,1.15394606,16000,0.074357399,1031,62208,15898.4375
5.897890436,81777,128,10464,0.754680724,128,0.148209947,2055,0.069236764,960,62848,15917.96875
5.885413395,81604,128,9901,0.714076247,128,0.055317289,767,5.05E-04,7,63488,15937.5
5.746723502,79681,128,8081,0.582814882,128,0.035123233,487,1.172409197,16256,64128,15957.03125
5.657076318,78438,128,7131,0.514299335,128,0.516895713,7167,1.179332874,16352,64768,15976.5625
5.594402623,77569,128,6664,0.480618534,128,0.55569715,7705,0.017164948,238,65408,15996.09375
5.583079527,77412,128,6664,0.480618534,128,0.572357246,7936,0.008510352,118,512,16015.625
5.578391621,77347,128,6619,0.477373061,128,0.581588814,8064,0.036637787,508,1152,16035.15625
5.601254177,77664,128,6694,0.482782183,128,0.524107876,7267,0.004687906,65,1792,16054.6875
5.595123839,77579,128,6729,0.48530644,128,0.561755367,7789,0.032526855,451,2432,16074.21875
5.605292988,77720,128,6761,0.487614332,128,0.555625028,7704,0.001081824,15,3072,16093.75
5.634718613,78128,128,7033,0.507231415,128,0.004543663,63,0.003461838,48,3712,16113.28125
5.621159747,77940,128,6956,0.50167805,128,0.452274734,6271,0.008077622,112,4352,16132.8125
5.61510153,77856,128,6893,0.497134387,128,0.590748261,8191,0.003461838,48,4992,16152.34375
5.603345704,77693,128,6709,0.483864007,128,0.496124684,6879,7.21E-05,1,5632,16171.875
5.607889367,77756,128,6899,0.497567117,128,0.589882802,8179,0.073564061,1020,6272,16191.40625
5.58719046,77469,128,6574,0.474127588,128,0.579785774,8039,0.036421423,505,6912,16210.9375
5.587406825,77472,128,6599,0.475930628,128,0.553894109,7680,0.045580869,632,7552,16230.46875
5.603634191,77697,128,6719,0.484585224,128,0.576900909,7999,0.034618382,480,8192,16250
5.593248676,77553,128,6584,0.474848804,128,0.562837191,7804,0.055894262,775,8832,16269.53125
5.594114136,77565,128,6623,0.477661547,128,0.586420964,8131,0.036998396,513,9472,16289.0625
5.590580176,77516,128,6611,0.476796088,128,0.481051264,6670,0.034834747,483,10112,16308.59375
5.604499651,77709,128,6772,0.48840767,128,0.589666437,8176,0.013847353,192,10752,16328.125
5.60269661,77684,128,6608,0.476579723,128,0.574520895,7966,0.017237069,239,11392,16347.65625
5.632122234,78092,128,7054,0.508745969,128,0.452274734,6271,2.88E-04,4,12032,16367.1875
5.684843145,78823,128,7176,0.517544808,128,0.553894109,7680,0.073203453,1015,12672,16386.71875
5.745497435,79664,128,7574,0.546249216,128,0.101691497,1410,0.045003896,624,13312,16406.25
5.722346392,79343,128,8104,0.58447368,128,0.59024341,8184,0.018391015,255,13952,16425.78125
5.641498046,78222,128,6914,0.498648941,128,0.575169989,7975,1.181568644,16383,14592,16445.3125
5.617048814,77883,128,6739,0.486027656,128,0.004615784,64,0.004543663,63,15232,16464.84375
5.605437232,77722,128,6597,0.475786385,128,0.525983039,7293,0.055389411,768,15872,16484.375
5.597215366,77608,128,6443,0.464679654,128,0.520069065,7211,0.018463137,256,16512,16503.90625
5.89760195,81773,128,8142,0.587214301,128,0.372724578,5168,0.143233555,1986,17152,16523.4375
6.273355636,86983,128,15558,1.1220683,128,0.322455802,4471,1.218422797,16894,17792,16542.96875
5.811128117,80574,128,8043,0.58007426,128,0.007140041,99,1.181496523,16382,18432,16562.5
5.680515847,78763,128,7598,0.547980135,128,0.558726258,7747,0.036854152,511,19072,16582.03125
5.679073415,78743,128,6921,0.499153793,128,0.581588814,8064,0.028199557,391,19712,16601.5625
5.700060809,79034,128,6996,0.504562915,128,0.001226068,17,0.001081824,15,20352,16621.09375
5.709797229,79169,128,7204,0.519564214,128,0.585483382,8118,0.006995798,97,20992,16640.625
5.727467028,79414,128,7286,0.525478187,128,0.51141447,7091,0.001009703,14,21632,16660.15625
5.748238057,79702,128,7245,0.5225212,128,0.522088471,7239,0.072698602,1008,22272,16679.6875
5.801391697,80439,128,7937,0.572429368,128,0.581588814,8064,0.073780426,1023,22912,16699.21875
5.834784011,80902,128,8351,0.602287722,128,0.146623271,2033,0.059500344,825,23552,16718.75
5.866733893,81345,128,8584,0.619092061,128,1.172409197,16256,0.03231049,448,24192,16738.28125
5.959265942,82628,128,9719,0.70095011,128,0.008654595,120,1.215105202,16848,24832,16757.8125
6.00297165,83234,128,10301,0.742924898,128,0.258772404,3588,1.255493314,17408,25472,16777.34375
6.016963246,83428,128,10238,0.738381235,128,0.223577049,3100,1.229962257,17054,26112,16796.875
5.94231736,82393,128,9096,0.656018335,128,1.17298617,16264,1.190655969,16509,26752,16816.40625
5.82987974,80834,128,8004,0.577261517,128,0.586493085,8132,1.179332874,16352,27392,16835.9375
5.70763358,79139,128,6919,0.499009549,128,0.014929177,207,0.016155245,224,28032,16855.46875
5.673447928,78665,128,6708,0.483791886,128,0.068082818,944,0.055461533,769,28672,16875
5.644959884,78270,128,6394,0.461145694,128,0.554182596,7684,0.017814042,247,29312,16894.53125
5.654624183,78404,128,6544,0.471963939,128,0.545816487,7568,0.041542058,576,29952,16914.0625
5.666956981,78575,128,6623,0.477661547,128,0.590748261,8191,0.008077622,112,30592,16933.59375
5.673015198,78659,128,6596,0.475714263,128,0.03231049,448,0.032526855,451,31232,16953.125
5.679506144,78749,128,6653,0.479825196,128,0.590171288,8183,0.033320192,462,31872,16972.65625
5.708138431,79146,128,6915,0.498721063,128,7.21E-05,1,0.036782031,510,32512,16992.1875
5.697103822,78993,128,6841,0.493384062,128,0.497999847,6905,0.010385515,144,33152,17011.71875
5.673664293,78668,128,6611,0.476796088,128,0.478887615,6640,0.014280082,198,33792,17031.25
5.684843145,78823,128,6854,0.494321644,128,0.590748261,8191,0.073203453,1015,34432,17050.78125
5.669913968,78616,128,6635,0.478527007,128,0.555048055,7696,0.064404614,893,35072,17070.3125
5.673447928,78665,128,6739,0.486027656,128,0.588440369,8159,0.06289006,872,35712,17089.84375
5.645176249,78273,128,6441,0.464535411,128,0.555913515,7708,0.055677897,772,36352,17109.375
5.642435627,78235,128,6410,0.46229964,128,0.001081824,15,0.029930476,415,36992,17128.90625
5.658735115,78461,128,6546,0.472108182,128,0.581805179,8067,0.038008098,527,37632,17148.4375
5.640848951,78213,128,6480,0.467348154,128,0.461289938,6396,0.018391015,255,38272,17167.96875
5.648421722,78318,128,6610,0.476723966,128,0.017525556,243,0.01637161,227,38912,17187.5
5.631761626,78087,128,6319,0.455736572,128,0.47996944,6655,0.03721476,516,39552,17207.03125
5.6403441,78206,128,6501,0.468862709,128,0.57964153,8037,0.009087325,126,40192,17226.5625
5.628804639,78046,128,6379,0.46006387,128,0.516967835,7168,0.013558866,188,40832,17246.09375
5.622530058,77959,128,6374,0.459703262,128,0.533339445,7395,2.16E-04,3,41472,17265.625
5.614524557,77848,128,6452,0.465328749,128,0.004543663,63,0.008654595,120,42112,17285.15625
5.630751923,78073,128,6486,0.467780884,128,0.572573611,7939,0,0,42752,17304.6875
5.62750645,78028,128,6563,0.47333425,128,0.544878905,7555,0.014712812,204,43392,17324.21875
5.717081513,79270,128,6981,0.50348109,128,0.443187409,6145,0.072914967,1011,44032,17343.75
5.752276868,79758,128,7421,0.535214607,128,0.53535885,7423,0.065125831,903,44672,17363.28125
5.701358998,79052,128,7589,0.547331041,128,0.091161739,1264,0.018391015,255,45312,17382.8125
5.649503547,78333,128,6933,0.500019252,128,0.055389411,768,0.008943082,124,45952,17402.34375
5.605076624,77717,128,6256,0.45119291,128,0.528435174,7327,0.009159447,127,46592,17421.875
5.60312934,77690,128,6170,0.44499045,128,0.444197112,6159,0.027117732,376,47232,17441.40625
5.592815947,77547,128,6111,0.440735273,128,5.05E-04,7,0.017886164,248,47872,17460.9375
5.838462214,80953,128,6854,0.494321644,128,0.560817785,7776,0.26259485,3641,48512,17480.46875
6.30097822,87366,128,15029,1.083915959,128,0.51631874,7159,1.290255939,17890,49152,17500
5.676981887,78714,128,6018,0.434027962,128,0.29533807,4095,1.106634272,15344,49792,17519.53125
5.645536857,78278,128,7118,0.513361754,128,0.44325953,6146,0.005120636,71,50432,17539.0625
5.675178847,78689,128,6619,0.477373061,128,0.540046756,7488,0.01593888,221,51072,17558.59375
5.663999994,78534,128,6551,0.47246879,128,0.471314844,6535,0.016660096,231,51712,17578.125
5.700782025,79044,128,6783,0.489201008,128,0.004543663,63,0.008510352,118,52352,17597.65625
5.693786227,78947,128,6724,0.484945832,128,0.060437925,838,0.002380014,33,52992,17617.1875
5.734967677,79518,128,7113,0.513001145,128,0.478310642,6632,0.018391015,255,53632,17636.71875
5.763744207,79917,128,7348,0.529949728,128,0.225596455,3128,0.036421423,505,54272,17656.25
5.787255858,80243,128,7647,0.551514095,128,0.036854152,511,0.003461838,48,54912,17675.78125
5.878633962,81510,128,8644,0.623419359,128,7.21E-05,1,0.018318894,254,55552,17695.3125
5.919454803,82076,128,9218,0.664817174,128,0,0,1.183804415,16414,56192,17714.84375
5.97066116,82786,128,9868,0.711696233,128,0.147632974,2047,1.237535028,17159,56832,17734.375
5.987465499,83019,128,9953,0.717826571,128,0.043922072,609,1.182434104,16395,57472,17753.90625
5.940370076,82366,128,9234,0.66597112,128,0,0,1.186184428,16447,58112,17773.4375
5.778961871,80128,128,7434,0.536152188,128,0.222567346,3086,1.163177629,16128,58752,17792.96875
5.700854147,79045,128,6975,0.503048361,128,0.590748261,8191,1.180775306,16372,59392,17812.5
5.618851855,77908,128,6336,0.45696264,128,0.531969134,7376,0.008438231,117,60032,17832.03125
5.630896167,78075,128,6527,0.470737871,128,0.47996944,6655,0.018102529,251,60672,17851.5625
5.633348302,78109,128,6478,0.467203911,128,0.036277179,503,0.004615784,64,61312,17871.09375
5.639767127,78198,128,6369,0.459342654,128,0.459270532,6368,0.027550462,382,61952,17890.625
5.65231629,78372,128,6711,0.484008251,128,0.558437772,7743,0.03721476,516,62592,17910.15625
5.659095724,78466,128,6481,0.467420276,128,0.009159447,127,0.016155245,224,63232,17929.6875
5.663999994,78534,128,6665,0.480690656,128,0,0,0.037070517,514,63872,17949.21875
5.649936277,78339,128,6709,0.483864007,128,0.452418977,6273,0.037431125,519,64512,17968.75
5.642868357,78241,128,6551,0.47246879,128,0.519203606,7199,0.027694705,384,65152,17988.28125
5.629021004,78049,128,6601,0.476074872,128,0.447731071,6208,0.005697609,79,256,18007.8125
5.623107031,77967,128,6353,0.458188708,128,0.461362059,6397,0.010313393,143,896,18027.34375
5.603778434,77699,128,6331,0.456602032,128,0.562043853,7793,2.16E-04,3,1536,18046.875
5.615606381,77863,128,6519,0.470160898,128,0.520646038,7219,0.003678203,51,2176,18066.40625
5.599451137,77639,128,6276,0.452635342,128,0.017814042,247,0.055389411,768,2816,18085.9375
5.603201461,77691,128,6369,0.459342654,128,0.447514707,6205,0.057625181,799,3456,18105.46875
5.591662001,77531,128,6336,0.45696264,128,0.530815188,7360,0.043777829,607,4096,18125
5.588777135,77491,128,6156,0.443980747,128,0.443403774,6148,0.006923676,96,4736,18144.53125
5.600172353,77649,128,6376,0.459847505,128,0.59024341,8184,0.069308885,961,5376,18164.0625
5.57038612,77236,128,6236,0.449750477,128,0.326999465,4534,0.01860738,258,6016,18183.59375
5.568222471,77206,128,6132,0.442249828,128,0.590531896,8188,0.036854152,511,6656,18203.125
5.578680107,77351,128,6302,0.454510505,128,0.443115287,6144,0.037142639,515,7296,18222.65625
5.57745404,77334,128,6299,0.45429414,128,0.016083123,223,0.039162044,543,7936,18242.1875
5.560793943,77103,128,6159,0.444197112,128,0.444197112,6159,0.035700206,495,8576,18261.71875
5.632771329,78101,128,6723,0.48487371,128,0.071761021,995,0,0,9216,18281.25
5.659167845,78467,128,6863,0.494970738,128,0.018391015,255,0.054812438,760,9856,18300.78125
5.667966684,78589,128,7410,0.534421269,128,0.586348842,8130,0.071256169,988,10496,18320.3125
5.603562069,77696,128,6901,0.49771136,128,0.589666437,8176,0.009231568,128,11136,18339.84375
5.548533267,76933,128,6140,0.442826801,128,0.008005501,111,0,0,11776,18359.375
5.525021616,76607,128,5929,0.427609137,128,0.588584612,8161,0.018967988,263,12416,18378.90625
5.525237981,76610,128,5911,0.426310948,128,0.353035373,4895,0.018463137,256,13056,18398.4375
5.629093126,78050,128,4724,0.340702574,128,0.45119291,6256,0.00706792,98,13696,18417.96875
6.024103287,83527,128,11522,0.830985407,128,0.249468714,3459,1.190800213,16511,14336,18437.5
5.831250051,80853,128,7386,0.53269035,128,0.294833218,4088,0.111644281,1548,14976,18457.03125
5.523290697,76583,128,6455,0.465545114,128,0.521511498,7231,0,0,15616,18476.5625
5.593825649,77561,128,6302,0.454510505,128,0.03231049,448,7.21E-05,1,16256,18496.09375
5.595917177,77590,128,6369,0.459342654,128,0.517039957,7169,5.05E-04,7,16896,18515.625
5.606446935,77736,128,6591,0.475353655,128,0.290722286,4031,0.066928872,928,17536,18535.15625
5.610774232,77796,128,6559,0.473045763,128,0.473045763,6559,0.036060814,500,18176,18554.6875
5.635295586,78136,128,6761,0.487614332,128,0.562837191,7804,0.022501948,312,18816,18574.21875
5.649070817,78327,128,6974,0.502976239,128,0.44765895,6207,0.004543663,63,19456,18593.75
5.690540754,78902,128,7358,0.530670945,128,0.078324089,1086,0.00223577,31,20096,18613.28125
5.721913662,79337,128,7987,0.576035449,128,0.55439896,7687,0.013919474,193,20736,18632.8125
5.794540142,80344,128,8766,0.632218198,128,0.004543663,63,0.036349301,504,21376,18652.34375
5.835577349,80913,128,9372,0.675923905,128,0.001081824,15,0.00223577,31,22016,18671.875
5.873513326,81439,128,9774,0.7049168,128,0.114168538,1583,0.036926274,512,22656,18691.40625
5.869546636,81384,128,9446,0.681260905,128,0.016587975,230,0.035195355,488,23296,18710.9375
5.736121623,79534,128,7480,0.539469783,128,0.59024341,8184,1.156253953,16032,23936,18730.46875
5.65541752,78415,128,6751,0.486893116,128,0.00223577,31,1.177529833,16327,24576,18750
5.56728489,77193,128,6245,0.450399572,128,0.525838795,7291,4.33E-04,6,25216,18769.53125
5.556106038,77038,128,6059,0.436984949,128,0.589305829,8171,0.018391015,255,25856,18789.0625
5.54471082,76880,128,6007,0.433234624,128,0.147272366,2042,0.016155245,224,26496,18808.59375
5.546441739,76904,128,6001,0.432801894,128,0.332264344,4607,8.65E-04,12,27136,18828.125
5.559207268,77081,128,6199,0.447081977,128,5.05E-04,7,9.38E-04,13,27776,18847.65625
5.567861863,77201,128,6279,0.452851707,128,0.53535885,7423,7.21E-05,1,28416,18867.1875
5.568006106,77203,128,6525,0.470593628,128,0.470521506,6524,0.009447933,131,29056,18886.71875
5.573198864,77275,128,6344,0.457539613,128,0.45696264,6336,0.034257774,475,29696,18906.25
5.548605388,76934,128,6162,0.444413477,128,0.57430453,7963,5.05E-04,7,30336,18925.78125
5.53627259,76763,128,6126,0.441817098,128,0.44412499,6158,2.16E-04,3,30976,18945.3125
5.534685914,76741,128,6036,0.435326151,128,0.140492933,1948,0.018391015,255,31616,18964.84375
5.536849563,76771,128,6221,0.448668653,128,0.56189961,7791,0.036421423,505,32256,18984.375
5.521848264,76563,128,5979,0.431215218,128,0.064548858,895,0.018535259,257,32896,19003.90625
5.520982804,76551,128,6028,0.434749178,128,0.327720681,4544,0.055894262,775,33536,19023.4375
5.518458547,76516,128,6001,0.432801894,128,0.576900909,7999,0.039234166,544,34176,19042.96875
5.531945292,76703,128,6089,0.439148598,128,0.440879517,6113,0.065125831,903,34816,19062.5
5.518963399,76523,128,5953,0.429340056,128,0.060005195,832,0.018391015,255,35456,19082.03125
5.505765141,76340,128,5859,0.422560623,128,7.21E-05,1,5.05E-04,7,36096,19101.5625
5.525093737,76608,128,5980,0.43128734,128,0.147416609,2044,0.002163649,30,36736,19121.09375
5.520477953,76544,128,5985,0.431647948,128,0.136237757,1889,0.03231049,448,37376,19140.625
5.512328209,76431,128,5930,0.427681259,128,0.426960042,5920,0.009231568,128,38016,19160.15625
5.604283286,77706,128,6493,0.468285736,128,0.523675147,7261,0.071688899,994,38656,19179.6875
5.634213762,78121,128,6574,0.474127588,128,0.552091068,7655,7.21E-05,1,39296,19199.21875
5.619573071,77918,128,7138,0.514804186,128,0.588728856,8163,0.004615784,64,39936,19218.75
5.546730226,76908,128,6339,0.457179005,128,0,0,0.004471541,62,40576,19238.28125
5.527113143,76636,128,6142,0.442971044,128,0.58360822,8092,4.33E-04,6,41216,19257.8125
5.480017719,75983,128,5437,0.392125296,128,0.074790129,1037,0.007428528,103,41856,19277.34375
5.493648707,76172,128,5753,0.41491573,128,0.341063182,4729,0.001009703,14,42496,19296.875
5.727683392,79417,128,6514,0.46980029,128,0.521006646,7224,0.115178241,1597,43136,19316.40625
6.192218803,85858,128,14153,1.020737412,128,0.429267934,5952,1.476618228,20474,43776,19335.9375
5.691766821,78919,128,5434,0.391908931,128,0.07572771,1050,1.108293069,15367,44416,19355.46875
5.526752535,76631,128,6556,0.472829398,128,0.454366261,6300,0.009159447,127,45056,19375
5.57925708,77359,128,6221,0.448668653,128,0.452130491,6269,7.21E-05,1,45696,19394.53125
5.560433335,77098,128,6016,0.433883719,128,0.433883719,6016,0.019256475,267,46336,19414.0625
5.61113484,77801,128,6498,0.468646344,128,0.588512491,8160,0.07262648,1007,46976,19433.59375
5.626857355,78019,128,6521,0.470305141,128,0.008943082,124,0.006923676,96,47616,19453.125
5.63724287,78163,128,6767,0.488047062,128,0.589594315,8175,0.036854152,511,48256,19472.65625
5.660682399,78488,128,7179,0.517761173,128,0,0,0.017886164,248,48896,19492.1875
5.695372903,78969,128,7526,0.542787378,128,0.108903659,1510,0.00223577,31,49536,19511.71875
5.752493233,79761,128,8244,0.594570708,128,0.889692413,12336,0.065774925,912,50176,19531.25
5.822234848,80728,128,9068,0.65399893,128,0.035051112,486,0.05755306,798,50816,19550.78125
5.867166623,81351,128,9657,0.696478569,128,1.139161127,15795,0.019256475,267,51456,19570.3125
5.872143015,81420,128,9641,0.695324623,128,1.139521735,15800,0.03721476,516,52096,19589.84375
5.8280767,80809,128,8815,0.635752158,128,0.003389717,47,7.21E-05,1,52736,19609.375
5.683472834,78804,128,6948,0.501101077,128,0.277379784,3846,1.181352279,16380,53376,19628.90625
5.607673002,77753,128,6364,0.458982046,128,0.452058369,6268,1.181424401,16381,54016,19648.4375
5.559351511,77083,128,6054,0.436624341,128,0.362339063,5024,0.00223577,31,54656,19667.96875
5.564111538,77149,128,6008,0.433306746,128,0.059933074,831,0,0,55296,19687.5
5.566780039,77186,128,6179,0.445639544,128,0.519275727,7200,2.16E-04,3,55936,19707.03125
5.564255782,77151,128,5929,0.427609137,128,0.068948277,956,0.00223577,31,56576,19726.5625
5.578175256,77344,128,6148,0.443403774,128,0.581877301,8068,0.036926274,512,57216,19746.09375
5.59562869,77586,128,6321,0.455880815,128,0.455880815,6321,0.070534953,978,57856,19765.625
5.580988,77383,128,6256,0.45119291,128,0.59024341,8184,0.009159447,127,58496,19785.15625
5.58408923,77426,128,6376,0.459847505,128,0.588512491,8160,0.008077622,112,59136,19804.6875
5.576516459,77321,128,6269,0.452130491,128,0.00223577,31,0,0,59776,19824.21875
5.562741227,77130,128,6150,0.443548017,128,0.29533807,4095,0.035195355,488,60416,19843.75
5.550480551,76960,128,5984,0.431575827,128,0.29533807,4095,0.035195355,488,61056,19863.28125
5.536633198,76768,0,5934,0.427969745,128,0.001658797,23,0,0,61696,19882.8125
5.546369618,76903,128,6185,0.446072274,128,0.147200244,2041,0.00887096,123,62976,19921.875
5.534902279,76744,128,5894,0.42508488,128,0.442754679,6139,0.036349301,504,63616,19941.40625
5.535118644,76747,128,5923,0.427176407,128,0.443403774,6148,0.008005501,111,64256,19960.9375
5.53807563,76788,128,5972,0.430710367,128,0.55439896,7687,0.062313087,864,64896,19980.46875
5.530358616,76681,128,5901,0.425589731,128,0.590387653,8186,0.03584445,497,0,20000
5.53007013,76677,128,5942,0.428546718,128,0.576900909,7999,0.035988693,499,640,20019.53125
5.523218575,76582,128,5789,0.417512109,128,0.590531896,8188,0.01637161,227,1280,20039.0625
5.540095036,76816,128,6007,0.433234624,128,0.426887921,5919,0,0,1920,20058.59375
5.571684309,77254,128,6236,0.449750477,128,0.443331652,6147,0.018391015,255,2560,20078.125
5.617481544,77889,128,6589,0.475209412,128,0.450038964,6240,0.017525556,243,3200,20097.65625
5.647556263,78306,128,6860,0.494754373,128,0.505139888,7004,7.21E-05,1,3840,20117.1875
5.625342801,77998,128,7065,0.509539307,128,0.479680953,6651,0.018679502,259,4480,20136.71875
5.548605388,76934,128,6041,0.435686759,128,0.443115287,6144,0.007428528,103,5120,20156.25
5.516078534,76483,128,5779,0.416790893,128,0.588512491,8160,0.004615784,64,5760,20175.78125
5.511823358,76424,128,5915,0.426599434,128,0.574160287,7961,0,0,6400,20195.3125
5.536344711,76764,128,5001,0.360680266,128,0.433739475,6014,1.172264954,16254,7040,20214.84375
5.812354185,80591,128,7216,0.520429673,128,0.445351058,6175,0.004543663,63,7680,20234.375
5.962006564,82666,128,12082,0.871373519,128,0.176481626,2447,1.21503308,16847,8320,20253.90625
5.585675905,77448,128,5999,0.432657651,128,0.553100771,7669,1.149258155,15935,8960,20273.4375
5.589281987,77498,128,6340,0.457251126,128,0.461506303,6399,0.018751623,260,9600,20292.96875
5.58589227,77451,128,6011,0.433523111,128,0.443980747,6156,0.008582474,119,10240,20312.5
5.59252746,77543,128,6196,0.446865612,128,0.518049659,7183,0.014929177,207,10880,20332.03125
5.598225069,77622,128,6276,0.452635342,128,0.447731071,6208,0.028848652,400,11520,20351.5625
5.623539761,77973,128,6477,0.46713179,128,0.461650546,6401,0.001658797,23,12160,20371.09375
5.665803035,78559,128,6714,0.484224616,128,0.534277026,7408,2.16E-04,3,12800,20390.625
5.684121929,78813,128,6957,0.501750171,128,0.590748261,8191,0.036854152,511,13440,20410.15625
5.738285272,79564,128,7591,0.547475284,128,0.56766934,7871,0.002163649,30,14080,20429.6875
5.794540142,80344,128,8239,0.594210099,128,0.576900909,7999,0.064332493,892,14720,20449.21875
5.882384286,81562,128,9208,0.664095958,128,0.009159447,127,0.021997097,305,15360,20468.75
5.927893034,82193,128,9728,0.701599205,128,0.088781725,1231,0.059644587,827,16000,20488.28125
5.928974858,82208,128,9647,0.695757353,128,0.074934372,1039,1.183948658,16416,16640,20507.8125
5.789058899,80268,128,7796,0.562260218,128,0.008149744,113,1.174572846,16286,17280,20527.34375
5.71030208,79176,128,7039,0.507664145,128,0.002163649,30,1.181135914,16377,17920,20546.875
5.604860259,77714,128,6236,0.449750477,128,0.59024341,8184,9.38E-04,13,18560,20566.40625
5.568078228,77204,128,5823,0.419964244,128,0.589666437,8176,0.001947284,27,19200,20585.9375
5.562524863,77127,128,5859,0.422560623,128,0.554975933,7695,0.008149744,113,19840,20605.46875
5.585171054,77441,128,6011,0.433523111,128,0.562837191,7804,0.036421423,505,20480,20625
5.592238974,77539,128,6041,0.435686759,128,0.563342042,7811,0.004471541,62,21120,20644.53125
5.606807543,77741,128,6137,0.442610436,128,0.438787989,6084,0.032598976,452,21760,20664.0625
5.59829719,77623,128,6203,0.447370463,128,0.447370463,6203,0.018967988,263,22400,20683.59375
5.62173672,77948,128,6326,0.456241424,128,0.517544808,7176,0.001081824,15,23040,20703.125
5.588921379,77493,128,6100,0.439941936,128,0.44765895,6207,0.018463137,256,23680,20722.65625
5.584954689,77438,128,5980,0.43128734,128,0.59024341,8184,0.024232867,336,24320,20742.1875
5.586613487,77461,128,6011,0.433523111,128,0.580434868,8048,0.008077622,112,24960,20761.71875
5.570169755,77233,128,5939,0.428330353,128,0.443115287,6144,0.009231568,128,25600,20781.25
5.545432037,76890,128,5693,0.410588433,128,0.443043166,6143,0.018463137,256,26240,20800.78125
5.563029714,77134,128,5961,0.429917029,128,0.57697303,8000,0.001009703,14,26880,20820.3125
5.563967295,77147,128,5913,0.426455191,128,0.59067614,8190,0.03231049,448,27520,20839.84375
5.550624794,76962,128,5666,0.408641149,128,0.443043166,6143,0.025386813,352,28160,20859.375
5.54824478,76929,128,5688,0.410227824,128,0.572213003,7934,0.0230068,319,28800,20878.90625
5.563246079,77137,128,5748,0.414555122,128,0.582670639,8079,0.028271678,392,29440,20898.4375
5.54600901,76898,128,5690,0.410372068,128,0.589089464,8168,0.004543663,63,30080,20917.96875
5.562092133,77121,128,6008,0.433306746,128,0.59067614,8190,0.036709909,509,30720,20937.5
5.613082124,77828,128,6088,0.439076476,128,0.442826801,6140,0.008077622,112,31360,20957.03125
5.671212157,78634,128,6651,0.479680953,128,0.519203606,7199,0.033392314,463,32000,20976.5625
5.693425619,78942,128,6675,0.481411872,128,0.554110474,7683,0.002163649,30,32640,20996.09375
5.629309491,78053,128,6793,0.489922224,128,0.461073573,6393,0.009231568,128,33280,21015.625
5.589931082,77507,128,6184,0.446000152,128,0.57473726,7969,0.003678203,51,33920,21035.15625
5.556322403,77041,128,5661,0.40828054,128,0.586637328,8134,0.01327038,184,34560,21054.6875
5.54514355,76886,128,5646,0.407198716,128,0.54949469,7619,0.004327298,60,35200,21074.21875
5.610413624,77791,128,4371,0.315243639,128,0.517905416,7181,1.144714492,15872,35840,21093.75
5.931931845,82249,128,8921,0.64339705,128,0.332264344,4607,0.059860952,830,36480,21113.28125
6.130843297,85007,128,14137,1.019583466,128,0.065486439,908,0.287260447,3983,37120,21132.8125
5.573992202,77286,128,6034,0.435181908,128,0.022429827,311,1.099061501,15239,37760,21152.34375
5.613514854,77834,128,6386,0.460568721,128,0.443331652,6147,2.16E-04,3,38400,21171.875
5.617265179,77886,128,5919,0.426887921,128,0.590748261,8191,0.036421423,505,39040,21191.40625
5.634213762,78121,128,6034,0.435181908,128,0.554975933,7695,0.009159447,127,39680,21210.9375
5.645969587,78284,128,6290,0.453645045,128,0.581588814,8064,0,0,40320,21230.46875
5.666740616,78572,128,6416,0.46273237,128,0.461506303,6399,0.046229964,641,40960,21250
5.684482537,78818,128,6458,0.465761479,128,0.479897318,6654,0.072914967,1011,41600,21269.53125
5.733453123,79497,128,6937,0.500307739,128,0.484080372,6712,0.007356406,102,42240,21289.0625
5.760498734,79872,128,7298,0.526343647,128,0.516967835,7168,0,0,42880,21308.59375
5.859089,81239,128,8503,0.613250209,128,0.130323783,1807,0,0,43520,21328.125
5.903011072,81848,128,8889,0.641089158,128,0.009159447,127,0.073708305,1022,44160,21347.65625
5.954145307,82557,128,9528,0.687174879,128,0.00223577,31,1.21416762,16835,44800,21367.1875
5.942461603,82395,128,9351,0.674409351,128,0.145397204,2016,1.247127205,17292,45440,21386.71875
5.809252955,80548,128,7709,0.555985636,128,0.581805179,8067,1.44E-04,2,46080,21406.25
5.691550456,78916,128,6579,0.474488196,128,0.031156544,432,1.163177629,16128,46720,21425.78125
5.626064018,78008,128,6129,0.442033463,128,0.589666437,8176,1.181352279,16380,47360,21445.3125
5.572117039,77260,128,5671,0.409001757,128,0.574520895,7966,0.004327298,60,48000,21464.84375
5.566347309,77180,128,5745,0.414338757,128,0.414338757,5745,0.036854152,511,48640,21484.375
5.560577579,77100,128,5684,0.409939338,128,0.435686759,6041,8.65E-04,12,49280,21503.90625
5.584810446,77436,128,5909,0.426166704,128,0.589666437,8176,0.008077622,112,49920,21523.4375
5.584810446,77436,128,5880,0.424075177,128,0.442538314,6136,0.004615784,64,50560,21542.96875
5.591662001,77531,128,5971,0.430638245,128,0.575242111,7976,0,0,51200,21562.5
5.591085028,77523,128,5976,0.430998854,128,0.578992436,8028,0.001730919,24,51840,21582.03125
5.58985896,77506,128,5908,0.426094583,128,0.424724272,5889,0.016660096,231,52480,21601.5625
5.584954689,77438,128,5992,0.4321528,128,0.588512491,8160,0.009087325,126,53120,21621.09375
5.558774538,77075,128,5669,0.408857514,128,0.562981434,7806,0.003317595,46,53760,21640.625
5.563462444,77140,128,5831,0.420541217,128,0.424435785,5885,0.036854152,511,54400,21660.15625
5.532161657,76706,128,5394,0.389024066,128,0.57343907,7951,1.181063793,16376,55040,21679.6875
5.555240578,77026,128,5703,0.411309649,128,0.434677057,6027,0.020121934,279,55680,21699.21875
5.542547171,76850,128,5729,0.413184811,128,0.555913515,7708,0.004110933,57,56320,21718.75
5.530574981,76684,128,5481,0.395298647,128,0.52605516,7294,0.008943082,124,56960,21738.28125
5.55487997,77021,128,5852,0.422055772,128,0.590748261,8191,0.014929177,207,57600,21757.8125
5.527617994,76643,128,5405,0.389817404,128,0.530959431,7362,0.004543663,63,58240,21777.34375
5.544999307,76884,128,5859,0.422560623,128,0.570265719,7907,0.009087325,126,58880,21796.875
5.53187317,76702,128,5576,0.402150202,128,0.59067614,8190,0.004038811,56,59520,21816.40625
5.521920386,76564,128,5556,0.400707769,128,0.442538314,6136,0.004543663,63,60160,21835.9375
5.5296374,76671,128,5751,0.414771487,128,0.3524584,4887,7.93E-04,11,60800,21855.46875
5.593176555,77552,128,6093,0.439437084,128,0.561683245,7788,0.017237069,239,61440,21875
5.629814342,78060,128,6453,0.46540087,128,0.443403774,6148,0.007212163,100,62080,21894.53125
5.630751923,78073,128,6853,0.494249522,128,0.556129879,7711,0,0,62720,21914.0625
5.594763231,77574,128,6711,0.484008251,128,0.55526442,7699,5.05E-04,7,63360,21933.59375
5.528483454,76655,128,5621,0.405395675,128,0.554975933,7695,2.16E-04,3,64000,21953.125
5.518097939,76511,128,5706,0.411526014,128,0.296419894,4110,0.018391015,255,64640,21972.65625
5.489754139,76118,128,5324,0.383975552,128,0.40871327,5667,0.004038811,56,65280,21992.1875
5.555601186,77031,128,4294,0.309690274,128,0.461289938,6396,1.153729696,15997,384,22011.71875
6.189910911,85826,128,13827,0.997225761,128,0.018102529,251,0.585050653,8112,1024,22031.25
5.785669182,80221,128,8919,0.643252807,128,0.116548552,1616,0.05755306,798,1664,22050.78125
5.518819156,76521,128,6101,0.440014057,128,0.586204599,8128,1.179404995,16353,2304,22070.3125
5.583007405,77411,128,6296,0.454077775,128,0.014784934,205,0.001081824,15,2944,22089.84375
5.550336307,76958,128,5850,0.421911528,128,0.440230422,6104,0.009231568,128,3584,22109.375
5.560289092,77096,128,6111,0.440735273,128,0.369118496,5118,3.61E-04,5,4224,22128.90625
5.568294593,77207,128,6184,0.446000152,128,0.368902131,5115,0.013558866,188,4864,22148.4375
5.599234772,77636,128,6491,0.468141492,128,0.018679502,259,0.004399419,61,5504,22167.96875
5.627578572,78029,128,6682,0.481916723,128,0.00223577,31,0.031949882,443,6144,22187.5
5.640993195,78215,128,7088,0.511198105,128,0.581588814,8064,0.01637161,227,6784,22207.03125
5.697680795,79001,128,7646,0.551441974,128,0.517039957,7169,0.036782031,510,7424,22226.5625
5.751555652,79748,128,8283,0.597383451,128,1.178755901,16344,0.064620979,896,8064,22246.09375
5.828653673,80817,128,9381,0.676573,128,0.005625487,78,0.039017801,541,8704,22265.625
5.852814418,81152,128,9460,0.682270608,128,0.128953472,1788,0,0,9344,22285.15625
5.81127236,80576,128,8733,0.629838184,128,0.036854152,511,1.145219343,15879,9984,22304.6875
5.711023296,79186,128,7652,0.551874703,128,0.032887463,456,1.181063793,16376,10624,22324.21875
5.617048814,77883,128,6599,0.475930628,128,0.586204599,8128,1.111827029,15416,11264,22343.75
5.505404533,76335,128,5894,0.42508488,128,0.590315532,8185,1.173491022,16271,11904,22363.28125
5.518602791,76518,128,6159,0.444197112,128,0.572862097,7943,1.179837725,16359,12544,22382.8125
5.47251707,75879,128,5729,0.413184811,128,0.589017342,8167,0.018463137,256,13184,22402.34375
5.474824962,75911,128,5748,0.414555122,128,0.442826801,6140,0.00973642,135,13824,22421.875
5.482325611,76015,128,5831,0.420541217,128,0.425661853,5902,0.018751623,260,14464,22441.40625
5.48845595,76100,128,5972,0.430710367,128,0.350438994,4859,0.002452135,34,15104,22460.9375
5.493288099,76167,128,6204,0.447442585,128,0.521583619,7232,5.05E-04,7,15744,22480.46875
5.482397733,76016,128,5965,0.430205516,128,0.368325158,5107,0.004110933,57,16384,22500
5.479584989,75977,128,6219,0.448524409,128,0.5171842,7171,0.013919474,193,17024,22519.53125
5.459823663,75703,128,5771,0.41621392,128,0.589882802,8179,0.018679502,259,17664,22539.0625
5.467324313,75807,128,6131,0.442177706,128,0.441961341,6128,7.21E-05,1,18304,22558.59375
5.423618606,75201,128,5741,0.414050271,128,0.44102376,6115,0.017309191,240,18944,22578.125
5.428018025,75262,128,5758,0.415276338,128,0.563053556,7807,0.036782031,510,19584,22597.65625
5.419868281,75149,128,5676,0.409362365,128,0.55439896,7687,0.034834747,483,20224,22617.1875
5.403929401,74928,128,5660,0.408208419,128,0.516967835,7168,0,0,20864,22636.71875
5.394409346,74796,128,5638,0.406621743,128,0.572789976,7942,0.004543663,63,21504,22656.25
5.385177777,74668,128,5597,0.403664756,128,0.342794102,4753,0.009015204,125,22144,22675.78125
5.395851778,74816,128,5772,0.416286041,128,0.553894109,7680,0.008077622,112,22784,22695.3125
5.38308625,74639,128,5696,0.410804798,128,0.440518909,6108,0.016227366,225,23424,22714.84375
5.40962701,75007,128,5844,0.421478799,128,0.443043166,6143,0.004543663,63,24064,22734.375
5.473166165,75888,128,6366,0.459126289,128,0.576684544,7996,0.032743219,454,24704,22753.90625
5.50172633,76284,128,6717,0.48444098,128,0.554182596,7684,0.036637787,508,25344,22773.4375
5.41272824,75050,128,6604,0.476291236,128,0.55439896,7687,4.33E-04,6,25984,22792.96875
5.34543876,74117,128,5599,0.403809,128,0.426815799,5918,1.176448009,16312,26624,22812.5
5.337505381,74007,128,5538,0.39940958,128,0.304786003,4226,0.001226068,17,27264,22832.03125
5.326038042,73848,128,5411,0.390250133,128,0.313007869,4340,0.00223577,31,27904,22851.5625
5.323441663,73812,128,5005,0.360968752,128,0.360536022,4999,1.163177629,16128,28544,22871.09375
5.71607181,79256,128,9506,0.685588203,128,0.438715868,6083,0.152248758,2111,29184,22890.625
5.854761702,81179,128,12477,0.899861562,128,0.004543663,63,1.110023988,15391,29824,22910.15625
5.335485975,73979,128,5830,0.420469096,128,0.332264344,4607,1.099422109,15244,30464,22929.6875
5.364767356,74385,128,6154,0.443836503,128,0.525838795,7291,0.035916571,498,31104,22949.21875
5.353804869,74233,128,5801,0.418377569,128,0.406838108,5641,0.036637787,508,31744,22968.75
5.36534433,74393,128,6048,0.436191611,128,0.138329284,1918,0.036709909,509,32384,22988.28125
5.35741095,74283,128,5943,0.42861884,128,0.434100084,6019,0.001081824,15,33024,23007.8125
5.379696534,74592,128,6292,0.453789288,128,0.445278936,6174,0.029930476,415,33664,23027.34375
5.382942007,74637,128,6274,0.452491099,128,0.531031553,7363,0.032382611,449,34304,23046.875
5.430325917,75294,128,6900,0.497639239,128,0.583968828,8097,0.016227366,225,34944,23066.40625
5.451024825,75581,128,7240,0.522160592,128,0.525910917,7292,0.069164642,959,35584,23085.9375
5.499490559,76253,128,7982,0.575674841,128,0.586060355,8126,0.01593888,221,36224,23105.46875
5.555168456,77025,128,8825,0.636473374,128,1.146950262,15903,0.01593888,221,36864,23125
5.597071123,77606,128,9289,0.66993781,128,0.073852548,1024,0.036277179,503,37504,23144.53125
5.579040716,77356,128,9096,0.656018335,128,0.006779433,94,0.022213462,308,38144,23164.0625
5.510885776,76411,128,7781,0.561178394,128,0.558293528,7741,1.148825425,15929,38784,23183.59375
5.369022533,74444,128,6273,0.452418977,128,0.554326839,7686,1.181063793,16376,39424,23203.125
5.294737255,73414,128,5783,0.417079379,128,0.582093666,8071,0.589017342,8167,40064,23222.65625
5.262715252,72970,128,5696,0.410804798,128,0.331398884,4595,0.020410421,283,40704,23242.1875
5.246992737,72752,128,5539,0.399481702,128,0.558509893,7744,0.018391015,255,41344,23261.71875
5.238410263,72633,128,5611,0.404674459,128,0.589594315,8175,0.036637787,508,41984,23281.25
5.251464278,72814,128,5864,0.422921231,128,0.438499503,6080,0.001081824,15,42624,23300.78125
5.261417062,72952,128,5838,0.421046069,128,0.347265643,4815,0.017886164,248,43264,23320.3125
5.252618224,72830,128,5911,0.426310948,128,0.432729773,6000,0.002091527,29,43904,23339.84375
5.253195197,72838,128,6131,0.442177706,128,0.589882802,8179,0,0,44544,23359.375
5.215475585,72315,128,5756,0.415132095,128,0.44188922,6127,0.034329895,476,45184,23378.90625
5.21612468,72324,128,5839,0.42111819,128,0.41311269,5728,0.00973642,135,45824,23398.4375
5.212230112,72270,128,5699,0.411021162,128,0.406405378,5635,0.001009703,14,46464,23417.96875
5.183237217,71868,128,5644,0.407054473,128,0.295482313,4097,0.002307892,32,47104,23437.5
5.182155392,71853,128,5721,0.412607838,128,0.144820231,2008,0.001081824,15,47744,23457.03125
5.167947432,71656,128,5512,0.397534418,128,0.401789594,5571,0.001081824,15,48384,23476.5625
5.159797688,71543,128,5354,0.3861392,128,0.312647261,4335,0.036277179,503,49024,23496.09375
5.153234619,71452,128,5516,0.397822904,128,0.442826801,6140,0.073708305,1022,49664,23515.625
5.154244322,71466,128,5496,0.396380472,128,0.378205821,5244,0.055966384,776,50304,23535.15625
5.15460493,71471,128,5441,0.392413782,128,7.21E-05,1,0.009231568,128,50944,23554.6875
5.179270527,71813,128,5746,0.414410879,128,0.426815799,5918,7.21E-05,1,51584,23574.21875
5.218216207,72353,128,5904,0.425806096,128,0.129241959,1792,0.048537856,673,52224,23593.75
5.270576509,73079,128,6588,0.47513729,128,0.443331652,6147,0.004327298,60,52864,23613.28125
5.212013747,72267,128,6405,0.461939032,128,0.461578424,6400,2.16E-04,3,53504,23632.8125
5.125756279,71071,128,5488,0.395803499,128,0.409650851,5680,0.001947284,27,54144,23652.34375
5.105634344,70792,128,5210,0.375753686,128,0.412968446,5726,5.77E-04,8,54784,23671.875
5.088325153,70552,128,5268,0.37993674,128,0.128664986,1784,0.002019406,28,55424,23691.40625
5.122871414,71031,128,4377,0.315676369,128,0.324042478,4493,0.590748261,8191,56064,23710.9375
5.34810726,74154,128,6640,0.478887615,128,0.45119291,6256,0.002884865,40,56704,23730.46875
5.628948883,78048,128,10283,0.741626709,128,0.069236764,960,0.003461838,48,57344,23750
5.229755667,72513,128,4860,0.350511116,128,0.055100924,764,0.577045152,8001,57984,23769.53125
5.157489795,71511,128,5984,0.431575827,128,0.516967835,7168,0.018751623,260,58624,23789.0625
5.114793791,70919,128,5414,0.390466498,128,0.323609748,4487,0,0,59264,23808.59375
5.142127888,71298,128,5917,0.426743677,128,0.332120101,4605,0.027622584,383,59904,23828.125
5.133256928,71175,128,5698,0.410949041,128,0.129386202,1794,0,0,60544,23847.65625
5.151575822,71429,128,6028,0.434749178,128,0.111067308,1540,0.017309191,240,61184,23867.1875
5.17631354,71772,128,6292,0.453789288,128,0.452346856,6272,0.009087325,126,61824,23886.71875
5.185112379,71894,128,6399,0.461506303,128,0.461506303,6399,0.002163649,30,62464,23906.25
5.228818086,72500,128,7094,0.511630835,128,0.277379784,3846,0.041037207,569,63104,23925.78125
5.266321333,73020,128,7747,0.558726258,128,0.58627672,8129,0.004471541,62,63744,23945.3125
5.319691339,73760,128,8468,0.610725952,128,0.90462159,12543,0.036854152,511,64384,23964.84375
5.35784368,74289,128,8898,0.641738253,128,0.959506149,13304,0,0,65024,23984.375
5.358925505,74304,128,8221,0.59291191,128,0.037431125,519,1.181568644,16383,128,24003.90625
5.254709751,72859,128,7055,0.508818091,128,0.461506303,6399,0.527281228,7311,768,24023.4375
5.192613029,71998,128,6171,0.445062571,128,0.260214837,3608,0.553749866,7678,1408,24042.96875
5.089839708,70573,128,5432,0.391764688,128,0.583896707,8096,0.573583314,7953,2048,24062.5
5.065678962,70238,128,5341,0.385201619,128,0.310339369,4303,0.574520895,7966,2688,24082.03125
5.059115894,70147,128,5258,0.379215524,128,0.00223577,31,0.009231568,128,3328,24101.5625
5.054572231,70084,128,5136,0.370416685,128,0.295410191,4096,0.004615784,64,3968,24121.09375
5.056663758,70113,128,5355,0.386211322,128,0.328802506,4559,0.002163649,30,4608,24140.625
5.061279543,70177,128,5443,0.392558025,128,0.295626556,4099,7.21E-05,1,5248,24160.15625
5.068131097,70272,128,5652,0.407631446,128,0.039089923,542,0,0,5888,24179.6875
5.060125597,70161,128,5496,0.396380472,128,0.004471541,62,0.001226068,17,6528,24199.21875
5.046927338,69978,128,5521,0.398183512,128,0.00930369,129,0.001730919,24,7168,24218.75
5.048802501,70004,128,5591,0.403232026,128,0.147200244,2041,0.014352204,199,7808,24238.28125
5.035387878,69818,128,5301,0.382316754,128,0.308103598,4272,0.011467339,159,8448,24257.8125
5.014544727,69529,128,5084,0.366666361,128,0.368180915,5105,0.004543663,63,9088,24277.34375
5.039210324,69871,128,5331,0.384480403,128,0.439653449,6096,0.018391015,255,9728,24296.875
4.997235536,69289,128,5142,0.370849415,128,0.295482313,4097,0.002596379,36,10368,24316.40625
5.022694471,69642,128,5269,0.380008862,128,0.075511345,1047,2.16E-04,3,11008,24335.9375
4.983820913,69103,128,4868,0.351088089,128,0.31437818,4359,0.001081824,15,11648,24355.46875
5.09084941,70587,128,5551,0.400347161,128,0.034690503,481,0.032238368,447,12288,24375
5.134843604,71197,128,5925,0.42732065,128,0.31394545,4353,0.002091527,29,12928,24394.53125
5.105634344,70792,128,6371,0.459486897,128,0.258483918,3584,0.00663519,92,13568,24414.0625
5.020170214,69607,128,5366,0.38700466,128,0.442394071,6134,0.293174421,4065,14208,24433.59375
4.984758494,69116,128,5098,0.367676063,128,0.018391015,255,0.004327298,60,14848,24453.125
4.94602918,68579,128,4701,0.339043777,128,0.009159447,127,7.21E-05,1,15488,24472.65625
4.956631059,68726,128,4908,0.353972954,128,0.003317595,46,0.008293987,115,16128,24492.1875
5.167586823,71651,128,4945,0.356641454,128,0.366449996,5081,0.147632974,2047,16768,24511.71875
5.670058211,78618,128,12573,0.906785239,128,1.06848193,14815,0.06685675,927,17408,24531.25
5.219730761,72374,128,4851,0.349862021,128,0.535503094,7425,0.978762624,13571,18048,24550.78125
4.959876533,68771,128,5653,0.407703567,128,0.295410191,4096,0.017958286,249,18688,24570.3125
5.016203525,69552,128,5246,0.378350065,128,0.561971731,7792,0,0,19328,24589.84375
5.007837416,69436,128,5321,0.383759187,128,0.018246772,253,0.020482543,284,19968,24609.375
5.034522418,69806,128,5504,0.396957445,128,0.018679502,259,0.001081824,15,20608,24628.90625
5.035459999,69819,128,5433,0.391836809,128,0.373373672,5177,0.009447933,131,21248,24648.4375
5.042600041,69918,128,5614,0.404890824,128,0.001081824,15,0.00223577,31,21888,24667.96875
5.08774818,70544,128,6147,0.443331652,128,0.221774008,3075,0.064620979,896,22528,24687.5
5.127919928,71101,128,6546,0.472108182,128,0.583824585,8095,0.02877653,399,23168,24707.03125
5.155398268,71482,128,7126,0.513938727,128,0.555841393,7707,5.05E-04,7,23808,24726.5625
5.220307734,72382,128,8046,0.580290625,128,0.576900909,7999,0.050701505,703,24448,24746.09375
5.261633427,72955,128,8465,0.610509588,128,1.052110321,14588,0.004543663,63,25088,24765.625
5.294232404,73407,128,8605,0.620606616,128,0.902313698,12511,0.018391015,255,25728,24785.15625
5.24670425,72748,128,7614,0.549134081,128,0.549206203,7615,0.556202001,7712,26368,24804.6875
5.11428894,70912,128,5976,0.430998854,128,0.426383069,5912,0.586204599,8128,27008,24824.21875
5.040075784,69883,128,5454,0.393351363,128,0.005625487,78,0.00887096,123,27648,24843.75
4.985335467,69124,128,5144,0.370993658,128,0.004471541,62,0.005697609,79,28288,24863.28125
4.976464507,69001,128,5161,0.372219726,128,0.142512338,1976,0.014712812,204,28928,24882.8125
4.971055385,68926,128,4961,0.3577954,128,0.406189013,5632,5.05E-04,7,29568,24902.34375
4.981729386,69074,128,5304,0.382533119,128,0.078324089,1086,0.033608679,466,30208,24921.875
5.00048101,69334,128,5228,0.377051875,128,0.001081824,15,0.001658797,23,30848,24941.40625
5.001707077,69351,128,5488,0.395803499,128,0.003461838,48,0.016660096,231,31488,24960.9375
4.994999766,69258,128,5384,0.388302849,128,0.036782031,510,0.010313393,143,32128,24980.46875
5.004087091,69384,128,5444,0.392630147,128,0.018463137,256,0.034618382,480,32768,25000
4.982234237,69081,128,5262,0.379504011,128,0.001009703,14,0.036421423,505,33408,25019.53125
4.991105198,69204,128,5235,0.377556727,128,0.018391015,255,5.05E-04,7,34048,25039.0625
4.982955454,69091,128,5299,0.382172511,128,0.299953854,4159,0.034618382,480,34688,25058.59375
4.962545033,68808,128,4921,0.354910535,128,0.515813889,7152,0.018102529,251,35328,25078.125
4.980286953,69054,128,5326,0.384119795,128,0.074862251,1038,4.33E-04,6,35968,25097.65625
4.965357776,68847,128,5051,0.364286347,128,0.027766827,385,0.004543663,63,36608,25117.1875
4.974084493,68968,128,5184,0.373878524,128,0.406189013,5632,0.036349301,504,37248,25136.71875
4.962977763,68814,128,5091,0.367171212,128,0.072770723,1009,0.018391015,255,37888,25156.25
4.962905641,68813,128,4994,0.360175414,128,0.360247536,4995,0.013919474,193,38528,25175.78125
4.969396588,68903,128,5018,0.361906333,128,0.369190618,5119,0.030002598,416,39168,25195.3125
4.975743291,68991,128,5272,0.380225227,128,0.129241959,1792,0.017814042,247,39808,25214.84375
5.002067685,69356,128,5219,0.376402781,128,0.295626556,4099,0.017020704,236,40448,25234.375
5.055581934,70098,128,5507,0.39717381,128,0.323321262,4483,0.036349301,504,41088,25253.90625
5.089911829,70574,128,5928,0.427537015,128,0.055389411,768,0.018318894,254,41728,25273.4375
5.050605542,70029,128,5993,0.432224921,128,0.431647948,5985,0.028560165,396,42368,25292.96875
4.991465806,69209,128,5243,0.3781337,128,0.004255176,59,0.28560165,3960,43008,25312.5
4.954972262,68703,128,4889,0.352602643,128,0.06642402,921,0.00223577,31,43648,25332.03125
4.958938951,68758,128,4979,0.35909359,128,0.028199557,391,0.013847353,192,44288,25351.5625
4.996153712,69274,128,4472,0.322527924,128,0.022790435,316,0.295049583,4091,44928,25371.09375
5.494009315,76177,128,10320,0.744295209,128,0,0,0.073780426,1023,45568,25390.625
5.514996709,76468,128,11270,0.812810756,128,4.33E-04,6,1.15394606,16000,46208,25410.15625
5.074261436,70357,128,4771,0.344092291,128,0.053297884,739,0.368974253,5116,46848,25429.6875
5.045557028,69959,128,5509,0.397318053,128,0.073924669,1025,0.572357246,7936,47488,25449.21875
5.044619446,69946,128,5453,0.393279242,128,0.093397509,1295,0.590387653,8186,48128,25468.75
5.040003662,69882,128,5331,0.384480403,128,0.09123386,1265,0.59067614,8190,48768,25488.28125
5.055798299,70101,128,5437,0.392125296,128,0.105946673,1469,0.01817465,252,49408,25507.8125
5.094527613,70638,128,5633,0.406261135,128,0.313296355,4344,0.017814042,247,50048,25527.34375
5.101595533,70736,128,5706,0.411526014,128,0.406189013,5632,0.006346703,88,50688,25546.875
5.162394066,71579,128,6304,0.454654748,128,0.553894109,7680,0.036854152,511,51328,25566.40625
