Device,Device,Device,Device,Device,Device,Device,Device,Device,Device,Device,Device
ECG LL-RA,ECG LL-RA,EXG2 Status,ECG LA-RA,ECG LA-RA,EXG1 Status,ECG Vx-RL,ECG Vx-RL,ExG2 CH1,ExG2 CH1,Timestamp,Timestamp
CAL,RAW,RAW,CAL,RAW,RAW,CAL,RAW,RAW,CAL,CAL,RAW
mV,No Units,No Units,mV,No Units,No Units,mV,No Units,No Units,mV,mSecs,No Units
-17.11763586,-237344,128,-16.18200197,-224371,128,-15.34517471,-212768,2531,0.182539842,8058.59375,1920
-15.6405849,-216864,128,-15.59233553,-216195,128,-14.76704774,-204752,60,0.004327298,8078.125,2560
-16.95132338,-235038,128,-16.01215553,-222016,128,-14.25332537,-197629,16259,1.172625562,8097.65625,3200
-17.01702619,-235949,128,-15.9813596,-221589,128,-8.870455488,-122993,15375,1.108870042,8117.1875,3840
-17.01558376,-235929,128,-15.95496308,-221223,128,-8.85812269,-122822,14316,1.032493238,8136.71875,4480
-16.99524546,-235647,128,-15.91392588,-220654,128,-9.416488339,-130564,15873,1.144786614,8156.25,5120
-16.96120405,-235175,128,-15.88976513,-220319,128,-9.452260667,-131060,15872,1.144714492,8175.78125,5760
-16.93156206,-234764,128,-15.86661409,-219998,128,-8.566823431,-118783,15855,1.143488424,8195.3125,6400
-16.9156953,-234544,128,-15.84000121,-219629,128,-7.079531202,-98161,16272,1.173563143,8214.84375,7040
-16.95197248,-235047,128,-15.79781005,-219044,128,-6.942716472,-96264,16142,1.164187332,8234.375,7680
-16.91793107,-234575,128,-15.77574084,-218738,128,-6.498807847,-90109,16159,1.165413399,8253.90625,8320
-16.81508563,-233149,128,-15.69200762,-217577,128,-5.97289693,-82817,16182,1.167072197,8273.4375,8960
-16.72421238,-231889,128,-15.65666803,-217087,128,-5.910583843,-81953,13199,0.951933378,8292.96875,9600
-16.65966352,-230994,128,-15.62594421,-216661,128,-4.874196038,-67583,16319,1.17695286,8312.5,10240
-16.73156878,-231991,128,-15.66726991,-217234,128,-4.726635185,-65537,15423,1.112331881,8332.03125,10880
-16.91973411,-234600,128,-15.76456198,-218583,128,-5.132824198,-71169,12406,0.894740927,8351.5625,11520
-17.08229626,-236854,128,-15.84476123,-219695,128,-5.30382458,-73540,12518,0.902818549,8371.09375,12160
-17.11035158,-237243,128,-15.84288607,-219669,128,-5.171697756,-71708,12415,0.895390021,8390.625,12800
-17.1284541,-237494,128,-15.85889707,-219891,128,-5.206748868,-72194,12429,0.896399724,8410.15625,13440
-17.10595216,-237182,128,-15.8466364,-219721,128,-5.241295128,-72673,12351,0.890774237,8429.6875,14080
-17.1027788,-237138,128,-15.84252546,-219664,128,-5.236679344,-72609,12350,0.890702115,8449.21875,14720
-17.10047091,-237106,128,-15.83545754,-219566,128,-5.289688741,-73344,12640,0.911617388,8468.75,15360
-17.09729756,-237062,128,-15.83466421,-219555,128,-5.308224,-73601,12288,0.886230574,8488.28125,16000
-17.0974418,-237064,128,-15.84093879,-219642,128,-5.917435398,-82048,12392,0.893731224,8507.8125,16640
-17.10523094,-237172,128,-15.82319687,-219396,128,-5.309305824,-73616,12292,0.886519061,8527.34375,17280
-17.09325875,-237006,128,-15.82074473,-219362,128,-5.945057982,-82431,12784,0.922002902,8546.875,17920
-17.15052332,-237800,128,-15.84281395,-219668,128,-5.935970656,-82305,12303,0.887312399,8566.40625,18560
-17.15787973,-237902,128,-15.82305262,-219394,128,-5.911665667,-81968,8128,0.586204599,8585.9375,19200
-17.21586552,-238706,128,-15.84504972,-219699,128,-5.908275951,-81921,7175,0.517472686,8605.46875,19840
-17.23533836,-238976,128,-15.82146595,-219372,128,-5.908852924,-81929,8128,0.586204599,8625,20480
-17.28257803,-239631,128,-15.82341323,-219399,128,-6.083892117,-84356,7368,0.531392161,8644.53125,21120
-17.28207317,-239624,128,-15.82766841,-219458,128,-6.076247224,-84250,7199,0.519203606,8664.0625,21760
-17.29173747,-239758,128,-15.83170722,-219514,128,-6.129833595,-84993,6143,0.443043166,8683.59375,22400
-17.27103856,-239471,128,-15.81569622,-219292,128,-6.055908925,-83968,7411,0.534493391,8703.125,23040
-17.23425653,-238961,128,-15.79651186,-219026,128,-6.055404074,-83961,8189,0.590604018,8722.65625,23680
-17.23389593,-238956,128,-15.7422764,-218274,128,-6.055476195,-83962,7920,0.5712033,8742.1875,24320
-17.23843959,-239019,128,-15.75446495,-218443,128,-5.908492316,-81924,8063,0.581516693,8761.71875,24960
-17.27918831,-239584,128,-15.82471142,-219417,128,-6.137694852,-85102,6268,0.452058369,8781.25,25600
-17.27976528,-239592,128,-15.8289666,-219476,128,-6.202532196,-86001,7168,0.516967835,8800.78125,26240
-17.26772097,-239425,128,-15.82932721,-219481,128,-6.193300628,-85873,7500,0.540912216,8820.3125,26880
-17.36768155,-240811,128,-15.87685536,-220140,128,-6.201017642,-85980,6144,0.443115287,8839.84375,27520
-16.18027105,-224347,128,-15.39154892,-213411,128,-5.301011837,-73501,26168,1.887278782,8859.375,28160
-16.08211351,-222986,128,-15.44715469,-214182,128,-5.767494532,-79969,12349,0.890629994,8878.90625,28800
-17.05936158,-236536,128,-15.76773533,-218627,128,-5.908275951,-81921,13280,0.95777523,8898.4375,29440
-17.14251782,-237689,128,-15.79651186,-219026,128,-6.02821422,-83584,12348,0.890557872,8917.96875,30080
-17.15153303,-237814,128,-15.77956328,-218791,128,-6.055331952,-83960,7946,0.573078462,8937.5,30720
-17.13465656,-237580,128,-15.76650927,-218610,128,-5.912819614,-81984,8160,0.588512491,8957.03125,31360
-17.11727525,-237339,128,-15.76268682,-218557,128,-5.917435398,-82048,12295,0.886735426,8976.5625,32000
-17.09333087,-237007,128,-15.74609885,-218327,128,-5.908636559,-81926,12947,0.933758728,8996.09375,32640
-17.06138099,-236564,128,-15.71638473,-217915,128,-5.922051182,-82112,13127,0.946740621,9015.625,33280
-16.99308181,-235617,128,-15.68739184,-217513,128,-5.908275951,-81921,14272,1.029319886,9035.15625,33920
-16.927379,-234706,128,-15.64246007,-216890,128,-5.908348073,-81922,16383,1.181568644,9054.6875,34560
-16.87840842,-234027,128,-15.55966444,-215742,128,-5.926162115,-82169,16371,1.180703185,9074.21875,35200
-16.77635631,-232612,128,-15.52836365,-215308,128,-4.911122311,-68095,12767,0.920776835,9093.75,35840
-16.72543844,-231906,128,-15.51011688,-215055,128,-4.874556646,-67588,13854,0.999173045,9113.28125,36480
-17.01385284,-235905,128,-15.61837144,-216556,128,-5.021901133,-69631,15359,1.107716096,9132.8125,37120
-17.15997126,-237931,128,-15.69042095,-217555,128,-5.917435398,-82048,12296,0.886807547,9152.34375,37760
-17.27522162,-239529,128,-15.73968002,-218238,128,-5.921402087,-82103,8060,0.581300328,9171.875,38400
-17.27990952,-239594,128,-15.73939153,-218234,128,-5.982344864,-82948,7684,0.554182596,9191.40625,39040
-17.52800793,-243034,128,-15.75763831,-218487,128,-6.205921913,-86048,4103,0.295915043,9210.9375,39680
-17.54921169,-243328,128,-15.75309464,-218424,128,-6.239386349,-86512,31,0.00223577,9230.46875,40320
-17.5088957,-242769,128,-15.75525829,-218454,128,-6.209744359,-86101,1007,0.07262648,9250,40960
-17.46216088,-242121,128,-15.74097821,-218256,128,-6.054682857,-83951,1808,0.130395905,9269.53125,41600
-17.43944257,-241806,128,-15.75085887,-218393,128,-6.047326451,-83849,2032,0.14655115,9289.0625,42240
-17.4108824,-241410,128,-15.72987148,-218102,128,-5.98220062,-82946,6160,0.444269233,9308.59375,42880
-17.4002084,-241262,128,-15.73881456,-218226,128,-6.295424854,-87289,4494,0.3241146,9328.125,43520
-17.39335685,-241167,128,-15.72186598,-217991,128,-6.055476195,-83962,4504,0.324835816,9347.65625,44160
-17.38145678,-241002,128,-15.72842905,-218082,128,-6.204190994,-86024,4291,0.309473909,9367.1875,44800
-17.36393122,-240759,128,-15.71429321,-217886,128,-6.203758264,-86018,5104,0.368108793,9386.71875,45440
-17.35614209,-240651,128,-15.72785207,-218074,128,-5.98306608,-82958,4943,0.356497211,9406.25,46080
-17.35679118,-240660,128,-15.73701152,-218201,128,-6.03751791,-83713,6398,0.461434181,9425.78125,46720
-17.34755961,-240532,128,-15.71739444,-217929,128,-5.923133006,-82127,5119,0.369190618,9445.3125,47360
-17.34546809,-240503,128,-15.72439024,-218026,128,-6.205994035,-86049,5112,0.368685766,9464.84375,48000
-17.34215049,-240457,128,-15.7202793,-217969,128,-5.993595838,-83104,6081,0.438571625,9484.375,48640
-17.33702985,-240386,128,-15.73982426,-218240,128,-6.205994035,-86049,5756,0.415132095,9503.90625,49280
-17.33162073,-240311,128,-15.72330841,-218011,128,-5.944048279,-82417,6141,0.442898922,9523.4375,49920
-17.31669156,-240104,128,-15.71349987,-217875,128,-5.995975852,-83137,6140,0.442826801,9542.96875,50560
-17.32181219,-240175,128,-15.7352806,-218177,128,-5.990206121,-83057,6104,0.440230422,9562.5,51200
-17.35044448,-240572,128,-15.68328091,-217456,128,-5.945634955,-82439,7175,0.517472686,9582.03125,51840
-17.33234195,-240321,128,-15.65573044,-217074,128,-6.203109169,-86009,6143,0.443043166,9601.5625,52480
-17.4098727,-241396,128,-15.69301733,-217591,128,-5.912603249,-81981,4848,0.349645656,9621.09375,53120
-17.44340926,-241861,128,-15.74508914,-218313,128,-6.019199016,-83459,2047,0.147632974,9640.625,53760
-17.45011657,-241954,128,-15.73823759,-218218,128,-6.205921913,-86048,2039,0.147056001,9660.15625,54400
-17.45350629,-242001,128,-15.7416273,-218265,128,-5.986672161,-83008,2047,0.147632974,9679.6875,55040
-17.34409777,-240484,128,-15.74141094,-218262,128,-6.38600962,-88545,28,0.002019406,9699.21875,55680
-15.8359624,-219573,128,-15.13393046,-209839,128,-4.744809836,-65789,31751,2.289933835,9718.75,56320
-16.79049215,-232808,128,-15.5455286,-215546,128,-4.892298566,-67834,16348,1.179044387,9738.28125,56960
-17.28027013,-239599,128,-15.7059271,-217770,128,-5.908708681,-81927,8191,0.590748261,9757.8125,57600
-17.35130994,-240584,128,-15.74011275,-218244,128,-5.925585142,-82161,6136,0.442538314,9777.34375,58240
-17.33133225,-240307,128,-15.7112641,-217844,128,-5.908780802,-81928,7171,0.5171842,9796.875,58880
-17.31380669,-240064,128,-15.71501442,-217896,128,-5.908275951,-81921,6039,0.435542516,9816.40625,59520
-17.27075008,-239467,128,-15.68796881,-217521,128,-5.944697373,-82426,6112,0.440807395,9835.9375,60160
-17.24940208,-239171,128,-15.66835173,-217249,128,-5.912314762,-81977,8160,0.588512491,9855.46875,60800
-17.21600976,-238708,128,-15.6565959,-217086,128,-6.055908925,-83968,8068,0.581877301,9875,61440
-17.15715851,-237892,128,-15.60466833,-216366,128,-5.974916336,-82845,7361,0.530887309,9894.53125,62080
-17.0867678,-236916,128,-15.5722136,-215916,128,-5.9644587,-82700,14528,1.047783023,9914.0625,62720
-16.95334279,-235066,128,-15.50658292,-215006,128,-5.012092592,-69495,16321,1.177097103,9933.59375,63360
-16.86138771,-233791,128,-15.47391182,-214553,128,-4.855877144,-67329,15551,1.121563449,9953.125,64000
-16.88533209,-234123,128,-15.51761753,-215159,128,-4.731250969,-65601,12288,0.886230574,9972.65625,64640
-17.04529787,-236341,128,-15.58433003,-216084,128,-5.012813808,-69505,16134,1.163610359,9992.1875,65280
-17.24024263,-239044,128,-15.67570814,-217351,128,-5.945130103,-82432,7600,0.548124379,10011.71875,384
-17.28402046,-239651,128,-15.7085956,-217807,128,-5.909285654,-81935,7809,0.563197799,10031.25,1024
-17.29260293,-239770,128,-15.70188829,-217714,128,-5.967199322,-82738,6143,0.443043166,10050.78125,1664
-17.29346839,-239782,128,-15.71220168,-217857,128,-5.926450601,-82173,6128,0.441961341,10070.3125,2304
-17.28171257,-239619,128,-15.69813796,-217662,128,-5.912819614,-81984,8191,0.590748261,10089.84375,2944
-17.2611579,-239334,128,-15.69849857,-217667,128,-5.940586441,-82369,8190,0.59067614,10109.375,3584
-17.26923552,-239446,128,-15.694604,-217613,128,-5.908925046,-81930,8176,0.589666437,10128.90625,4224
-17.25921062,-239307,128,-15.69698402,-217646,128,-5.91974329,-82080,8135,0.58670945,10148.4375,4864
-17.25531605,-239253,128,-15.68501183,-217480,128,-5.93568217,-82301,8178,0.58981068,10167.96875,5504
-17.24529114,-239114,128,-15.70657619,-217779,128,-5.973041174,-82819,8179,0.589882802,10187.5,6144
-17.25156572,-239201,128,-15.69020458,-217552,128,-5.945057982,-82431,6144,0.443115287,10207.03125,6784
-17.25755182,-239284,128,-15.7122738,-217858,128,-5.977512715,-82881,8000,0.57697303,10226.5625,7424
-17.24630085,-239128,128,-15.69395491,-217604,128,-5.908275951,-81921,6258,0.451337153,10246.09375,8064
-17.24759904,-239146,128,-15.69619068,-217635,128,-5.947510117,-82465,8151,0.587863396,10265.625,8704
-17.24312749,-239084,128,-15.70080646,-217699,128,-5.977512715,-82881,6208,0.447731071,10285.15625,9344
-17.24694994,-239137,128,-15.69936403,-217679,128,-5.926450601,-82173,6369,0.459342654,10304.6875,9984
-17.23483351,-238969,128,-15.69546946,-217625,128,-5.930200926,-82225,6228,0.449173504,10324.21875,10624
-17.21593764,-238707,128,-15.68731972,-217512,128,-5.962583537,-82674,6159,0.444197112,10343.75,11264
-17.20648971,-238576,128,-15.67102023,-217286,128,-5.924936047,-82152,7198,0.519131484,10363.28125,11904
-17.1664622,-238021,128,-15.62197752,-216606,128,-5.013462903,-69514,7481,0.539541905,10382.8125,12544
-17.19430115,-238407,128,-15.64563342,-216934,128,-6.053961641,-83941,8125,0.585988234,10402.34375,13184
-17.22495284,-238832,128,-15.69799372,-217660,128,-5.908348073,-81922,8098,0.58404095,10421.875,13824
-17.23129955,-238920,128,-15.69611856,-217634,128,-5.973113295,-82820,6320,0.455808694,10441.40625,14464
-17.25163785,-239202,128,-15.70434042,-217748,128,-5.97953212,-82909,6367,0.45919841,10460.9375,15104
-17.32267765,-240187,128,-15.77941904,-218789,128,-6.010905029,-83344,5936,0.428113988,10480.46875,15744
-16.13945021,-223781,128,-15.31452302,-212343,128,-5.908131708,-81919,2047,0.147632974,10500,16384
-16.74274763,-232146,128,-15.59969194,-216297,128,-4.72728428,-65546,4151,0.299376881,10519.53125,17024
-17.04890395,-236391,128,-15.65017708,-216997,128,-5.012813808,-69505,15391,1.110023988,10539.0625,17664
-17.11366917,-237289,128,-15.65522559,-217067,128,-5.912819614,-81984,12796,0.922868362,10558.59375,18304
-17.11749162,-237342,128,-15.6599135,-217132,128,-5.912819614,-81984,14338,1.034079913,10578.125,18944
-17.08251263,-236857,128,-15.61563082,-216518,128,-5.003510118,-69376,14528,1.047783023,10597.65625,19584
-17.07032407,-236688,128,-15.62341996,-216626,128,-5.017934444,-69576,13253,0.955827946,10617.1875,20224
-17.05265427,-236443,128,-15.61750598,-216544,128,-4.982739089,-69088,15456,1.114711894,10636.71875,20864
-17.00202489,-235741,128,-15.5631984,-215791,128,-5.912819614,-81984,15872,1.144714492,10656.25,21504
-16.97613322,-235382,128,-15.56016929,-215749,128,-4.945884937,-68577,14344,1.034512643,10675.78125,22144
-16.884683,-234114,128,-15.48610037,-214722,128,-4.72685155,-65540,14479,1.044249063,10695.3125,22784
-16.81580684,-233159,128,-15.4454959,-214159,128,-4.83842371,-67087,14397,1.038335089,10714.84375,23424
-16.70171043,-231577,128,-15.38895254,-213375,128,-4.728438226,-65562,15591,1.124448314,10734.375,24064
-16.70214316,-231583,128,-15.41195934,-213694,128,-4.730962483,-65597,14080,1.015472533,10753.90625,24704
-16.93350934,-234791,128,-15.54509587,-215540,128,-4.86720024,-67486,16270,1.1734189,10773.4375,25344
-17.06895376,-236669,128,-15.60091801,-216314,128,-5.013102295,-69509,14332,1.033647184,10792.96875,25984
-17.1381184,-237628,128,-15.62305935,-216621,128,-5.912819614,-81984,8128,0.586204599,10812.5,26624
-17.14799907,-237765,128,-15.64346977,-216904,128,-5.977584836,-82882,8188,0.590531896,10832.03125,27264
-17.13328625,-237561,128,-15.63099273,-216731,128,-5.955010766,-82569,14336,1.03393567,10851.5625,27904
-17.12102558,-237391,128,-15.63770004,-216824,128,-4.985984562,-69133,12348,0.890557872,10871.09375,28544
-17.12737228,-237479,128,-15.62147267,-216599,128,-5.014111997,-69523,14456,1.042590266,10890.625,29184
-17.14049842,-237661,128,-15.63120909,-216734,128,-6.054827101,-83953,8188,0.590531896,10910.15625,29824
-17.13847901,-237633,128,-15.63019939,-216720,128,-5.912819614,-81984,8167,0.589017342,10929.6875,30464
-17.14194085,-237681,128,-15.62500663,-216648,128,-6.051870114,-83912,8175,0.589594315,10949.21875,31104
-17.14583542,-237735,128,-15.63351698,-216766,128,-5.019593241,-69599,7943,0.572862097,10968.75,31744
-17.14922513,-237782,128,-15.62911756,-216705,128,-5.981551526,-82937,7939,0.572573611,10988.28125,32384
-17.15348031,-237841,128,-15.6335891,-216767,128,-5.924359074,-82144,8064,0.581588814,11007.8125,33024
-17.14590754,-237736,128,-15.62039085,-216584,128,-6.038022761,-83720,8152,0.587935518,11027.34375,33664
-17.23194864,-238929,128,-15.64642675,-216945,128,-6.046749478,-83841,8167,0.589017342,11046.875,34304
-17.24384871,-239094,128,-15.61678477,-216534,128,-6.202532196,-86001,6158,0.44412499,11066.40625,34944
-17.24132445,-239059,128,-15.62327571,-216624,128,-5.020025971,-69605,6159,0.444197112,11085.9375,35584
-17.24211779,-239070,128,-15.57942576,-216016,128,-5.940009468,-82361,6336,0.45696264,11105.46875,36224
-17.19870057,-238468,128,-15.55201954,-215636,128,-6.064130791,-84082,7228,0.521295133,11125,36864
-17.24002626,-239041,128,-15.61137564,-216459,128,-5.911737789,-81969,8160,0.588512491,11144.53125,37504
-17.24370447,-239092,128,-15.62652119,-216669,128,-5.019593241,-69599,6156,0.443980747,11164.0625,38144
-17.2408196,-239052,128,-15.63459881,-216781,128,-6.055404074,-83961,6207,0.44765895,11183.59375,38784
-17.29072777,-239744,128,-15.63726731,-216818,128,-6.036436085,-83698,8064,0.581588814,11203.125,39424
-17.09902848,-237086,128,-15.62414117,-216636,128,-5.912747492,-81983,6295,0.454005653,11222.65625,40064
-15.6775833,-217377,128,-15.12635769,-209734,128,-5.68239101,-78789,16383,1.181568644,11242.1875,40704
-16.68238183,-231309,128,-15.47333485,-214545,128,-4.874268159,-67584,14336,1.03393567,11261.71875,41344
-17.16509189,-238002,128,-15.60019679,-216304,128,-4.865613564,-67464,12288,0.886230574,11281.25,41984
-17.21774068,-238732,128,-15.5952204,-216235,128,-5.909069289,-81932,6416,0.46273237,11300.78125,42624
-17.22091403,-238776,128,-15.60214407,-216331,128,-6.171231409,-85567,6393,0.461073573,11320.3125,43264
-17.34597294,-240510,128,-15.58295972,-216065,128,-5.982128499,-82945,7171,0.5171842,11339.84375,43904
-17.29404536,-239790,128,-15.55901534,-215733,128,-5.020242336,-69608,7939,0.572573611,11359.375,44544
-17.26086941,-239330,128,-15.55793352,-215718,128,-5.947798604,-82469,6159,0.444197112,11378.90625,45184
-17.25711909,-239278,128,-15.54661042,-215561,128,-5.92637848,-82172,8191,0.590748261,11398.4375,45824
-17.22437587,-238824,128,-15.504852,-214982,128,-6.058216817,-84000,6654,0.479897318,11417.96875,46464
-17.14742209,-237757,128,-15.48530704,-214711,128,-4.874268159,-67584,8131,0.586420964,11437.5,47104
-17.02459896,-236054,128,-15.41772907,-213774,128,-4.735578267,-65661,14847,1.070789822,11457.03125,47744
-16.93495177,-234811,128,-15.39486651,-213457,128,-4.743944376,-65777,15303,1.103677285,11476.5625,48384
-17.01904559,-235977,128,-15.44354861,-214132,128,-4.743078916,-65765,14364,1.035955076,11496.09375,49024
-17.23663655,-238994,128,-15.52331513,-215238,128,-5.917435398,-82048,8174,0.589522194,11515.625,49664
-17.40330963,-241305,128,-15.58627732,-216111,128,-6.201883102,-85992,5104,0.368108793,11535.15625,50304
-17.45098203,-241966,128,-15.60921199,-216429,128,-5.917435398,-82048,3792,0.273485216,11554.6875,50944
-17.45127051,-241970,128,-15.61007745,-216441,128,-6.042061572,-83776,3710,0.267571243,11574.21875,51584
-17.44203895,-241842,128,-15.6172175,-216540,128,-6.145988839,-85217,2016,0.145397204,11593.75,52224
-17.41391151,-241452,128,-15.61130352,-216458,128,-5.935970656,-82305,6388,0.460712965,11613.28125,52864
-17.38325982,-241027,128,-15.60618289,-216387,128,-6.051437384,-83906,6151,0.443620139,11632.8125,53504
-17.37316279,-240887,128,-15.61087079,-216452,128,-6.203614021,-86016,6144,0.443115287,11652.34375,54144
-17.3505166,-240573,128,-15.58043546,-216030,128,-6.166687747,-85504,6149,0.443475895,11671.875,54784
-17.35246388,-240600,128,-15.59983618,-216299,128,-5.924431196,-82145,7224,0.521006646,11691.40625,55424
-17.35527663,-240639,128,-15.59637434,-216251,128,-5.927820912,-82192,7175,0.517472686,11710.9375,56064
-17.33854441,-240407,128,-15.58959491,-216157,128,-6.17570295,-85629,7213,0.520213308,11730.46875,56704
-17.3451796,-240499,128,-15.59168644,-216186,128,-5.98306608,-82958,7172,0.517256322,11750,57344
-17.34438626,-240488,128,-15.59680707,-216257,128,-6.201450372,-85986,7171,0.5171842,11769.53125,57984
-17.32967345,-240284,128,-15.59875436,-216284,128,-6.019271138,-83460,7487,0.539974635,11789.0625,58624
-17.32952921,-240282,128,-15.59009976,-216164,128,-4.94602918,-68579,7670,0.553172893,11808.59375,59264
-17.28870836,-239716,128,-15.58562822,-216102,128,-5.908780802,-81928,8064,0.581588814,11828.125,59904
-17.2708222,-239468,128,-15.5218727,-215218,128,-5.917723884,-82052,6144,0.443115287,11847.65625,60544
-17.25726333,-239280,128,-15.5458892,-215551,128,-6.060524709,-84032,6160,0.444269233,11867.1875,61184
-17.30255572,-239908,128,-15.57315118,-215929,128,-4.947615856,-68601,7804,0.562837191,11886.71875,61824
-17.3248413,-240217,128,-15.61007745,-216441,128,-5.915199627,-82017,7420,0.535142486,11906.25,62464
-17.30269996,-239910,128,-15.59385009,-216216,128,-6.140291231,-85138,8190,0.59067614,11925.78125,63104
-17.43937045,-241805,128,-15.68061241,-217419,128,-6.203469778,-86014,6147,0.443331652,11945.3125,63744
-16.6365846,-230674,128,-15.37885551,-213235,128,-4.743944376,-65777,30783,2.220120099,11964.84375,64384
-16.55681807,-229568,128,-15.3464729,-212786,128,-5.620943382,-77937,16320,1.177024982,11984.375,65024
-17.09830726,-237076,128,-15.55706806,-215706,128,-5.001202226,-69344,12782,0.921858659,12003.90625,128
-17.20504727,-238556,128,-15.57935364,-216015,128,-4.911266555,-68097,8190,0.59067614,12023.4375,768
-17.2007921,-238497,128,-15.55980868,-215744,128,-6.122837797,-84896,7263,0.52381939,12042.96875,1408
-17.19660904,-238439,128,-15.54862983,-215589,128,-5.91087233,-81957,7423,0.53535885,12062.5,2048
-17.16321673,-237976,128,-15.54935104,-215599,128,-5.90914141,-81933,7652,0.551874703,12082.03125,2688
-17.11821283,-237352,128,-15.52107936,-215207,128,-5.911088694,-81960,14336,1.03393567,12101.5625,3328
-17.09405209,-237017,128,-15.51134294,-215072,128,-4.875349984,-67599,14396,1.038262968,12121.09375,3968
-17.04176391,-236292,128,-15.47376758,-214551,128,-4.858040793,-67359,15932,1.14904179,12140.625,4608
-16.95218884,-235050,128,-15.4368413,-214039,128,-5.91397356,-82000,14380,1.037109022,12160.15625,5248
-16.84710763,-233593,128,-15.36183481,-212999,128,-4.727067915,-65543,16263,1.172914049,12179.6875,5888
-16.76907203,-232511,128,-15.3324813,-212592,128,-5.880509124,-81536,15352,1.107211245,12199.21875,6528
-16.7146202,-231756,128,-15.30702237,-212239,128,-5.853896243,-81167,16368,1.18048682,12218.75,7168
-16.86989807,-233909,128,-15.39544349,-213465,128,-4.740482538,-65729,16136,1.163754602,12238.28125,7808
-17.09563876,-237039,128,-15.49540406,-214851,128,-5.908275951,-81921,14335,1.033863549,12257.8125,8448
-17.14648451,-237744,128,-15.51379508,-215106,128,-5.916353573,-82033,8176,0.589666437,12277.34375,9088
-17.17302527,-238112,128,-15.50477988,-214981,128,-4.874340281,-67585,7676,0.553605622,12296.875,9728
-17.16689493,-238027,128,-15.52670485,-215285,128,-5.9104396,-81951,7936,0.572357246,12316.40625,10368
-17.15852882,-237911,128,-15.5171848,-215153,128,-5.90957414,-81939,7694,0.554903812,12335.9375,11008
-17.13184382,-237541,128,-15.50636655,-215003,128,-4.733414618,-65631,14344,1.034512643,12355.46875,11648
-17.14583542,-237735,128,-15.51509327,-215124,128,-5.908348073,-81922,8184,0.59024341,12375,12288
-17.12989654,-237514,128,-15.49879378,-214898,128,-4.950428599,-68640,8182,0.590099167,12394.53125,12928
-17.13299777,-237557,128,-15.51033324,-215058,128,-4.949995869,-68634,14339,1.034152035,12414.0625,13568
-17.1104237,-237244,128,-15.47081059,-214510,128,-5.912819614,-81984,14734,1.062640078,12433.59375,14208
-17.11547221,-237314,128,-15.49612528,-214861,128,-5.980686066,-82925,14366,1.036099319,12453.125,14848
-17.11237098,-237271,128,-15.47708517,-214597,128,-4.858040793,-67359,14339,1.034152035,12472.65625,15488
-17.13364686,-237566,128,-15.48949009,-214769,128,-6.037373666,-83711,14336,1.03393567,12492.1875,16128
-17.1264347,-237466,128,-15.50910717,-215041,128,-5.908275951,-81921,14432,1.040859346,12511.71875,16768
-17.0634004,-236592,128,-15.4791767,-214626,128,-4.837486129,-67074,15344,1.106634272,12531.25,17408
-17.06880952,-236667,128,-15.47420031,-214557,128,-6.03975368,-83744,15232,1.09855665,12550.78125,18048
-17.01846862,-235969,128,-15.43590372,-214026,128,-4.726635185,-65537,15810,1.140242951,12570.3125,18688
-17.09289814,-237001,128,-15.47924882,-214627,128,-4.863017185,-67428,14399,1.038479333,12589.84375,19328
-17.11561645,-237316,128,-15.4925192,-214811,128,-4.870229348,-67528,14351,1.035017495,12609.375,19968
-17.1311226,-237531,128,-15.50679928,-215009,128,-4.873186335,-67569,14340,1.034224157,12628.90625,20608
-17.13516142,-237587,128,-15.50477988,-214981,128,-6.053673155,-83937,8191,0.590748261,12648.4375,21248
-17.02416623,-236048,128,-15.4765082,-214589,128,-5.910295357,-81949,24576,1.772461149,12667.96875,21888
-15.60243256,-216335,128,-14.92708563,-206971,128,-4.735289781,-65657,1017,0.073347696,12687.5,22528
-16.90220856,-234357,128,-15.42559033,-213883,128,-4.80034349,-66559,16256,1.172409197,12707.03125,23168
-17.03678751,-236223,128,-15.46504086,-214430,128,-4.811738707,-66717,14080,1.015472533,12726.5625,23808
-17.07486773,-236751,128,-15.45090502,-214234,128,-4.855949265,-67330,14462,1.043022995,12746.09375,24448
-17.0664295,-236634,128,-15.46258872,-214396,128,-4.873979673,-67580,14526,1.04763878,12765.625,25088
-17.0377251,-236236,128,-15.44196194,-214110,128,-4.735794632,-65664,15776,1.137790816,12785.15625,25728
-17.01709831,-235950,128,-15.44527953,-214156,128,-5.908925046,-81930,16192,1.167793413,12804.6875,26368
-16.97425806,-235356,128,-15.39580409,-213470,128,-4.727140036,-65544,14591,1.052326685,12824.21875,27008
-16.92276322,-234642,128,-15.37193184,-213139,128,-4.744088619,-65779,14816,1.068554052,12843.75,27648
-16.88028358,-234053,128,-15.35556023,-212912,128,-5.903588045,-81856,15807,1.140026586,12863.28125,28288
-16.81768201,-233185,128,-15.28769377,-211971,128,-5.908203829,-81920,14441,1.041508441,12882.8125,28928
-16.75609014,-232331,128,-15.21939459,-211024,128,-5.766268464,-79952,16183,1.167144318,12902.34375,29568
-16.68937763,-231406,128,-15.19552233,-210693,128,-5.620005801,-77924,14343,1.034440522,12921.875,30208
-16.82972632,-233352,128,-15.25329176,-211494,128,-5.894212233,-81726,12344,0.890269386,12941.40625,30848
-17.01399708,-235907,128,-15.34777109,-212804,128,-5.89450072,-81730,13855,0.999245167,12960.9375,31488
-17.19343569,-238395,128,-15.42335456,-213852,128,-5.915127506,-82016,7172,0.517256322,12980.46875,32128
-17.22531345,-238837,128,-15.42970126,-213940,128,-4.794934368,-66484,6152,0.44369226,13000,32768
-17.23858383,-239021,128,-15.43092733,-213957,128,-4.740987389,-65736,6208,0.447731071,13019.53125,33408
-17.22877529,-238885,128,-15.43886071,-214067,128,-4.804670787,-66619,6363,0.458909924,13039.0625,34048
-17.2151443,-238696,128,-15.4298455,-213942,128,-5.961862321,-82664,7167,0.516895713,13058.59375,34688
-17.20266726,-238523,128,-15.42097454,-213819,128,-5.940514319,-82368,7168,0.516967835,13078.125,35328
-17.189469,-238340,128,-15.42551821,-213882,128,-4.791761016,-66440,7405,0.534060661,13097.65625,35968
-17.17663135,-238162,128,-15.41542118,-213742,128,-4.798684692,-66536,7407,0.534204904,13117.1875,36608
-17.18218472,-238239,128,-15.4084975,-213646,128,-4.796953773,-66512,7648,0.551586217,13136.71875,37248
-17.17785742,-238179,128,-15.41700785,-213764,128,-4.754546255,-65924,7327,0.528435174,13156.25,37888
-17.18831506,-238324,128,-15.42140727,-213825,128,-4.758945675,-65985,7566,0.545672243,13175.78125,38528
-17.19336357,-238394,128,-15.42032545,-213810,128,-5.96489143,-82706,7235,0.521799984,13195.3125,39168
-17.19386842,-238401,128,-15.42443638,-213867,128,-5.944841617,-82428,7231,0.521511498,13214.84375,39808
-17.19076719,-238358,128,-15.4304946,-213951,128,-4.800271368,-66558,7191,0.518626633,13234.375,40448
-17.18853142,-238327,128,-15.42797034,-213916,128,-4.756565661,-65952,7553,0.544734662,13253.90625,41088
-17.19552722,-238424,128,-15.41664725,-213759,128,-4.7450262,-65792,7340,0.529372755,13273.4375,41728
-17.19906118,-238473,128,-15.44102436,-214097,128,-4.732404915,-65617,7281,0.525117579,13292.96875,42368
-17.19870057,-238468,128,-15.43886071,-214067,128,-5.908492316,-81924,7199,0.519203606,13312.5,43008
-17.19264235,-238384,128,-15.44520741,-214155,128,-5.991360067,-83073,7196,0.518987241,13332.03125,43648
-17.18954112,-238341,128,-15.44188982,-214109,128,-4.733414618,-65631,7288,0.525622431,13351.5625,44288
-17.18651202,-238299,128,-15.42436426,-213866,128,-5.912386884,-81978,7168,0.516967835,13371.09375,44928
-17.19718602,-238447,128,-15.44246679,-214117,128,-4.856381995,-67336,7385,0.532618229,13390.625,45568
-17.18889203,-238332,128,-15.44354861,-214132,128,-4.728798834,-65567,7239,0.522088471,13410.15625,46208
-17.15167727,-237816,128,-15.43366795,-213995,128,-5.980902431,-82928,8160,0.588512491,13429.6875,46848
-17.13364686,-237566,128,-15.46691602,-214456,128,-4.763489337,-66048,12290,0.886374818,13449.21875,47488
-17.07782472,-236792,128,-15.37806217,-213224,128,-4.726707307,-65538,14784,1.06624616,13468.75,48128
-17.12614621,-237462,128,-15.43179279,-213969,128,-5.982056377,-82944,12320,0.888538467,13488.28125,48768
-17.18160774,-238231,128,-15.45790082,-214331,128,-4.869580253,-67519,7279,0.524973336,13507.8125,49408
-17.18377139,-238261,128,-15.46020871,-214363,128,-5.945130103,-82432,7176,0.517544808,13527.34375,50048
-17.21132186,-238643,128,-15.46294933,-214401,128,-4.857175333,-67347,7427,0.535647337,13546.875,50688
-17.25358513,-239229,128,-15.51747328,-215157,128,-5.912603249,-81981,6529,0.470882114,13566.40625,51328
-15.95849704,-221272,128,-14.99992847,-207981,128,-5.603345704,-77693,4064,0.293102299,13585.9375,51968
-16.76250896,-232420,128,-15.32793764,-212529,128,-5.90337168,-81853,16156,1.165197035,13605.46875,52608
-17.00988615,-235850,128,-15.40171807,-213552,128,-4.72685155,-65540,14210,1.024848345,13625,53248
-17.08006049,-236823,128,-15.41195934,-213694,128,-4.728726712,-65566,14456,1.042590266,13644.53125,53888
-17.08821024,-236936,128,-15.4101563,-213669,128,-4.798179841,-66529,14463,1.043095117,13664.0625,54528
-17.06231857,-236577,128,-15.39739077,-213492,128,-5.908492316,-81924,14524,1.047494536,13683.59375,55168
-17.03909541,-236255,128,-15.38635616,-213339,128,-4.73348674,-65632,15361,1.10786034,13703.125,55808
-16.99942851,-235705,128,-15.35909419,-212961,128,-4.732404915,-65617,16271,1.173491022,13722.65625,56448
-16.97195017,-235324,128,-15.34286682,-212736,128,-4.7450262,-65792,14340,1.034224157,13742.1875,57088
-16.92059957,-234612,128,-15.31942729,-212411,128,-5.870772704,-81401,14788,1.066534646,13761.71875,57728
-16.82835601,-233333,128,-15.26050392,-211594,128,-5.905968059,-81889,14465,1.04323936,13781.25,58368
-16.74750766,-232212,128,-15.22855404,-211151,128,-5.774850938,-80071,16124,1.162889142,13800.78125,59008
-16.62670393,-230537,128,-15.18427136,-210537,128,-5.728116122,-79423,15359,1.107716096,13820.3125,59648
-16.62684818,-230539,128,-15.18261256,-210514,128,-5.658446629,-78457,14448,1.042013293,13839.84375,60288
-16.85641132,-233722,128,-15.30283932,-212181,128,-5.816032388,-80642,14275,1.029536251,13859.375,60928
-17.01983893,-235988,128,-15.3781343,-213225,128,-4.743367403,-65769,13856,0.999317288,13878.90625,61568
-17.11273159,-237276,128,-15.37784581,-213221,128,-4.743295281,-65768,14368,1.036243562,13898.4375,62208
-17.19430115,-238407,128,-15.40063624,-213537,128,-4.763561459,-66049,8095,0.583824585,13917.96875,62848
-17.20273938,-238524,128,-15.38137977,-213270,128,-4.728870956,-65568,7168,0.516967835,13937.5,63488
-17.25957123,-239312,128,-15.38289432,-213291,128,-5.927820912,-82192,6448,0.465040262,13957.03125,64128
-17.28603986,-239679,128,-15.38188462,-213277,128,-4.728654591,-65565,8185,0.590315532,13976.5625,64768
-17.33428923,-240348,128,-15.40157383,-213550,128,-5.910655965,-81954,7200,0.519275727,13996.09375,65408
-17.35924332,-240694,128,-15.37791793,-213222,128,-5.912819614,-81984,6351,0.458044464,14015.625,512
-17.41463273,-241462,128,-15.38527434,-213324,128,-4.733630983,-65634,6171,0.445062571,14035.15625,1152
-17.44110137,-241829,128,-15.38765435,-213357,128,-5.917363276,-82047,4056,0.292525326,14054.6875,1792
-17.47932583,-242359,128,-15.38563495,-213329,128,-5.909429897,-81937,3329,0.240092902,14074.21875,2432
-17.50038534,-242651,128,-15.39623682,-213476,128,-5.924431196,-82145,2047,0.147632974,14093.75,3072
-17.48776406,-242476,128,-15.38231735,-213283,128,-5.908275951,-81921,3268,0.235693483,14113.28125,3712
-17.48365313,-242419,128,-15.38058643,-213259,128,-5.908420194,-81923,3343,0.241102605,14132.8125,4352
-17.46684879,-242186,128,-15.38375978,-213303,128,-5.944048279,-82417,3568,0.257329971,14152.34375,4992
-17.4558863,-242034,128,-15.37777369,-213220,128,-4.761253567,-66017,3968,0.286178623,14171.875,5632
-17.44997233,-241952,128,-15.37323002,-213157,128,-5.917507519,-82049,4064,0.293102299,14191.40625,6272
-17.44276016,-241852,128,-15.40352111,-213577,128,-5.950394982,-82505,3911,0.28206769,14210.9375,6912
-17.41859942,-241517,128,-15.36753242,-213078,128,-5.908780802,-81928,6147,0.443331652,14230.46875,7552
-17.42126792,-241554,128,-15.38505797,-213321,128,-5.917219033,-82045,6271,0.452274734,14250,8192
-17.36789791,-240814,128,-15.35130505,-212853,128,-4.731178848,-65600,6419,0.462948735,14269.53125,8832
-17.35570936,-240645,128,-15.33385162,-212611,128,-5.906112302,-81891,6655,0.47996944,14289.0625,9472
-17.31647519,-240101,128,-15.31610969,-212365,128,-5.900054085,-81807,7704,0.555625028,14308.59375,10112
-17.35671906,-240659,128,-15.34618441,-212782,128,-5.006971956,-69424,6144,0.443115287,14328.125,10752
-17.38664954,-241074,128,-15.40027564,-213532,128,-4.764354797,-66060,5056,0.364646955,14347.65625,11392
-17.35210328,-240595,128,-15.36984031,-213110,128,-4.735001294,-65653,7169,0.517039957,14367.1875,12032
-17.38636105,-241070,128,-15.40871387,-213649,128,-4.740482538,-65729,5056,0.364646955,14386.71875,12672
-17.05698157,-236503,128,-15.31481151,-212347,128,-5.89053403,-81675,16161,1.165557643,14406.25,13312
-15.73758849,-218209,128,-14.84522758,-205836,128,-5.428450755,-75268,903,0.065125831,14425.78125,13952
-17.08900357,-236947,128,-15.33825104,-212672,128,-5.881086097,-81544,12860,0.927484146,14445.3125,14592
-17.19660904,-238439,128,-15.3347892,-212624,128,-5.88166307,-81552,7832,0.564856597,14464.84375,15232
-17.22841468,-238880,128,-15.34416501,-212754,128,-5.907194127,-81906,6176,0.445423179,14484.375,15872
-17.21788492,-238734,128,-15.33132736,-212576,128,-4.986200927,-69136,6431,0.463814195,14503.90625,16512
-17.19076719,-238358,128,-15.32721643,-212519,128,-4.766302081,-66087,7182,0.517977538,14523.4375,17152
-17.18615141,-238294,128,-15.31235937,-212313,128,-5.894428598,-81729,7231,0.521511498,14542.96875,17792
-17.19502237,-238417,128,-15.3084648,-212259,128,-5.907266248,-81907,7392,0.53312308,14562.5,18432
-17.12463166,-237441,128,-15.25617662,-211534,128,-4.72771701,-65552,14367,1.036171441,14582.03125,19072
-17.07061256,-236692,128,-15.2197552,-211029,128,-5.834423403,-80897,14700,1.060187943,14601.5625,19712
-17.03152264,-236150,128,-15.19169989,-210640,128,-5.904741991,-81872,15744,1.135482923,14621.09375,20352
-16.95298218,-235061,128,-15.12260736,-209682,128,-5.817186334,-80658,14563,1.05030728,14640.625,20992
-16.89679943,-234282,128,-15.10976972,-209504,128,-5.876037583,-81474,15390,1.109951867,14660.15625,21632
-16.96719014,-235258,128,-15.14554204,-210000,128,-5.760715098,-79875,15504,1.118173733,14679.6875,22272
-17.11987163,-237375,128,-15.22588554,-211114,128,-5.852381689,-81146,12480,0.900077927,14699.21875,22912
-15.32252852,-212454,128,-302.5000361,-4194304,152,-9.453126127,-131072,0,0,14718.75,23552
-17.31222001,-240042,128,-15.32815401,-212532,128,-4.829336384,-66961,6136,0.442538314,14738.28125,24192
-17.30608968,-239957,128,-15.33284191,-212597,128,-4.782024596,-66305,7782,0.561250515,14757.8125,24832
-17.29887751,-239857,128,-15.32685582,-212514,128,-5.907987464,-81917,6140,0.442826801,14777.34375,25472
-17.27500525,-239526,128,-15.32671157,-212512,128,-5.891976463,-81695,8179,0.589882802,14796.875,26112
-17.26404277,-239374,128,-15.33103887,-212572,128,-5.907987464,-81917,8191,0.590748261,14816.40625,26752
-17.24666145,-239133,128,-15.30976299,-212277,128,-5.843799215,-81027,6375,0.459775383,14835.9375,27392
-17.24038687,-239046,128,-15.31048421,-212287,128,-5.834784011,-80902,8129,0.58627672,14855.46875,28032
-17.2361317,-238987,128,-15.30615691,-212227,128,-5.868969663,-81376,6144,0.443115287,14875,28672
-17.25524393,-239252,128,-15.32887522,-212542,128,-5.84358285,-81024,7943,0.572862097,14894.53125,29312
-17.24327174,-239086,128,-15.30630115,-212229,128,-5.888947354,-81653,6168,0.444846206,14914.0625,29952
-17.31265274,-240048,128,-15.33226494,-212589,128,-5.899693477,-81802,8184,0.59024341,14933.59375,30592
-17.32181219,-240175,128,-15.30651752,-212232,128,-5.89493345,-81736,7679,0.553821987,14953.125,31232
-17.33529894,-240362,128,-15.32469217,-212484,128,-4.726707307,-65538,7175,0.517472686,14972.65625,31872
-17.33594803,-240371,128,-15.31163815,-212303,128,-4.727789131,-65553,7231,0.521511498,14992.1875,32512
-17.33003406,-240289,128,-15.30702237,-212239,128,-4.761253567,-66017,7230,0.521439376,15011.71875,33152
-17.31827823,-240126,128,-15.31005148,-212281,128,-4.754402012,-65922,7228,0.521295133,15031.25,33792
-17.31452791,-240074,128,-15.30795995,-212252,128,-4.768105122,-66112,7491,0.540263121,15050.78125,34432
-17.32945708,-240281,128,-15.31899456,-212405,128,-5.907987464,-81917,6096,0.439653449,15070.3125,35072
-17.31178728,-240036,128,-15.29137198,-212022,128,-4.728870956,-65568,7418,0.534998242,15089.84375,35712
-17.30262784,-239909,128,-15.30392114,-212196,128,-5.889884936,-81666,7935,0.572285124,15109.375,36352
-17.27399555,-239512,128,-15.28480891,-211931,128,-4.744160741,-65780,8064,0.581588814,15128.90625,36992
-17.25668636,-239272,128,-15.253436,-211496,128,-4.734929172,-65652,6172,0.445134693,15148.4375,37632
-17.23411229,-238959,128,-15.23151102,-211192,128,-5.788626169,-80262,6639,0.478815493,15167.96875,38272
-17.27760163,-239562,128,-15.26346091,-211635,128,-5.871349677,-81409,8184,0.59024341,15187.5,38912
-17.30089692,-239885,128,-15.32577399,-212499,128,-4.726707307,-65538,5891,0.424868515,15207.03125,39552
-17.30031995,-239877,128,-15.32086972,-212431,128,-4.730169145,-65586,7710,0.556057758,15226.5625,40192
-17.38030283,-240986,128,-15.36161844,-212996,128,-4.73348674,-65632,5691,0.410444189,15246.09375,40832
-17.20223453,-238517,128,-15.30882541,-212264,128,-4.799261665,-66544,4080,0.294256245,15265.625,41472
-15.72208234,-217994,128,-14.73805484,-204350,128,-5.281394754,-73229,16255,1.172337076,15285.15625,42112
-17.00281823,-235752,128,-15.25668147,-211541,128,-5.890894638,-81680,16251,1.172048589,15304.6875,42752
-17.14201297,-237682,128,-15.27759675,-211831,128,-5.908203829,-81920,12792,0.922579875,15324.21875,43392
-17.18752172,-238313,128,-15.27052883,-211733,128,-5.834351281,-80896,7182,0.517977538,15343.75,44032
-17.19040658,-238353,128,-15.27081731,-211737,128,-5.908203829,-81920,7375,0.531897012,15363.28125,44672
-17.1541294,-237850,128,-15.24882022,-211432,128,-5.893779504,-81720,7616,0.549278325,15382.8125,45312
-17.13501717,-237585,128,-15.25422934,-211507,128,-5.831538538,-80857,7807,0.563053556,15402.34375,45952
-17.08604659,-236906,128,-15.22163036,-211055,128,-5.792881345,-80321,14367,1.036171441,15421.875,46592
-17.0610925,-236560,128,-15.20057085,-210763,128,-5.899477112,-81799,14432,1.040859346,15441.40625,47232
-17.01652134,-235942,128,-15.18657925,-210569,128,-5.757036895,-79824,16154,1.165052791,15460.9375,47872
-16.90653585,-234417,128,-15.12123705,-209663,128,-5.613586976,-77835,14360,1.035666589,15480.46875,48512
-16.86672471,-233865,128,-15.0667131,-208907,128,-5.613298489,-77831,15839,1.142334478,15500,49152
-16.75572953,-232326,128,-15.01507402,-208191,128,-5.557404227,-77056,14415,1.039633279,15519.53125,49792
-16.80772922,-233047,128,-15.07118464,-208969,128,-5.610413624,-77791,14142,1.019944074,15539.0625,50432
-17.04623545,-236354,128,-15.18780532,-210586,128,-5.639406519,-78193,15419,1.112043394,15558.59375,51072
-17.16992404,-238069,128,-15.25862876,-211568,128,-5.76165268,-79888,12303,0.887312399,15578.125,51712
-17.20252302,-238521,128,-15.25386873,-211502,128,-5.872431501,-81424,8128,0.586204599,15597.65625,52352
-17.22509709,-238834,128,-15.27370218,-211777,128,-5.83384643,-80889,8003,0.577189395,15617.1875,52992
-17.22062555,-238772,128,-15.27997676,-211864,128,-5.904165018,-81864,8088,0.583319734,15636.71875,53632
-17.20252302,-238521,128,-15.28805438,-211976,128,-5.816176631,-80644,8190,0.59067614,15656.25,54272
-17.17966046,-238204,128,-15.25963846,-211582,128,-5.761075707,-79880,7427,0.535647337,15675.78125,54912
-17.18651202,-238299,128,-15.26634577,-211675,128,-5.767710896,-79972,7420,0.535142486,15695.3125,55552
-17.19365206,-238398,128,-15.27795735,-211836,128,-5.877047286,-81488,8191,0.590748261,15714.84375,56192
-17.16682281,-238026,128,-15.26281181,-211626,128,-5.761075707,-79880,7271,0.524396363,15734.375,56832
-17.17280891,-238109,128,-15.2667785,-211681,128,-5.790501331,-80288,8124,0.585916112,15753.90625,57472
-17.16422643,-237990,128,-15.26281181,-211626,128,-5.778529141,-80122,8159,0.588440369,15773.4375,58112
-17.18117502,-238225,128,-15.26497546,-211656,128,-5.880292759,-81533,7704,0.555625028,15792.96875,58752
-17.16343309,-237979,128,-15.24463716,-211374,128,-5.794612264,-80345,7806,0.562981434,15812.5,59392
-17.17331376,-238116,128,-15.28084222,-211876,128,-5.834134917,-80893,8007,0.577477882,15832.03125,60032
-17.16343309,-237979,128,-15.24268988,-211347,128,-5.806728698,-80513,8129,0.58627672,15851.5625,60672
-17.16480341,-237998,128,-15.26374939,-211639,128,-5.768576356,-79984,8185,0.590315532,15871.09375,61312
-17.16126945,-237949,128,-15.28401557,-211920,128,-5.905968059,-81889,8191,0.590748261,15890.625,61952
-17.16148581,-237952,128,-15.24297836,-211351,128,-5.863272055,-81297,8128,0.586204599,15910.15625,62592
-17.168121,-238044,128,-15.2674276,-211690,128,-5.761075707,-79880,8183,0.590171288,15929.6875,63232
-17.13696446,-237612,128,-15.24874809,-211431,128,-5.795405602,-80356,8156,0.588224004,15949.21875,63872
-17.11799647,-237349,128,-15.21600487,-210977,128,-5.907698978,-81913,14445,1.041796928,15968.75,64512
-17.10624064,-237186,128,-15.18910351,-210604,128,-5.743045299,-79630,14824,1.069131025,15988.28125,65152
-17.13242079,-237549,128,-15.22047642,-211039,128,-5.903660167,-81857,13199,0.951933378,16007.8125,256
-17.16141369,-237951,128,-15.24845961,-211427,128,-5.797713494,-80388,8143,0.587286423,16027.34375,896
-17.15369667,-237844,128,-15.26959124,-211720,128,-5.796920156,-80377,8176,0.589666437,16046.875,1536
-17.14742209,-237757,128,-15.23800197,-211282,128,-5.769586059,-79998,8191,0.590748261,16066.40625,2176
-17.26310519,-239361,128,-15.32094184,-212432,128,-5.908203829,-81920,6271,0.452274734,16085.9375,2816
-15.60546167,-216377,128,-14.72283718,-204139,128,-5.317455568,-73729,2048,0.147705096,16105.46875,3456
-16.51311237,-228962,128,-15.0623858,-208847,128,-5.35430972,-74240,14367,1.036171441,16125,4096
-16.99683213,-235669,128,-15.21232667,-210926,128,-5.631977991,-78090,16353,1.179404995,16144.53125,4736
-17.04565847,-236346,128,-15.20259025,-210791,128,-5.904165018,-81864,15587,1.124159828,16164.0625,5376
-17.0307293,-236139,128,-15.19631567,-210704,128,-5.893274652,-81713,15694,1.131876842,16183.59375,6016
-17.02445472,-236052,128,-15.19270959,-210654,128,-5.758407206,-79843,15856,1.143560546,16203.125,6656
-17.0044049,-235774,128,-15.1710731,-210354,128,-5.704676593,-79098,16323,1.177241347,16222.65625,7296
-16.95875191,-235141,128,-15.14720084,-210023,128,-5.752421111,-79760,14350,1.034945373,16242.1875,7936
-16.93408631,-234799,128,-15.13320924,-209829,128,-5.649070817,-78327,14576,1.051244861,16261.71875,8576
-16.85583435,-233714,128,-15.07082404,-208964,128,-5.619789436,-77921,16352,1.179332874,16281.25,9216
-16.81414805,-233136,128,-15.04565359,-208615,128,-5.6093318,-77776,14340,1.034224157,16300.78125,9856
-16.69644555,-231504,128,-14.95809793,-207401,128,-5.53894109,-76800,16383,1.181568644,16320.3125,10496
-16.68050667,-231283,128,-14.95052516,-207296,128,-5.530863468,-76688,16255,1.172337076,16339.84375,11136
-16.67783817,-231246,128,-14.95146274,-207309,128,-5.466026123,-75789,14399,1.038479333,16359.375,11776
-16.8873515,-234151,128,-15.06267429,-208851,128,-5.612793638,-77824,12328,0.88911544,16378.90625,12416
-17.02878201,-236112,128,-15.10349513,-209417,128,-5.613442733,-77833,15360,1.107788218,16398.4375,13056
-17.10761095,-237205,128,-15.15037419,-210067,128,-5.835000376,-80905,13310,0.959938879,16417.96875,13696
-17.12607409,-237461,128,-15.15837969,-210178,128,-5.756027193,-79810,14457,1.042662387,16437.5,14336
-17.1174195,-237341,128,-15.13861837,-209904,128,-5.84358285,-81024,14530,1.047927266,16457.03125,14976
-17.12001587,-237377,128,-15.16313972,-210244,128,-5.834928254,-80904,14455,1.042518144,16476.5625,15616
-17.09917272,-237088,128,-15.13284864,-209824,128,-5.815960266,-80641,14543,1.048864847,16496.09375,16256
-17.11136128,-237257,128,-15.14402749,-209979,128,-5.797136521,-80380,14339,1.034152035,16515.625,16896
-17.09917272,-237088,128,-15.1310456,-209799,128,-5.682102523,-78785,14560,1.050090915,16535.15625,17536
-17.10883702,-237222,128,-15.13970019,-209919,128,-5.834495525,-80898,14339,1.034152035,16554.6875,18176
-17.12196316,-237404,128,-15.17092886,-210352,128,-5.838967066,-80960,14340,1.034224157,16574.21875,18816
-17.12333347,-237423,128,-15.13695957,-209881,128,-5.788770412,-80264,14463,1.043095117,16593.75,19456
-17.1344402,-237577,128,-15.17027976,-210343,128,-5.871349677,-81409,12333,0.889476048,16613.28125,20096
-17.13617112,-237601,128,-15.14063777,-209932,128,-5.649719912,-78336,14432,1.040859346,16632.8125,20736
-17.13912811,-237642,128,-15.17136159,-210358,128,-5.847765904,-81082,8182,0.590099167,16652.34375,21376
-17.13833477,-237631,128,-15.14965298,-210057,128,-5.834423403,-80897,8128,0.586204599,16671.875,22016
-17.15283122,-237832,128,-15.16400518,-210256,128,-5.727755514,-79418,8190,0.59067614,16691.40625,22656
-17.14381601,-237707,128,-15.15426876,-210121,128,-5.756532044,-79817,8183,0.590171288,16710.9375,23296
-17.14915301,-237781,128,-15.15628817,-210149,128,-5.61510153,-77856,7936,0.572357246,16730.46875,23936
-17.13126685,-237533,128,-15.14958085,-210056,128,-5.834928254,-80904,14339,1.034152035,16750,24576
-17.10739459,-237202,128,-15.08532048,-209165,128,-5.612865759,-77825,14631,1.055211551,16769.53125,25216
-17.08986903,-236959,128,-15.09246052,-209264,128,-5.762301774,-79897,14336,1.03393567,16789.0625,25856
-17.15001847,-237793,128,-15.17186644,-210365,128,-5.648854452,-78324,8184,0.59024341,16808.59375,26496
-17.16574099,-238011,128,-15.17157795,-210361,128,-5.867166623,-81351,7753,0.559158988,16828.125,27136
-17.16364946,-237982,128,-15.16436579,-210261,128,-5.7510508,-79741,7682,0.554038352,16847.65625,27776
-17.28647259,-239685,128,-15.22465947,-211097,128,-5.87149392,-81411,7998,0.576828787,16867.1875,28416
-17.00202489,-235741,128,-15.13046862,-209791,128,-5.908203829,-81920,25472,1.837082128,16886.71875,29056
-15.95683825,-221249,128,-14.76070103,-204664,128,-5.288606916,-73329,16320,1.177024982,16906.25,29696
-16.92564808,-234682,128,-15.12296797,-209687,128,-5.83031247,-80840,16255,1.172337076,16925.78125,30336
-17.08647932,-236912,128,-15.13212742,-209814,128,-5.613442733,-77833,14140,1.019799831,16945.3125,30976
-17.09585513,-237042,128,-15.13789715,-209894,128,-5.834351281,-80896,13190,0.951284284,16964.84375,31616
-17.0944127,-237022,128,-15.12563647,-209724,128,-5.686213456,-78842,14370,1.036387806,16984.375,32256
-17.07054044,-236691,128,-15.12166978,-209669,128,-5.760715098,-79875,14463,1.043095117,17003.90625,32896
-17.05546702,-236482,128,-15.10818304,-209482,128,-5.686213456,-78842,15423,1.112331881,17023.4375,33536
-17.01479042,-235918,128,-15.07298768,-208994,128,-5.762734504,-79903,15747,1.135699288,17042.96875,34176
-16.97353685,-235346,128,-15.0490433,-208662,128,-5.8901013,-81669,14496,1.045475131,17062.5,34816
-16.90393947,-234381,128,-14.99560118,-207921,128,-5.611711813,-77809,14857,1.071511039,17082.03125,35456
-16.87855266,-234029,128,-14.97757077,-207671,128,-5.834495525,-80898,15455,1.114639773,17101.5625,36096
-16.76849506,-232503,128,-14.90126609,-206613,128,-5.541032617,-76829,14449,1.042085414,17121.09375,36736
-16.72010144,-231832,128,-14.8812884,-206336,128,-5.372556492,-74493,15608,1.125674382,17140.625,37376
-16.80953226,-233072,128,-14.95240032,-207322,128,-5.497471153,-76225,12688,0.915079226,17160.15625,38016
-17.0634004,-236592,128,-15.06707371,-208912,128,-5.612216665,-77816,13829,0.997370004,17179.6875,38656
-17.16364946,-237982,128,-15.11568369,-209586,128,-5.769874545,-80002,8191,0.590748261,17199.21875,39296
-17.20432606,-238546,128,-15.13003589,-209785,128,-5.889740692,-81664,7237,0.521944227,17218.75,39936
-17.22538557,-238838,128,-15.13753654,-209889,128,-5.907122005,-81905,6146,0.44325953,17238.28125,40576
-17.2098073,-238622,128,-15.12743951,-209749,128,-5.825191835,-80769,6144,0.443115287,17257.8125,41216
-17.21745219,-238728,128,-15.15123965,-210079,128,-5.839111309,-80962,6160,0.444269233,17277.34375,41856
-17.19314721,-238391,128,-15.11214973,-209537,128,-5.630751923,-78073,7289,0.525694552,17296.875,42496
-17.1884593,-238326,128,-15.11878492,-209629,128,-5.67799159,-78728,7174,0.517400565,17316.40625,43136
-17.19783511,-238456,128,-15.12542011,-209721,128,-5.796920156,-80377,7176,0.517544808,17335.9375,43776
-17.20035937,-238491,128,-15.11633278,-209595,128,-5.769513937,-79997,6271,0.452274734,17355.46875,44416
-17.20886972,-238609,128,-15.1240498,-209702,128,-5.893274652,-81713,6655,0.47996944,17375,45056
-17.21644249,-238714,128,-15.12109281,-209661,128,-5.682030401,-78784,6176,0.445423179,17394.53125,45696
-17.23036197,-238907,128,-15.14186384,-209949,128,-4.744954079,-65791,6175,0.445351058,17414.0625,46336
-17.23483351,-238969,128,-15.13284864,-209824,128,-5.797352886,-80383,6152,0.44369226,17433.59375,46976
-17.23519412,-238974,128,-15.14604689,-210007,128,-5.889740692,-81664,8167,0.589017342,17453.125,47616
-17.23389593,-238956,128,-15.1427293,-209961,128,-5.74441561,-79649,6167,0.444774085,17472.65625,48256
-17.23122743,-238919,128,-15.13587774,-209866,128,-5.898755896,-81789,8187,0.590459775,17492.1875,48896
-17.23209289,-238931,128,-15.13364197,-209835,128,-5.906184424,-81892,8103,0.584401558,17511.71875,49536
-17.23454502,-238965,128,-15.14691235,-210019,128,-5.723644581,-79361,8095,0.583824585,17531.25,50176
-17.22271707,-238801,128,-15.12166978,-209669,128,-4.758945675,-65985,8167,0.589017342,17550.78125,50816
-17.19559934,-238425,128,-15.12549223,-209722,128,-5.834351281,-80896,6158,0.44412499,17570.3125,51456
-17.18398776,-238264,128,-15.12888195,-209769,128,-5.613082124,-77828,8064,0.581588814,17589.84375,52096
-17.18687262,-238304,128,-15.05683244,-208770,128,-5.899044382,-81793,8160,0.588512491,17609.375,52736
-17.19394054,-238402,128,-15.08950354,-209223,128,-5.61510153,-77856,8131,0.586420964,17628.90625,53376
-17.22956863,-238896,128,-15.14316203,-209967,128,-4.72771701,-65552,8128,0.586204599,17648.4375,54016
-17.23555472,-238979,128,-15.1534033,-210109,128,-5.755955071,-79809,6144,0.443115287,17667.96875,54656
-17.23108318,-238917,128,-15.1577306,-210169,128,-4.735578267,-65661,8184,0.59024341,17687.5,55296
-17.29087201,-239746,128,-15.22848192,-211150,128,-5.908203829,-81920,4607,0.332264344,17707.03125,55936
-15.88305782,-220226,128,-14.60563953,-202514,128,-5.316373744,-73714,446,0.032166246,17726.5625,56576
-16.84840582,-233611,128,-15.05892397,-208799,128,-5.390803264,-74746,3585,0.258556039,17746.09375,57216
-17.0600828,-236546,128,-15.09051324,-209237,128,-5.612937881,-77826,14238,1.026867751,17765.625,57856
-17.12427105,-237436,128,-15.10392786,-209423,128,-5.613947584,-77840,12288,0.886230574,17785.15625,58496
-17.15131666,-237811,128,-15.11986674,-209644,128,-5.652027804,-78368,8064,0.581588814,17804.6875,59136
-17.12650682,-237467,128,-15.09484054,-209297,128,-5.778745506,-80125,12324,0.888826953,17824.21875,59776
-17.10631276,-237187,128,-15.0897199,-209226,128,-5.7793946,-80134,12798,0.923012605,17843.75,60416
-17.07739199,-236786,128,-15.07024706,-208956,128,-5.617120936,-77884,13070,0.942629688,17863.28125,61056
-17.05092335,-236419,128,-15.04399479,-208592,128,-5.578103134,-77343,15415,1.111754908,17882.8125,61696
-16.989043,-235561,128,-14.99120176,-207860,128,-5.892048584,-81696,15486,1.116875543,17902.34375,62336
-16.93091296,-234755,128,-14.97158467,-207588,128,-5.575939486,-77313,14396,1.038262968,17921.875,62976
-16.80513284,-233011,128,-14.90624248,-206682,128,-5.455929095,-75649,16262,1.172841927,17941.40625,63616
-16.70993229,-231691,128,-14.84407363,-205820,128,-5.390947508,-74748,15921,1.148248452,17960.9375,64256
-16.68923339,-231404,128,-14.84731911,-205865,128,-5.319835582,-73762,14438,1.041292076,17980.46875,64896
-16.84790097,-233604,128,-14.92816745,-206986,128,-5.318104663,-73738,16255,1.172337076,18000,0
-17.06852103,-236663,128,-15.01730979,-208222,128,-5.901352275,-81825,13843,0.998379707,18019.53125,640
-17.11821283,-237352,128,-15.05798639,-208786,128,-5.908203829,-81920,12408,0.89488517,18039.0625,1280
-17.14670088,-237747,128,-15.07067979,-208962,128,-5.907915343,-81916,8079,0.582670639,18058.59375,1920
-17.14158024,-237676,128,-15.05784214,-208784,128,-5.760570855,-79873,8176,0.589666437,18078.125,2560
-17.14359965,-237704,128,-15.06498218,-208883,128,-5.908131708,-81919,7964,0.574376652,18097.65625,3200
-17.13602688,-237599,128,-15.04608632,-208621,128,-5.905968059,-81889,8156,0.588224004,18117.1875,3840
-17.14295055,-237695,128,-15.06144822,-208834,128,-5.905968059,-81889,8161,0.588584612,18136.71875,4480
-17.14597966,-237737,128,-15.04320145,-208581,128,-5.889812814,-81665,8191,0.590748261,18156.25,5120
-17.15189363,-237819,128,-15.06310702,-208857,128,-5.907987464,-81917,7937,0.572429368,18175.78125,5760
-17.13696446,-237612,128,-15.02957046,-208392,128,-5.603706313,-77698,7943,0.572862097,18195.3125,6400
-17.14208509,-237683,128,-15.04413903,-208594,128,-5.593825649,-77561,8079,0.582670639,18214.84375,7040
-17.14468147,-237719,128,-15.04976452,-208672,128,-5.594907474,-77576,8191,0.590748261,18234.375,7680
-17.1430948,-237697,128,-15.04363418,-208587,128,-5.57702131,-77328,8191,0.590748261,18253.90625,8320
-17.14929726,-237783,128,-15.05243302,-208709,128,-5.889812814,-81665,8191,0.590748261,18273.4375,8960
-17.15715851,-237892,128,-15.04940391,-208667,128,-5.907698978,-81913,7934,0.572213003,18292.96875,9600
-17.21637037,-238713,128,-15.04010022,-208538,128,-5.87192665,-81417,6336,0.45696264,18312.5,10240
-17.18442049,-238270,128,-15.01507402,-208191,128,-5.876470313,-81480,7232,0.521583619,18332.03125,10880
-17.1814635,-238229,128,-14.95795369,-207399,128,-5.818700888,-80679,7939,0.572573611,18351.5625,11520
-17.14850392,-237772,128,-14.98297989,-207746,128,-5.903660167,-81857,7996,0.576684544,18371.09375,12160
-17.25286391,-239219,128,-15.03995598,-208536,128,-5.904092896,-81863,8095,0.583824585,18390.625,12800
-17.26454762,-239381,128,-15.02798379,-208370,128,-5.870844826,-81402,6155,0.443908625,18410.15625,13440
-17.27320221,-239501,128,-15.02848864,-208377,128,-5.868464812,-81369,8071,0.582093666,18429.6875,14080
-17.36378698,-240757,128,-15.06880463,-208936,128,-5.616399719,-77874,4483,0.323321262,18449.21875,14720
-16.34066955,-226571,128,-14.6795642,-203539,128,-5.904165018,-81864,16191,1.167721292,18468.75,15360
-16.06920374,-222807,128,-14.67941996,-203537,128,-5.312839784,-73665,6648,0.479464588,18488.28125,16000
-17.09722544,-237061,128,-14.9656707,-207506,128,-5.521559777,-76559,12817,0.924382916,18507.8125,16640
-17.16451492,-237994,128,-14.9710077,-207580,128,-5.829807619,-80833,8050,0.580579112,18527.34375,17280
-17.16047611,-237938,128,-14.95802581,-207400,128,-5.873873934,-81444,8067,0.581805179,18546.875,17920
-17.14201297,-237682,128,-14.93271112,-207049,128,-5.760570855,-79873,8184,0.59024341,18566.40625,18560
-17.11691464,-237334,128,-14.92744624,-206976,128,-5.769730302,-80000,12512,0.902385819,18585.9375,19200
-17.09758605,-237066,128,-14.90660309,-206687,128,-5.889307963,-81658,13057,0.941692107,18605.46875,19840
-17.06354464,-236594,128,-14.8769611,-206276,128,-5.391524481,-74756,14342,1.0343684,18625,20480
-17.02019954,-235993,128,-14.84284757,-205803,128,-5.848270756,-81089,15366,1.108220948,18644.53125,21120
-16.95752584,-235124,128,-14.82625959,-205573,128,-5.382365034,-74629,14720,1.061630376,18664.0625,21760
-16.87097989,-233924,128,-14.75240704,-204549,128,-4.873474821,-67573,16142,1.164187332,18683.59375,22400
-16.76121077,-232402,128,-14.713245,-204006,128,-4.844337683,-67169,15398,1.11052884,18703.125,23040
-16.71353837,-231741,128,-14.69052669,-203691,128,-4.793564057,-66465,15875,1.144930857,18722.65625,23680
-16.90054976,-234334,128,-14.81984077,-205484,128,-5.613298489,-77831,12288,0.886230574,18742.1875,24320
-17.06116462,-236561,128,-14.88604842,-206402,128,-5.723644581,-79361,12799,0.923084727,18761.71875,24960
-17.17057314,-238078,128,-14.94403421,-207206,128,-5.761508436,-79886,8191,0.590748261,18781.25,25600
-17.18398776,-238264,128,-14.94050025,-207157,128,-5.899332869,-81797,8184,0.59024341,18800.78125,26240
-17.17836227,-238186,128,-14.91915225,-206861,128,-4.89114462,-67818,7664,0.552740163,18820.3125,26880
-17.16985192,-238068,128,-14.94388997,-207204,128,-5.896952855,-81764,7695,0.554975933,18839.84375,27520
-17.16429855,-237991,128,-14.92362379,-206923,128,-5.767494532,-79969,7695,0.554975933,18859.375,28160
-17.15687003,-237888,128,-14.91129099,-206752,128,-5.760210247,-79868,7935,0.572285124,18878.90625,28800
-17.15261485,-237829,128,-14.90790128,-206705,128,-5.907122005,-81905,7801,0.562620826,18898.4375,29440
-17.1541294,-237850,128,-14.91345464,-206782,128,-5.613082124,-77828,8188,0.590531896,18917.96875,30080
-17.15290334,-237833,128,-14.89556848,-206534,128,-4.800415611,-66560,8191,0.590748261,18937.5,30720
-17.15881731,-237915,128,-14.92585956,-206954,128,-4.868931159,-67510,8188,0.590531896,18957.03125,31360
-17.16595735,-238014,128,-14.90068911,-206605,128,-4.746108025,-65807,7744,0.558509893,18976.5625,32000
-17.17670347,-238163,128,-14.91345464,-206782,128,-4.865180834,-67458,7183,0.518049659,18996.09375,32640
-17.16783251,-238040,128,-14.89946305,-206588,128,-4.7450262,-65792,8079,0.582670639,19015.625,33280
-17.17295315,-238111,128,-14.91395949,-206789,128,-5.905968059,-81889,8160,0.588512491,19035.15625,33920
-17.1381184,-237628,128,-14.89535211,-206531,128,-5.907698978,-81913,7761,0.559735961,19054.6875,34560
-17.12571348,-237456,128,-14.85647855,-205992,128,-4.739833443,-65720,14352,1.035089616,19074.21875,35200
-17.11258735,-237274,128,-14.85914706,-206029,128,-5.679650388,-78751,14343,1.034440522,19093.75,35840
-17.15391304,-237847,128,-14.86621497,-206127,128,-5.759344788,-79856,8169,0.589161585,19113.28125,36480
-17.18817081,-238322,128,-14.92982625,-207009,128,-5.603850556,-77700,8165,0.588873099,19132.8125,37120
-17.1714386,-238090,128,-14.90047275,-206602,128,-5.758335085,-79842,7422,0.535286729,19152.34375,37760
-17.19999876,-238486,128,-14.93451416,-207074,128,-5.557404227,-77056,8171,0.589305829,19171.875,38400
-17.01991105,-235989,128,-14.88633691,-206406,128,-5.325821677,-73845,16379,1.181280158,19191.40625,39040
-15.68154999,-217432,128,-14.38581281,-199466,128,-4.876648173,-67617,252,0.01817465,19210.9375,39680
-16.95363128,-235070,128,-14.8566228,-205994,128,-5.315436162,-73701,16323,1.177241347,19230.46875,40320
-17.06188584,-236571,128,-14.8683065,-206156,128,-5.465088542,-75776,13308,0.959794636,19250,40960
-17.10155274,-237121,128,-14.8779708,-206290,128,-5.649575669,-78334,14342,1.0343684,19269.53125,41600
-17.10249032,-237134,128,-14.86974893,-206176,128,-5.465088542,-75776,14768,1.065092214,19289.0625,42240
-17.09599937,-237044,128,-14.86621497,-206127,128,-5.835433106,-80911,14343,1.034440522,19308.59375,42880
-17.05092335,-236419,128,-14.83549116,-205701,128,-5.382581399,-74632,15367,1.108293069,19328.125,43520
-17.03794146,-236239,128,-14.84710274,-205862,128,-5.317960419,-73736,15385,1.109591259,19347.65625,44160
-16.96149253,-235179,128,-14.78096721,-204945,128,-5.350847882,-74192,16382,1.181496523,19367.1875,44800
-16.9093486,-234456,128,-14.75276765,-204554,128,-4.855949265,-67330,15884,1.145579951,19386.71875,45440
-16.7829915,-232704,128,-14.69110366,-203699,128,-5.02089143,-69617,14366,1.036099319,19406.25,46080
-16.69536372,-231489,128,-14.64004155,-202991,128,-4.733558861,-65633,16383,1.181568644,19425.78125,46720
-16.60946686,-230298,128,-14.60051889,-202443,128,-4.746252268,-65809,14769,1.065164335,19445.3125,47360
-16.73827609,-232084,128,-14.68836304,-203661,128,-4.947904342,-68605,13820,0.99672091,19464.84375,48000
-16.9333651,-234789,128,-14.79135272,-205089,128,-5.339380543,-74033,15873,1.144786614,19484.375,48640
-17.09830726,-237076,128,-14.83152447,-205646,128,-5.675539455,-78694,12780,0.921714416,19503.90625,49280
-17.11136128,-237257,128,-14.83765481,-205731,128,-5.644599276,-78265,14399,1.038479333,19523.4375,49920
-17.12556924,-237454,128,-14.84724699,-205864,128,-5.686429821,-78845,14488,1.044898158,19542.96875,50560
-17.1174195,-237341,128,-14.84558819,-205841,128,-5.742107718,-79617,14339,1.034152035,19562.5,51200
-17.10595216,-237182,128,-14.84818457,-205877,128,-5.630247072,-78066,14369,1.036315684,19582.03125,51840
-17.10883702,-237222,128,-14.81883106,-205470,128,-5.678568563,-78736,14360,1.035666589,19601.5625,52480
-17.08539749,-236897,128,-14.82222078,-205517,128,-5.620654895,-77933,13279,0.957703109,19621.09375,53120
-17.08770538,-236929,128,-14.8169559,-205444,128,-5.629237369,-78052,13183,0.950779432,19640.625,53760
-17.08431567,-236882,128,-14.79842064,-205187,128,-5.647484141,-78305,14343,1.034440522,19660.15625,54400
-17.09700907,-237058,128,-14.85323308,-205947,128,-5.400395441,-74879,12798,0.923012605,19679.6875,55040
-17.09095086,-236974,128,-14.79849277,-205188,128,-5.626929477,-78020,14339,1.034152035,19699.21875,55680
-17.09059025,-236969,128,-14.80217097,-205239,128,-5.762806626,-79904,14459,1.04280663,19718.75,56320
-17.14129175,-237672,128,-14.83787117,-205734,128,-5.353732747,-74232,8152,0.587935518,19738.28125,56960
-17.173458,-238118,128,-14.82366321,-205537,128,-5.613947584,-77840,7686,0.554326839,19757.8125,57600
-17.16970768,-238066,128,-14.82546625,-205562,128,-5.653902966,-78394,8191,0.590748261,19777.34375,58240
-17.17728045,-238171,128,-14.81010435,-205349,128,-5.801391697,-80439,7303,0.526704255,19796.875,58880
-17.17641499,-238159,128,-14.80382977,-205262,128,-5.646041709,-78285,7169,0.517039957,19816.40625,59520
-17.16465916,-237996,128,-14.78414056,-204989,128,-5.331014434,-73917,7696,0.555048055,19835.9375,60160
-17.17937197,-238200,128,-14.81572983,-205427,128,-5.640560465,-78209,8065,0.581660936,19855.46875,60800
-17.16364946,-237982,128,-14.7779381,-204903,128,-5.32596592,-73847,7968,0.574665138,19875,61440
-17.13508929,-237586,128,-14.77187988,-204819,128,-5.317311325,-73727,8126,0.586060355,19894.53125,62080
-17.11064006,-237247,128,-14.71129772,-203979,128,-5.018006565,-69577,14337,1.034007792,19914.0625,62720
-17.10234607,-237132,128,-14.70898982,-203947,128,-4.868137821,-67499,14590,1.052254564,19933.59375,63360
-17.15391304,-237847,128,-14.75817677,-204629,128,-5.317383446,-73728,8168,0.589089464,19953.125,64000
-17.17071738,-238080,128,-14.79301152,-205112,128,-5.340462368,-74048,8064,0.581588814,19972.65625,64640
-17.16985192,-238068,128,-14.78204903,-204960,128,-5.624333098,-77984,7692,0.554759569,19992.1875,65280
-17.25517181,-239251,128,-14.82020138,-205489,128,-5.777880046,-80113,8175,0.589594315,20011.71875,384
-16.43969255,-227944,128,-14.48570126,-200851,128,-5.391235994,-74752,15498,1.117741003,20031.25,1024
-15.75013766,-218383,128,-14.28130857,-198017,128,-4.754329891,-65921,14591,1.052326685,20050.78125,1664
-16.868672,-233892,128,-14.7175723,-204066,128,-4.745170444,-65794,15999,1.153873939,20070.3125,2304
-17.05770279,-236513,128,-14.73675665,-204332,128,-4.869219645,-67514,15367,1.108293069,20089.84375,2944
-17.09001328,-236961,128,-14.750604,-204524,128,-5.317383446,-73728,14463,1.043095117,20109.375,3584
-17.06513131,-236616,128,-14.72334203,-204146,128,-4.837341885,-67072,14840,1.070284971,20128.90625,4224
-17.04919243,-236395,128,-14.72608265,-204184,128,-5.244107872,-72712,15391,1.110023988,20148.4375,4864
-17.00296247,-235754,128,-14.71007165,-203962,128,-5.245838791,-72736,16134,1.163610359,20167.96875,5504
-16.98990846,-235573,128,-14.68713697,-203644,128,-5.021973255,-69632,16367,1.180414698,20187.5,6144
-16.93581723,-234823,128,-14.65670164,-203222,128,-4.896265256,-67889,14545,1.049009091,20207.03125,6784
-16.86340712,-233819,128,-14.60693772,-202532,128,-4.865108712,-67457,16352,1.179332874,20226.5625,7424
-16.80679164,-233034,128,-14.58580608,-202239,128,-4.874268159,-67584,14839,1.070212849,20246.09375,8064
-16.67336663,-231184,128,-14.52327663,-201372,128,-4.763561459,-66049,14584,1.051821834,20265.625,8704
-16.61653478,-230396,128,-14.50308257,-201092,128,-5.202277327,-72132,15360,1.107788218,20285.15625,9344
-16.75313315,-232290,128,-14.5635205,-201930,128,-4.742862552,-65762,13983,1.008476735,20304.6875,9984
-16.93148994,-234763,128,-14.68151148,-203566,128,-5.013679268,-69517,16372,1.180775306,20324.21875,10624
-17.06556404,-236622,128,-14.73545846,-204314,128,-4.785991286,-66360,13567,0.978474138,20343.75,11264
-17.09311451,-237004,128,-14.74721429,-204477,128,-5.317383446,-73728,13188,0.95114004,20363.28125,11904
-17.10926975,-237228,128,-14.78522239,-205004,128,-5.331375042,-73922,12414,0.8953179,20382.8125,12544
-17.09578301,-237041,128,-14.74519488,-204449,128,-5.312262811,-73657,13191,0.951356405,20402.34375,13184
-17.09145571,-236981,128,-14.75803253,-204627,128,-5.010361673,-69471,13064,0.942196958,20421.875,13824
-17.07082892,-236695,128,-14.75384948,-204569,128,-4.857896549,-67357,13292,0.95864069,20441.40625,14464
-17.0724156,-236717,128,-14.75897011,-204640,128,-5.308151878,-73600,14367,1.036171441,20460.9375,15104
-17.07544471,-236759,128,-14.76618228,-204740,128,-4.869724497,-67521,13280,0.95777523,20480.46875,15744
-17.08424355,-236881,128,-14.76272044,-204692,128,-5.017645957,-69572,14351,1.035017495,20500,16384
-17.08070959,-236832,128,-14.77555809,-204870,128,-5.320917406,-73777,13161,0.949192756,20519.53125,17024
-17.08539749,-236897,128,-14.77714476,-204892,128,-5.319402852,-73756,14343,1.034440522,20539.0625,17664
-17.12592985,-237459,128,-14.77865932,-204913,128,-5.612865759,-77825,14447,1.041941171,20558.59375,18304
-17.16069247,-237941,128,-14.7919297,-205097,128,-5.35430972,-74240,7883,0.5685348,20578.125,18944
-17.16992404,-238069,128,-14.80671463,-205302,128,-5.353516382,-74229,7681,0.553966231,20597.65625,19584
-17.16797676,-238042,128,-14.77728901,-204894,128,-5.324090758,-73821,7680,0.553894109,20617.1875,20224
-17.17006828,-238071,128,-14.78219328,-204962,128,-5.615245773,-77858,7680,0.553894109,20636.71875,20864
-17.17720833,-238170,128,-14.78089509,-204944,128,-5.30959431,-73620,8188,0.590531896,20656.25,21504
-17.18218472,-238239,128,-14.7896218,-205065,128,-5.761147828,-79881,7169,0.517039957,20675.78125,22144
-17.17526104,-238143,128,-14.77274534,-204831,128,-5.762806626,-79904,7617,0.549350446,20695.3125,22784
-17.15881731,-237915,128,-14.77079806,-204804,128,-5.760570855,-79873,7935,0.572285124,20714.84375,23424
-17.14208509,-237683,128,-14.75622949,-204602,128,-5.007981659,-69438,8071,0.582093666,20734.375,24064
-17.12427105,-237436,128,-14.73214087,-204268,128,-5.251608521,-72816,14471,1.04367209,20753.90625,24704
-17.12780501,-237485,128,-14.7309148,-204251,128,-4.809142328,-66681,14339,1.034152035,20773.4375,25344
-17.18326654,-238254,128,-14.79510305,-205141,128,-5.796775913,-80375,7184,0.518121781,20792.96875,25984
-17.18023743,-238212,128,-14.80758009,-205314,128,-5.797497129,-80385,7295,0.526127282,20812.5,26624
-17.21189883,-238651,128,-14.81284497,-205387,128,-5.319619217,-73759,7683,0.554110474,20832.03125,27264
-17.2301456,-238904,128,-14.85633431,-205990,128,-5.629093126,-78050,6208,0.447731071,20851.5625,27904
-15.90209793,-220490,128,-14.35566596,-199048,128,-4.754834742,-65928,1022,0.073708305,20871.09375,28544
-16.77888057,-232647,128,-14.72601053,-204183,128,-5.272451672,-73105,16312,1.176448009,20890.625,29184
-17.00642431,-235802,128,-14.75096461,-204529,128,-4.854723198,-67313,14078,1.01532829,20910.15625,29824
-17.07897867,-236808,128,-14.78075084,-204942,128,-5.332384745,-73936,13310,0.959938879,20929.6875,30464
-17.08013261,-236824,128,-14.75435433,-204576,128,-5.31045977,-73632,14560,1.050090915,20949.21875,31104
-17.07335318,-236730,128,-14.75839314,-204632,128,-4.8734027,-67572,14463,1.043095117,20968.75,31744
-17.03368628,-236180,128,-14.71850988,-204079,128,-4.980431197,-69056,16228,1.170389792,20988.28125,32384
-17.0247432,-236056,128,-14.73062631,-204247,128,-4.948337072,-68611,15615,1.126179233,21007.8125,33024
-16.97433018,-235357,128,-14.68086239,-203557,128,-5.170183202,-71687,14336,1.03393567,21027.34375,33664
-16.93177842,-234767,128,-14.67768904,-203513,128,-5.003510118,-69376,14577,1.051316983,21046.875,34304
-16.82287476,-233257,128,-14.61350079,-202623,128,-4.874268159,-67584,14591,1.052326685,21066.40625,34944
-16.74808463,-232220,128,-14.57188661,-202046,128,-4.763272972,-66045,15972,1.151926655,21085.9375,35584
-16.65129741,-230878,128,-14.52897424,-201451,128,-5.223408964,-72425,14848,1.070861944,21105.46875,36224
-16.68101152,-231290,128,-14.54649979,-201694,128,-4.763489337,-66048,14339,1.034152035,21125,36864
-16.91706561,-234563,128,-14.68115088,-203561,128,-4.730097023,-65585,12340,0.889980899,21144.53125,37504
-17.03419114,-236187,128,-14.72694811,-204196,128,-5.27151409,-73092,14320,1.032781724,21164.0625,38144
-17.08763326,-236928,128,-14.7529119,-204556,128,-5.299569404,-73481,14528,1.047783023,21183.59375,38784
-17.11612131,-237323,128,-14.74613246,-204462,128,-5.309161581,-73614,14576,1.051244861,21203.125,39424
-17.11929466,-237367,128,-14.75175795,-204540,128,-5.298631823,-73468,14400,1.038551454,21222.65625,40064
-17.10184122,-237125,128,-14.78082297,-204943,128,-5.761003585,-79879,14363,1.035882954,21242.1875,40704
-17.09931697,-237090,128,-14.8062819,-205296,128,-5.769730302,-80000,12799,0.923084727,21261.71875,41344
-17.07306469,-236726,128,-14.89066421,-206466,128,-5.317455568,-73729,13248,0.955467338,21281.25,41984
-17.08503688,-236892,128,-14.92802321,-206984,128,-5.761075707,-79880,14372,1.036532049,21300.78125,42624
-17.08640719,-236911,128,-14.97562349,-207644,128,-5.901280153,-81824,13209,0.952654594,21320.3125,43264
-17.08611871,-236907,128,-15.03360928,-208448,128,-5.871349677,-81409,13184,0.950851554,21339.84375,43904
-17.08070959,-236832,128,-15.01190066,-208147,128,-5.594402623,-77569,14432,1.040859346,21359.375,44544
-17.07638229,-236772,0,-15.095706,-209309,128,145.3418142,2015232,16380,1.181352279,21398.4375,45824
-17.08222414,-236853,128,-15.14568629,-210002,128,-4.765725108,-66079,13180,0.950563067,21417.96875,46464
-17.08107019,-236837,128,-15.16263487,-210237,128,-5.898539531,-81786,13311,0.960011001,21437.5,47104
-17.06383313,-236598,128,-15.18131437,-210496,128,-5.908131708,-81919,13180,0.950563067,21457.03125,47744
-17.06743921,-236648,128,-15.18528106,-210551,128,-5.760282369,-79869,14208,1.024704102,21476.5625,48384
-17.06130887,-236563,128,-15.22364977,-211083,128,-5.889740692,-81664,13309,0.959866757,21496.09375,49024
-17.02863777,-236110,128,-15.24882022,-211432,128,-5.792809223,-80320,15484,1.1167313,21515.625,49664
-17.02221895,-236021,128,-15.22884252,-211155,128,-5.905463207,-81882,15872,1.144714492,21535.15625,50304
-17.03960026,-236262,128,-15.30038718,-212147,128,-5.76965818,-79999,14321,1.032853846,21554.6875,50944
-17.0634004,-236592,128,-15.35382931,-212888,128,-5.907194127,-81906,14076,1.015184047,21574.21875,51584
-17.07292045,-236724,128,-15.38332705,-213297,128,-4.733991591,-65639,14399,1.038479333,21593.75,52224
-17.07695926,-236780,128,-15.42227273,-213837,128,-4.754257769,-65920,14080,1.015472533,21613.28125,52864
-17.18795445,-238319,128,-15.47391182,-214553,128,-5.908275951,-81921,12350,0.890702115,21632.8125,53504
-15.70650407,-217778,128,-14.95997309,-207427,128,-5.898900139,-81791,352,0.025386813,21652.34375,54144
-16.23630956,-225124,128,-15.22321704,-211077,128,-5.409554888,-75006,12289,0.886302696,21671.875,54784
-16.89687155,-234283,128,-15.43842798,-214061,128,-4.731250969,-65601,12294,0.886663304,21691.40625,55424
-16.96026647,-235162,128,-15.43547099,-214020,128,-4.72685155,-65540,14350,1.034945373,21710.9375,56064
-16.96769499,-235265,128,-15.47744578,-214602,128,-4.800776219,-66565,16376,1.181063793,21730.46875,56704
-16.93668269,-234835,128,-15.43922132,-214072,128,-4.733630983,-65634,14817,1.068626174,21750,57344
-16.92384504,-234657,128,-15.44131284,-214101,128,-4.731250969,-65601,14463,1.043095117,21769.53125,57984
-16.90321826,-234371,128,-15.46648329,-214450,128,-4.734857051,-65651,15486,1.116875543,21789.0625,58624
-16.86593138,-233854,128,-15.41268056,-213704,128,-4.728870956,-65568,16261,1.172769806,21808.59375,59264
-16.80989287,-233077,128,-15.40799265,-213639,128,-4.728798834,-65567,14592,1.052398807,21828.125,59904
-16.72983786,-231967,128,-15.3624839,-213008,128,-4.754402012,-65922,15264,1.100864542,21847.65625,60544
-16.60074015,-230177,128,-15.31120542,-212297,128,-5.871638164,-81413,14848,1.070861944,21867.1875,61184
-16.53143126,-229216,128,-15.29620413,-212089,128,-5.835649471,-80914,16327,1.177529833,21886.71875,61824
-16.56215508,-229642,128,-15.31416241,-212338,128,-5.899116504,-81794,911,0.065702804,21906.25,62464
-16.72752997,-231935,128,-15.36847,-213091,128,-5.889812814,-81665,16128,1.163177629,21925.78125,63104
-16.89780914,-234296,128,-15.41722422,-213767,128,-4.791761016,-66440,15360,1.107788218,21945.3125,63744
-16.9760611,-235381,128,-15.42241698,-213839,128,-4.73572251,-65663,14344,1.034512643,21964.84375,64384
-16.98832178,-235551,128,-15.40633385,-213616,128,-4.728654591,-65565,14343,1.034440522,21984.375,65024
-16.99589455,-235656,128,-15.41195934,-213694,128,-4.782890056,-66317,16153,1.16498067,22003.90625,128
-16.99178362,-235599,128,-15.3774852,-213216,128,-4.734712808,-65649,16248,1.171832224,22023.4375,768
-16.98024416,-235439,128,-15.35519962,-212907,128,-4.744160741,-65780,14339,1.034152035,22042.96875,1408
-16.95983374,-235156,128,-15.37193184,-213139,128,-4.734857051,-65651,14560,1.050090915,22062.5,2048
-16.95918464,-235147,128,-15.37755732,-213217,128,-4.744521349,-65785,14592,1.052398807,22082.03125,2688
-16.9467076,-234974,128,-15.3924865,-213424,128,-4.782024596,-66305,14721,1.061702497,22101.5625,3328
-16.95716524,-235119,128,-15.40929084,-213657,128,-4.800127125,-66556,14649,1.05650974,22121.09375,3968
-16.9573816,-235122,128,-15.43410068,-214001,128,-4.802723503,-66592,14655,1.05694247,22140.625,4608
-16.95291006,-235060,128,-15.43842798,-214061,128,-4.803877449,-66608,14688,1.059322483,22160.15625,5248
-16.95774221,-235127,128,-15.46922391,-214488,128,-4.79594407,-66498,14654,1.056870348,22179.6875,5888
-16.96524286,-235231,128,-15.49634165,-214864,128,-5.92327725,-82129,14366,1.036099319,22199.21875,6528
-16.9573816,-235122,128,-15.4748494,-214566,128,-4.764643283,-66064,14751,1.063866146,22218.75,7168
-16.94468819,-234946,128,-15.46136266,-214379,128,-4.839649777,-67104,14337,1.034007792,22238.28125,7808
-16.95990586,-235157,128,-15.46092993,-214373,128,-4.747838944,-65831,14819,1.068770417,22257.8125,8448
-16.96315133,-235202,128,-15.45234745,-214254,128,-4.82825456,-66946,14818,1.068698295,22277.34375,9088
-16.96358406,-235208,128,-15.44426983,-214142,128,-4.726635185,-65537,14847,1.070789822,22296.875,9728
-16.96279072,-235197,128,-15.39710228,-213488,128,-4.800271368,-66558,14344,1.034512643,22316.40625,10368
-16.96942591,-235289,128,-15.41794543,-213777,128,-4.782601569,-66313,14655,1.05694247,22335.9375,11008
-16.96819985,-235272,128,-15.38765435,-213357,128,-4.761758418,-66024,14534,1.048215753,22355.46875,11648
-16.95680463,-235114,128,-15.37070577,-213122,128,-4.745098322,-65793,14592,1.052398807,22375,12288
-16.92593657,-234686,128,-15.35152141,-212856,128,-5.907122005,-81905,15230,1.098412406,22394.53125,12928
-16.91021406,-234468,128,-15.27399066,-211781,128,-5.762446018,-79899,14771,1.065308579,22414.0625,13568
-16.91915714,-234592,128,-15.29389623,-212057,128,-5.871349677,-81409,16256,1.172409197,22433.59375,14208
-16.96877682,-235280,128,-15.3454632,-212772,128,-5.892337071,-81700,16159,1.165413399,22453.125,14848
-16.96091556,-235171,128,-15.32808189,-212531,128,-5.907698978,-81913,16383,1.181568644,22472.65625,15488
-16.99618304,-235660,128,-15.31509999,-212351,128,-5.898467409,-81785,14585,1.051893956,22492.1875,16128
-17.0660689,-236629,128,-15.40467506,-213593,128,-4.731250969,-65601,13106,0.945226067,22511.71875,16768
-15.32534126,-212493,128,-14.70444616,-203884,128,-4.86056505,-67394,2025,0.146046298,22531.25,17408
-16.49198073,-228669,128,-15.15975,-210197,128,-5.455856974,-75648,10224,0.737371533,22550.78125,18048
-16.77671692,-232617,128,-15.22357765,-211082,128,-5.906617153,-81898,13057,0.941692107,22570.3125,18688
-16.87696598,-234007,128,-15.24225715,-211341,128,-5.774850938,-80071,16383,1.181568644,22589.84375,19328
-16.87213384,-233940,128,-15.23814621,-211284,128,-5.869474515,-81383,16249,1.171904346,22609.375,19968
-16.84992037,-233632,128,-15.21297577,-210935,128,-5.682895861,-78796,16368,1.18048682,22628.90625,20608
-16.83015905,-233358,128,-15.21888974,-211017,128,-5.682102523,-78785,14369,1.036315684,22648.4375,21248
-16.79691098,-232897,128,-15.17049613,-210346,128,-5.907698978,-81913,14336,1.03393567,22667.96875,21888
-16.75810954,-232359,128,-15.13811352,-209897,128,-5.835505228,-80912,14720,1.061630376,22687.5,22528
-16.72803482,-231942,128,-15.12729527,-209747,128,-5.635944681,-78145,16379,1.181280158,22707.03125,23168
-16.60997172,-230305,128,-15.05062998,-208684,128,-5.612793638,-77824,14886,1.073602566,22726.5625,23808
-16.52970034,-229192,128,-14.99242783,-207877,128,-5.456217582,-75653,184,0.01327038,22746.09375,24448
-16.48592251,-228585,128,-14.94028389,-207154,128,-5.39015417,-74737,896,0.064620979,22765.625,25088
-16.49969774,-228776,128,-14.94771242,-207257,128,-5.31752769,-73730,383,0.027622584,22785.15625,25728
-16.77044234,-232530,128,-15.08834959,-209207,128,-5.567789741,-77200,15855,1.143488424,22804.6875,26368
-16.91151225,-234486,128,-15.13162257,-209807,128,-5.880364881,-81534,16143,1.164259453,22824.21875,27008
-16.97800839,-235408,128,-15.15910091,-210188,128,-5.61510153,-77856,14462,1.043022995,22843.75,27648
-16.98154235,-235457,128,-15.14936449,-210053,128,-5.723500338,-79359,16383,1.181568644,22863.28125,28288
-16.99964488,-235708,128,-15.15628817,-210149,128,-5.686718307,-78849,16368,1.18048682,22882.8125,28928
-16.98507631,-235506,128,-15.14835479,-210039,128,-5.9077711,-81914,16376,1.181063793,22902.34375,29568
-16.97930658,-235426,128,-15.12816073,-209759,128,-5.613082124,-77828,14351,1.035017495,22921.875,30208
-16.96834409,-235274,128,-15.14417173,-209981,128,-5.613514854,-77834,14492,1.045186644,22941.40625,30848
-16.96993076,-235296,128,-15.12816073,-209759,128,-5.835505228,-80912,14343,1.034440522,22960.9375,31488
-16.98161447,-235458,128,-15.1357335,-209864,128,-5.904165018,-81864,14367,1.036171441,22980.46875,32128
-16.98053264,-235443,128,-15.13775291,-209892,128,-5.695012295,-78964,14350,1.034945373,23000,32768
-16.97916233,-235424,128,-15.11352004,-209556,128,-5.614019706,-77841,14456,1.042590266,23019.53125,33408
-16.97382533,-235350,128,-15.11864068,-209627,128,-5.68462678,-78820,14339,1.034152035,23039.0625,34048
-16.97952294,-235429,128,-15.10955335,-209501,128,-5.686646186,-78848,14463,1.043095117,23058.59375,34688
-16.97368109,-235348,128,-15.10724546,-209469,128,-5.613082124,-77828,14463,1.043095117,23078.125,35328
-16.97447443,-235359,128,-15.10046602,-209375,128,-5.76078722,-79876,14343,1.034440522,23097.65625,35968
-16.97202229,-235325,128,-15.08813323,-209204,128,-5.613731219,-77837,14488,1.044898158,23117.1875,36608
-16.96185314,-235184,128,-15.07212222,-208982,128,-5.612865759,-77825,14336,1.03393567,23136.71875,37248
-16.95846343,-235137,128,-15.06498218,-208883,128,-5.631761626,-78087,14391,1.03790236,23156.25,37888
-16.97793627,-235407,128,-15.08113743,-209107,128,-5.630463437,-78069,14402,1.038695698,23175.78125,38528
-16.97519564,-235369,128,-15.08221925,-209122,128,-5.905968059,-81889,14339,1.034152035,23195.3125,39168
-16.97952294,-235429,128,-15.08366169,-209142,128,-5.612937881,-77826,16350,1.17918863,23214.84375,39808
-16.97469079,-235362,128,-15.07774771,-209060,128,-5.629093126,-78050,14495,1.045403009,23234.375,40448
-16.97346472,-235345,128,-15.07190586,-208979,128,-5.907698978,-81913,14460,1.042878752,23253.90625,41088
-16.9803884,-235441,128,-15.08027197,-209095,128,-5.629597977,-78057,14365,1.036027197,23273.4375,41728
-16.96812772,-235271,128,-15.06289066,-208854,128,-5.613947584,-77840,14435,1.041075711,23292.96875,42368
-16.9553622,-235094,128,-15.03692687,-208494,128,-5.622025206,-77952,14345,1.034584765,23312.5,43008
-16.91951775,-234597,128,-15.03887415,-208521,128,-5.881446705,-81549,14744,1.063361295,23332.03125,43648
-16.90682434,-234421,128,-14.97721016,-207666,128,-5.608538462,-77765,15422,1.112259759,23351.5625,44288
-16.9097092,-234461,128,-14.98117685,-207721,128,-5.832115511,-80865,15411,1.111466421,23371.09375,44928
-16.96235799,-235191,128,-15.0453651,-208611,128,-5.867815717,-81360,16375,1.180991671,23390.625,45568
-16.96235799,-235191,128,-15.03851355,-208516,128,-5.88519703,-81601,14344,1.034512643,23410.15625,46208
-16.97894597,-235421,128,-15.05762578,-208781,128,-5.836226444,-80922,16368,1.18048682,23429.6875,46848
-17.08135868,-236841,128,-15.12808861,-209758,128,-5.796992278,-80378,13320,0.960660095,23449.21875,47488
-15.30637328,-212230,128,-14.42591243,-200022,128,-5.245333939,-72729,3899,0.281202231,23468.75,48128
-16.36187331,-226865,128,-14.86917196,-206168,128,-5.169678351,-71680,12495,0.901159752,23488.28125,48768
-16.73488638,-232037,128,-14.95889127,-207412,128,-5.391235994,-74752,14219,1.02549744,23507.8125,49408
-16.83470271,-233421,128,-14.98788416,-207814,128,-5.520117345,-76539,12799,0.923084727,23527.34375,50048
-16.83650575,-233446,128,-14.98081624,-207716,128,-5.520622196,-76546,14339,1.034152035,23546.875,50688
-16.81602321,-233162,128,-14.96812284,-207540,128,-5.763383599,-79912,14359,1.035594468,23566.40625,51328
-16.78205392,-232691,128,-14.94879424,-207272,128,-5.499779046,-76257,14592,1.052398807,23585.9375,51968
-16.75428709,-232306,128,-14.91684436,-206829,128,-5.464511569,-75768,14787,1.066462525,23605.46875,52608
-16.7279627,-231941,128,-14.91323828,-206779,128,-5.320917406,-73777,16256,1.172409197,23625,53248
-16.66882296,-231121,128,-14.85936342,-206032,128,-5.332384745,-73936,14399,1.038479333,23644.53125,53888
-16.59417708,-230086,128,-14.83787117,-205734,128,-5.336495678,-73993,15487,1.116947665,23664.0625,54528
-16.49371165,-228693,128,-14.77606294,-204877,128,-5.317960419,-73736,232,0.016732218,23683.59375,55168
-16.37586491,-227059,128,-14.71274015,-203999,128,-5.271802577,-73096,775,0.055894262,23703.125,55808
-16.36475818,-226905,128,-14.70552799,-203899,128,-4.72685155,-65540,2055,0.148209947,23722.65625,56448
-16.64920588,-230849,128,-14.82878385,-205608,128,-5.317455568,-73729,62,0.004471541,23742.1875,57088
-16.80188737,-232966,128,-14.88352417,-206367,128,-5.353804869,-74233,14260,1.028454426,23761.71875,57728
-16.87025867,-233914,128,-14.91352676,-206783,128,-5.465088542,-75776,16326,1.177457711,23781.25,58368
-16.91389226,-234519,128,-14.93783175,-207120,128,-5.578247378,-77345,15487,1.116947665,23800.78125,59008
-16.91547893,-234541,128,-14.91720497,-206834,128,-5.648710209,-78322,14784,1.06624616,23820.3125,59648
-16.90480493,-234393,128,-14.94388997,-207204,128,-5.58055527,-77377,15439,1.113485827,23839.84375,60288
-16.89384245,-234241,128,-14.92802321,-206984,128,-5.604139042,-77704,15615,1.126179233,23859.375,60928
-16.88259147,-234085,128,-14.92347955,-206921,128,-5.76165268,-79888,15487,1.116947665,23878.90625,61568
-16.87198959,-233938,128,-14.92304682,-206915,128,-5.471507367,-75865,15596,1.124808922,23898.4375,62208
-16.87848054,-234028,128,-14.92585956,-206954,128,-5.460400636,-75711,15754,1.13620414,23917.96875,62848
-16.87227808,-233942,128,-14.90768491,-206702,128,-5.612721516,-77823,15808,1.140098708,23937.5,63488
-16.88230299,-234081,128,-14.91056978,-206742,128,-5.623756125,-77976,15391,1.110023988,23957.03125,64128
-16.86896048,-233896,128,-14.91013705,-206736,128,-5.465232785,-75778,15823,1.141180532,23976.5625,64768
-16.88915454,-234176,128,-14.92109953,-206888,128,-5.467540677,-75810,15487,1.116947665,23996.09375,65408
-16.89081334,-234199,128,-14.92369591,-206924,128,-5.761075707,-79880,15616,1.126251355,24015.625,512
-16.874009,-233966,128,-14.90148245,-206616,128,-5.614019706,-77841,15903,1.146950262,24035.15625,1152
-16.8943473,-234248,128,-14.91576253,-206814,128,-5.391235994,-74752,15415,1.111754908,24054.6875,1792
-16.87956236,-234043,128,-14.91186797,-206760,128,-5.767927261,-79975,15375,1.108870042,24074.21875,2432
-16.89189516,-234214,128,-14.91338252,-206781,128,-5.46501642,-75775,15384,1.109519137,24093.75,3072
-16.88785635,-234158,128,-14.91619526,-206820,128,-5.834423403,-80897,16327,1.177529833,24113.28125,3712
-16.88908242,-234175,128,-14.89520787,-206529,128,-5.354381842,-74241,15360,1.107788218,24132.8125,4352
-16.8713405,-233929,128,-14.88366841,-206369,128,-5.68152555,-78777,15548,1.121347084,24152.34375,4992
-16.87848054,-234028,128,-14.9019873,-206623,128,-5.613298489,-77831,15812,1.140387194,24171.875,5632
-16.87797569,-234021,128,-14.89607333,-206541,128,-5.677198252,-78717,15586,1.124087706,24191.40625,6272
-16.89485215,-234255,128,-14.88172112,-206342,128,-5.317960419,-73736,15361,1.10786034,24210.9375,6912
-16.94872701,-235002,128,-14.86982106,-206177,128,-5.668183049,-78592,14864,1.07201589,24230.46875,7552
-17.01652134,-235942,128,-14.88813995,-206431,128,-5.645969587,-78284,16287,1.174644968,24250,8192
-17.03224385,-236160,128,-14.88258658,-206354,128,-5.61510153,-77856,15808,1.140098708,24269.53125,8832
-17.05525065,-236479,128,-14.79135272,-205089,128,-5.389505075,-74728,15968,1.151638168,24289.0625,9472
-17.08611871,-236907,128,-14.8372942,-205726,128,-5.623179152,-77968,14367,1.036171441,24308.59375,10112
-17.18795445,-238319,128,-14.88020657,-206321,128,-5.701575363,-79055,8066,0.581733058,24328.125,10752
-17.2291359,-238890,128,-14.90624248,-206682,128,-5.631977991,-78090,6146,0.44325953,24347.65625,11392
-17.25812879,-239292,128,-14.90617036,-206681,128,-5.881158219,-81545,8124,0.585916112,24367.1875,12032
-17.41448848,-241460,128,-14.97295499,-207607,128,-5.744631975,-79652,5695,0.410732676,24386.71875,12672
-16.60564442,-230245,128,-14.65251859,-203164,128,-4.760892959,-66012,31903,2.300896323,24406.25,13312
-16.60283167,-230206,128,-14.69074305,-203694,128,-4.860420806,-67392,12792,0.922579875,24425.78125,13952
-17.12650682,-237467,128,-14.85272823,-205940,128,-5.612865759,-77825,12385,0.893226372,24445.3125,14592
-17.21745219,-238728,128,-14.78933332,-205061,128,-5.31976346,-73761,7392,0.53312308,24464.84375,15232
-17.21377399,-238677,128,-14.76567742,-204733,128,-5.308512486,-73605,6625,0.477805791,24484.375,15872
-17.19134416,-238366,128,-14.70047947,-203829,128,-4.965213533,-68845,7327,0.528435174,24503.90625,16512
-17.16667857,-238024,128,-14.70552799,-203899,128,-5.317311325,-73727,7740,0.558221407,24523.4375,17152
-17.12895896,-237501,128,-14.6592259,-203257,128,-5.019737484,-69601,8064,0.581588814,24542.96875,17792
-17.09001328,-236961,128,-14.63535364,-202926,128,-4.983027575,-69092,14799,1.067327984,24562.5,18432
-17.04746152,-236371,128,-14.5972013,-202397,128,-4.744809836,-65789,15887,1.145796316,24582.03125,19072
-16.95795857,-235130,128,-14.5255124,-201403,128,-4.761325689,-66018,16320,1.177024982,24601.5625,19712
-16.86160408,-233794,128,-14.47005087,-200634,128,-4.869219645,-67514,16015,1.155027885,24621.09375,20352
-16.74519977,-232180,128,-14.43651431,-200169,128,-4.865108712,-67457,14654,1.056870348,24640.625,20992
-16.70748016,-231657,128,-14.40442019,-199724,128,-4.949274653,-68624,16131,1.163393994,24660.15625,21632
-16.92182564,-234629,128,-14.52241117,-201360,128,-4.873763308,-67577,12418,0.895606386,24679.6875,22272
-17.07457925,-236747,128,-14.56474657,-201947,128,-4.855732901,-67327,12735,0.918468942,24699.21875,22912
-17.14756634,-237759,128,-14.57873816,-202141,128,-4.874196038,-67583,8160,0.588512491,24718.75,23552
-17.19271448,-238385,128,-14.62749238,-202817,128,-4.869940861,-67524,8178,0.58981068,24738.28125,24192
-17.18088653,-238221,128,-14.58746488,-202262,128,-4.857391698,-67350,7672,0.553317136,24757.8125,24832
-17.17064526,-238079,128,-14.58941216,-202289,128,-4.869363888,-67516,7455,0.537666743,24777.34375,25472
-17.16725554,-238032,128,-14.57296843,-202061,128,-4.828110317,-66944,7680,0.553894109,24796.875,26112
-17.15888943,-237916,128,-14.57801695,-202131,128,-4.743800133,-65775,7872,0.567741462,24816.40625,26752
-17.14158024,-237676,128,-14.5528465,-201782,128,-4.731178848,-65600,8180,0.589954923,24835.9375,27392
-17.14756634,-237759,128,-14.56460232,-201945,128,-4.80034349,-66559,8071,0.582093666,24855.46875,28032
-17.12145831,-237397,128,-14.52904636,-201452,128,-5.023055079,-69647,14337,1.034007792,24875,28672
-17.14446511,-237716,128,-14.54426402,-201663,128,-4.795799827,-66496,8174,0.589522194,24894.53125,29312
-17.14900877,-237779,128,-14.54339856,-201651,128,-4.73658797,-65675,7923,0.571419665,24914.0625,29952
-17.14049842,-237661,128,-14.50899655,-201174,128,-4.763272972,-66045,8096,0.583896707,24933.59375,30592
-17.14453723,-237717,128,-14.52861363,-201446,128,-4.726707307,-65538,8143,0.587286423,24953.125,31232
-17.13984932,-237652,128,-14.52637786,-201415,128,-4.744088619,-65779,8188,0.590531896,24972.65625,31872
-17.14150812,-237675,128,-14.52868575,-201447,128,-4.771783325,-66163,8071,0.582093666,24992.1875,32512
-17.12650682,-237467,128,-14.49875528,-201032,128,-4.726707307,-65538,14396,1.038262968,25011.71875,33152
-17.12953593,-237509,128,-14.51491052,-201256,128,-5.059476502,-70152,14393,1.038046603,25031.25,33792
-17.12001587,-237377,128,-14.49796194,-201021,128,-4.730097023,-65585,14368,1.036243562,25050.78125,34432
-17.12679531,-237471,128,-14.50589532,-201131,128,-5.026300553,-69692,14449,1.042085414,25070.3125,35072
-17.10256244,-237135,128,-14.47906607,-200759,128,-4.734135834,-65641,14384,1.037397508,25089.84375,35712
-17.07818533,-236797,128,-14.4864946,-200862,128,-4.727500645,-65549,14592,1.052398807,25109.375,36352
-17.05633248,-236494,128,-14.41271417,-199839,128,-4.866118415,-67471,15245,1.099494231,25128.90625,36992
-17.05013002,-236408,128,-14.41898875,-199926,128,-4.808565355,-66673,15552,1.121635571,25148.4375,37632
-17.10407699,-237156,128,-14.50293833,-201090,128,-4.735794632,-65664,12351,0.890774237,25167.96875,38272
-17.11518372,-237310,128,-14.46673327,-200588,128,-5.013607146,-69516,14336,1.03393567,25187.5,38912
-17.11561645,-237316,128,-14.49760133,-201016,128,-5.025507215,-69681,14399,1.038479333,25207.03125,39552
-17.2514936,-239200,128,-14.59208066,-202326,128,-4.734712808,-65649,7201,0.519347849,25226.5625,40192
-16.3278319,-226393,128,-14.183728,-196664,128,-4.731178848,-65600,2215,0.159749408,25246.09375,40832
-16.53496522,-229265,128,-14.32184092,-198579,128,-0.295410191,-4096,14334,1.033791427,25265.625,41472
-16.97909021,-235423,128,-14.41365175,-199852,128,-4.804598666,-66618,15997,1.153729696,25285.15625,42112
-17.08164717,-236845,128,-14.45288592,-200396,128,-5.020602944,-69613,13304,0.959506149,25304.6875,42752
-17.09260965,-236997,128,-14.43543249,-200154,128,-4.870373591,-67530,14361,1.035738711,25324.21875,43392
-17.07400227,-236739,128,-14.42295544,-199981,128,-5.02175689,-69629,14399,1.038479333,25343.75,44032
-17.05849612,-236524,128,-14.40954082,-199795,128,-4.727140036,-65544,15369,1.108437313,25363.28125,44672
-17.02431047,-236050,128,-14.39374618,-199576,128,-4.797530746,-66520,15598,1.124953166,25382.8125,45312
-16.98183083,-235461,128,-14.35285322,-199009,128,-4.874484524,-67587,16376,1.181063793,25402.34375,45952
-16.93653845,-234833,128,-14.34015981,-198833,128,-4.728798834,-65567,14863,1.071943768,25421.875,46592
-16.84617005,-233580,128,-14.27856794,-197979,128,-4.72685155,-65540,16156,1.165197035,25441.40625,47232
-16.76185987,-232411,128,-14.23760286,-197411,128,-4.72685155,-65540,15909,1.147382992,25460.9375,47872
-16.6702654,-231141,128,-14.18517043,-196684,128,-4.72685155,-65540,14339,1.034152035,25480.46875,48512
-16.62663181,-230536,128,-14.17211642,-196503,128,-1.181063793,-16376,16376,1.181063793,25500,49152
-16.77339933,-232571,128,-14.27027396,-197864,128,-4.87253724,-67560,12673,0.913997401,25519.53125,49792
-17.01414132,-235909,128,-14.36352722,-199157,128,-4.876648173,-67617,15991,1.153296966,25539.0625,50432
-17.08179141,-236847,128,-14.40449231,-199725,128,-5.008125902,-69440,14353,1.035161738,25558.59375,51072
-17.11273159,-237276,128,-14.40694444,-199759,128,-4.761253567,-66017,14351,1.035017495,25578.125,51712
-17.11222674,-237269,128,-14.39396255,-199579,128,-5.014544727,-69529,14831,1.069635876,25597.65625,52352
-17.13206019,-237544,128,-14.39114981,-199540,128,-4.948120707,-68608,14367,1.036171441,25617.1875,52992
-17.1387675,-237637,128,-14.397785,-199632,128,-4.727140036,-65544,8187,0.590459775,25636.71875,53632
-17.12650682,-237467,128,-14.3934577,-199572,128,-4.940187328,-68498,14439,1.041364198,25656.25,54272
-17.11799647,-237349,128,-14.37441759,-199308,128,-4.764643283,-66064,14363,1.035882954,25675.78125,54912
-17.10847641,-237217,128,-14.37283091,-199286,128,-4.882490025,-67698,14431,1.040787225,25695.3125,55552
-17.11583282,-237319,128,-14.37953822,-199379,128,-5.017429592,-69569,14721,1.061702497,25714.84375,56192
-17.11590494,-237320,128,-14.38783221,-199494,128,-4.798540449,-66534,14336,1.03393567,25734.375,56832
-17.11258735,-237274,128,-14.37614851,-199332,128,-4.762407513,-66033,14588,1.052110321,25753.90625,57472
-17.10133637,-237118,128,-14.38761585,-199491,128,-4.79991076,-66553,12787,0.922219267,25773.4375,58112
-17.10220183,-237130,128,-14.39439528,-199585,128,-5.016852619,-69561,12798,0.923012605,25792.96875,58752
-17.10616852,-237185,128,-14.42028694,-199944,128,-4.948409194,-68612,12799,0.923084727,25812.5,59392
-17.09181632,-236986,128,-14.41970997,-199936,128,-4.966583844,-68864,14336,1.03393567,25832.03125,60032
-17.09599937,-237044,128,-14.45303016,-200398,128,-4.983027575,-69092,13264,0.956621284,25851.5625,60672
-17.08244051,-236856,128,-14.4468277,-200312,128,-4.730601875,-65592,14400,1.038551454,25871.09375,61312
-17.09131147,-236979,128,-14.46875268,-200616,128,-5.021540525,-69626,14354,1.035233859,25890.625,61952
-17.07991625,-236821,128,-14.48339337,-200819,128,-4.734929172,-65652,14591,1.052326685,25910.15625,62592
-17.08034898,-236827,128,-14.49406737,-200967,128,-4.739328592,-65713,14399,1.038479333,25929.6875,63232
-17.0547458,-236472,128,-14.48635036,-200860,128,-4.726707307,-65538,15424,1.112404002,25949.21875,63872
-17.03758085,-236234,128,-14.50243348,-201083,128,-5.049163109,-70009,15422,1.112259759,25968.75,64512
-17.02842141,-236107,128,-14.44740468,-200320,128,-4.731178848,-65600,15765,1.136997478,25988.28125,65152
-17.00108731,-235728,128,-14.44726043,-200318,128,-4.846357089,-67197,16128,1.163177629,26007.8125,256
-17.06700648,-236642,128,-14.51130444,-201206,128,-5.017573836,-69571,14083,1.015688898,26027.34375,896
-17.06094826,-236558,128,-14.5068329,-201144,128,-4.731178848,-65600,14576,1.051244861,26046.875,1536
-17.05611611,-236491,128,-14.49861103,-201030,128,-5.049595839,-70015,15329,1.105552448,26066.40625,2176
-17.17771318,-238177,128,-14.57304055,-202062,128,-4.746180146,-65808,8191,0.590748261,26085.9375,2816
-16.61610205,-230390,128,-14.35876719,-199091,128,-4.762551756,-66035,31744,2.289428984,26105.46875,3456
-16.08276261,-222995,128,-14.15992786,-196334,128,-0.27673069,-3837,6271,0.452274734,26125,4096
-16.81494138,-233147,128,-14.43009549,-200080,128,-5.017645957,-69572,12293,0.886591183,26144.53125,4736
-16.92918204,-234731,128,-14.43867796,-200199,128,-4.985551832,-69127,14592,1.052398807,26164.0625,5376
-16.95456886,-235083,128,-14.43975978,-200214,128,-4.985623954,-69128,14839,1.070212849,26183.59375,6016
-16.9247105,-234669,128,-14.41444509,-199863,128,-4.743944376,-65777,14340,1.034224157,26203.125,6656
-16.90906011,-234452,128,-14.41797905,-199912,128,-5.003510118,-69376,15398,1.11052884,26222.65625,7296
-16.86823927,-233886,128,-14.38429825,-199445,128,-4.989590644,-69183,15453,1.114495529,26242.1875,7936
-16.84429489,-233554,128,-14.34167437,-198854,128,-4.953169221,-68678,16303,1.175798914,26261.71875,8576
-16.80563769,-233018,128,-14.34333317,-198877,128,-4.966367479,-68861,14342,1.0343684,26281.25,9216
-16.71159109,-231714,128,-14.28001038,-197999,128,-4.807411409,-66657,16350,1.17918863,26300.78125,9856
-16.61934753,-230435,128,-14.22851553,-197285,128,-4.799766517,-66551,15297,1.103244555,26320.3125,10496
-16.48080188,-228514,128,-14.14983084,-196194,128,-4.726707307,-65538,97,0.006995798,26339.84375,11136
-16.4455344,-228025,128,-14.15761997,-196302,128,-0.563125677,-7808,71,0.005120636,26359.375,11776
-16.64163311,-230744,128,-14.23832407,-197421,128,-4.756349296,-65949,16380,1.181352279,26378.90625,12416
-16.83939062,-233486,128,-14.33085612,-198704,128,-4.72685155,-65540,16379,1.181280158,26398.4375,13056
-16.93740391,-234845,128,-14.35898356,-199094,128,-4.910978068,-68093,16355,1.179549239,26417.96875,13696
-17.01428557,-235911,128,-14.37737457,-199349,128,-4.781736109,-66301,16377,1.181135914,26437.5,14336
-17.00570309,-235792,128,-14.37470607,-199312,128,-5.013318659,-69512,16376,1.181063793,26457.03125,14976
-16.99445212,-235636,128,-14.37564366,-199325,128,-4.88580762,-67744,16364,1.180198333,26476.5625,15616
-16.98875451,-235557,128,-14.36295025,-199149,128,-4.729375807,-65575,16377,1.181135914,26496.09375,16256
-16.98385024,-235489,128,-14.36633997,-199196,128,-5.021973255,-69632,16375,1.180991671,26515.625,16896
-16.98348963,-235484,128,-14.3494635,-198962,128,-4.726635185,-65537,14368,1.036243562,26535.15625,17536
-16.98803329,-235547,128,-14.35660355,-199061,128,-4.744737714,-65788,14608,1.053552753,26554.6875,18176
-17.01580012,-235932,128,-14.34520833,-198903,128,-4.892659175,-67839,16224,1.170101305,26574.21875,18816
-17.01918984,-235979,128,-14.35306959,-199012,128,-4.893019783,-67844,15921,1.148248452,26593.75,19456
-17.02445472,-236052,128,-14.34592954,-198913,128,-4.966655966,-68865,15840,1.1424066,26613.28125,20096
-17.01753104,-235956,128,-14.34405438,-198887,128,-4.734929172,-65652,16320,1.177024982,26632.8125,20736
-17.01096797,-235865,128,-14.35018472,-198972,128,-4.728438226,-65562,15905,1.147094506,26652.34375,21376
-17.03556145,-236206,128,-14.35083382,-198981,128,-4.98281121,-69089,15731,1.134545342,26671.875,22016
-17.03289295,-236169,128,-14.34506409,-198901,128,-4.874556646,-67588,15872,1.144714492,26691.40625,22656
-17.04046572,-236274,128,-14.34585742,-198912,128,-5.021973255,-69632,15746,1.135627167,26710.9375,23296
-17.0280608,-236102,128,-14.33164946,-198715,128,-5.016852619,-69561,15806,1.139954464,26730.46875,23936
-17.03087354,-236141,128,-14.34297256,-198872,128,-4.966583844,-68864,15811,1.140315073,26750,24576
-17.03700388,-236226,128,-14.32667307,-198646,128,-4.800415611,-66560,15423,1.112331881,26769.53125,25216
-17.03310931,-236172,128,-14.33388523,-198746,128,-4.728726712,-65566,14332,1.033647184,26789.0625,25856
-17.0350566,-236199,128,-14.32090334,-198566,128,-4.727140036,-65544,15384,1.109519137,26808.59375,26496
-17.02604139,-236074,128,-14.31650392,-198505,128,-4.726635185,-65537,15729,1.134401099,26828.125,27136
-17.00202489,-235741,128,-14.31549422,-198491,128,-4.870445713,-67531,16131,1.163393994,26847.65625,27776
-16.98889875,-235559,128,-14.24957505,-197577,128,-4.786568259,-66368,16381,1.181424401,26867.1875,28416
-16.98002779,-235436,128,-14.26226846,-197753,128,-4.846501332,-67199,14404,1.038839941,26886.71875,29056
-17.06289554,-236585,128,-14.32833187,-198669,128,-4.874628767,-67589,13303,0.959434028,26906.25,29696
-17.10847641,-237217,128,-14.3281155,-198666,128,-4.726635185,-65537,14415,1.039633279,26925.78125,30336
-17.11958314,-237371,128,-14.32083122,-198565,128,-4.758080215,-65973,14337,1.034007792,26945.3125,30976
-17.25647,-239269,128,-14.43399005,-200134,128,-4.800487733,-66561,8131,0.586420964,26964.84375,31616
-16.25693634,-225410,128,-13.98171532,-193863,128,-0.300242341,-4163,4094,0.295265948,26984.375,32256
-16.50315958,-228824,128,-14.12920405,-195908,128,-0.143594163,-1991,14339,1.034152035,27003.90625,32896
-16.91973411,-234600,128,-14.25859025,-197702,128,-4.805175639,-66626,16328,1.177601955,27023.4375,33536
-17.0237335,-236042,128,-14.27957765,-197993,128,-4.800487733,-66561,15408,1.111250056,27042.96875,34176
-17.04811061,-236380,128,-14.30280081,-198315,128,-4.736876456,-65679,15420,1.112115516,27062.5,34816
-17.03397477,-236184,128,-14.27496186,-197929,128,-4.727644888,-65551,16360,1.179909847,27082.03125,35456
-17.00765038,-235819,128,-14.26688424,-197817,128,-4.848376494,-67225,16381,1.181424401,27101.5625,36096
-16.98687935,-235531,128,-14.23255434,-197341,128,-4.728870956,-65568,16381,1.181424401,27121.09375,36736
-16.94959247,-235014,128,-14.22505369,-197237,128,-4.799405909,-66546,14384,1.037397508,27140.625,37376
-16.90776192,-234434,128,-14.20608571,-196974,128,-4.726923672,-65541,15423,1.112331881,27160.15625,38016
-16.85129069,-233651,128,-14.15112903,-196212,128,-0.555336542,-7700,16356,1.17962136,27179.6875,38656
-16.71743294,-231795,128,-14.08254136,-195261,128,-1.149113911,-15933,16256,1.172409197,27199.21875,39296
-16.63665672,-230675,128,-14.05470241,-194875,128,-0.521583619,-7232,14959,1.078867445,27218.75,39936
-16.57708425,-229849,128,-14.00854457,-194235,128,-0.410299946,-5689,15873,1.144786614,27238.28125,40576
-16.73589608,-232051,128,-14.11607791,-195726,128,-1.126107112,-15614,13775,0.993475436,27257.8125,41216
-16.98803329,-235547,128,-14.23385253,-197359,128,-4.744954079,-65791,14333,1.033719305,27277.34375,41856
-17.06267918,-236582,128,-14.25282052,-197622,128,-4.744232863,-65781,14424,1.040282373,27296.875,42496
-17.07854594,-236802,128,-14.27099517,-197874,128,-4.836981277,-67067,14392,1.037974481,27316.40625,43136
-17.09924484,-237089,128,-14.2837607,-198051,128,-4.743006795,-65764,14815,1.06848193,27335.9375,43776
-17.09873999,-237082,128,-14.29602138,-198221,128,-4.856742603,-67341,14390,1.037830238,27355.46875,44416
-17.10119213,-237116,128,-14.29133347,-198156,128,-4.856093509,-67332,14463,1.043095117,27375,45056
-17.08734478,-236924,128,-14.27856794,-197979,128,-4.763128729,-66043,14470,1.043599968,27394.53125,45696
-17.09578301,-237041,128,-14.27777461,-197968,128,-4.863882645,-67440,14351,1.035017495,27414.0625,46336
-17.08748902,-236926,128,-14.27265397,-197897,128,-4.726635185,-65537,14466,1.043311482,27433.59375,46976
-17.08806599,-236934,128,-14.26587454,-197803,128,-4.854578955,-67311,14336,1.03393567,27453.125,47616
-17.09102298,-236975,128,-14.28195766,-198026,128,-4.754329891,-65921,14400,1.038551454,27472.65625,48256
-17.09253753,-236996,128,-14.26717273,-197821,128,-4.802723503,-66592,14348,1.03480113,27492.1875,48896
-17.08936418,-236952,128,-14.27402428,-197916,128,-4.873979673,-67580,14444,1.041724806,27511.71875,49536
-17.09672059,-237054,128,-14.28844861,-198116,128,-4.761325689,-66018,13251,0.955683703,27531.25,50176
-17.09145571,-236981,128,-14.28491465,-198067,128,-4.836837034,-67065,14345,1.034584765,27550.78125,50816
-17.1017691,-237124,128,-14.27070669,-197870,128,-4.730024902,-65584,14351,1.035017495,27570.3125,51456
-17.09830726,-237076,128,-14.29169408,-198161,128,-4.791256164,-66433,12796,0.922868362,27589.84375,52096
-17.09022964,-236964,128,-14.26811031,-197834,128,-4.81498418,-66762,14431,1.040787225,27609.375,52736
-17.09924484,-237089,128,-14.27582732,-197941,128,-4.804959274,-66623,14367,1.036171441,27628.90625,53376
-17.09434057,-237021,128,-14.27150002,-197881,128,-4.744521349,-65785,14387,1.037613873,27648.4375,54016
-17.08438779,-236883,128,-14.25635448,-197671,128,-4.730241267,-65587,14368,1.036243562,27667.96875,54656
-17.09693695,-237057,128,-14.26558605,-197799,128,-4.743006795,-65764,14847,1.070789822,27687.5,55296
-17.05957795,-236539,128,-14.25282052,-197622,128,-4.731178848,-65600,15365,1.108148826,27707.03125,55936
-17.04717303,-236367,128,-14.20449903,-196952,128,-4.727140036,-65544,15613,1.12603499,27726.5625,56576
-17.07313682,-236727,128,-14.22267368,-197204,128,-4.797098016,-66514,13309,0.959866757,27746.09375,57216
-17.12001587,-237377,128,-14.26226846,-197753,128,-4.846573454,-67200,14527,1.047710901,27765.625,57856
-17.10970248,-237234,128,-14.28628496,-198086,128,-4.870229348,-67528,14338,1.034079913,27785.15625,58496
-17.09181632,-236986,128,-14.26738909,-197824,128,-4.841957669,-67136,14407,1.039056306,27804.6875,59136
-17.18716111,-238308,128,-14.34239558,-198864,128,-4.966583844,-68864,8071,0.582093666,27824.21875,59776
-15.94962608,-221149,128,-13.84482847,-191965,128,-0.002091527,-29,63,0.004543663,27843.75,60416
-16.65786048,-230969,128,-14.18098738,-196626,128,-4.727861253,-65554,16327,1.177529833,27863.28125,61056
-16.92788385,-234713,128,-14.23204949,-197334,128,-4.744449227,-65784,16263,1.172914049,27882.8125,61696
-17.00750613,-235817,128,-14.26234058,-197754,128,-4.735289781,-65657,14303,1.031555656,27902.34375,62336
-16.98796117,-235546,128,-14.23983863,-197442,128,-4.800415611,-66560,16382,1.181496523,27921.875,62976
-16.97216653,-235327,128,-14.21329787,-197074,128,-4.743944376,-65777,14529,1.047855144,27941.40625,63616
-16.94129848,-234899,128,-14.20356145,-196939,128,-4.761253567,-66017,14463,1.043095117,27960.9375,64256
-16.92391717,-234658,128,-14.19094016,-196764,128,-4.72771701,-65552,15111,1.089829932,27980.46875,64896
-16.89247214,-234222,128,-14.13252165,-195954,128,-0.53665704,-7441,16128,1.163177629,28000,0
-16.868672,-233892,128,-14.12278523,-195819,128,-0.563125677,-7808,15936,1.149330276,28019.53125,640
-16.76972112,-232520,128,-14.05463029,-194874,128,-1.17428436,-16282,15256,1.100287569,28039.0625,1280
-14.01445854,-194317,128,-302.5000361,-4194304,152,-9.453126127,-131072,0,0,28058.59375,1920
-16.55220229,-229504,128,-13.96786797,-193671,128,-0.036421423,-505,16316,1.176736495,28078.125,2560
-16.5599193,-229611,128,-13.97695529,-193797,128,-0.534926121,-7417,16263,1.172914049,28097.65625,3200
-16.74959919,-232241,128,-14.08196438,-195253,128,-0.590820383,-8192,15927,1.148681182,28117.1875,3840
-16.99337029,-235621,128,-14.18286254,-196652,128,-1.15171029,-15969,15876,1.145002978,28136.71875,4480
-17.0660689,-236629,128,-14.19988325,-196888,128,-4.742862552,-65762,14307,1.031844143,28156.25,5120
-17.0974418,-237064,128,-14.20911481,-197016,128,-4.72685155,-65540,13311,0.960011001,28175.78125,5760
-17.08936418,-236952,128,-14.21185544,-197054,128,-4.763489337,-66048,14366,1.036099319,28195.3125,6400
-17.0857581,-236902,128,-14.20298448,-196931,128,-4.764643283,-66064,14337,1.034007792,28214.84375,7040
-17.08128656,-236840,128,-14.20695117,-196986,128,-4.728366104,-65561,14463,1.043095117,28234.375,7680
-17.05683733,-236501,128,-14.1870456,-196710,128,-4.763489337,-66048,14790,1.06667889,28253.90625,8320
-17.05164457,-236429,128,-14.20060446,-196898,128,-4.726635185,-65537,15360,1.107788218,28273.4375,8960
-17.04695666,-236364,128,-14.21358636,-197078,128,-4.726779428,-65539,15367,1.108293069,28292.96875,9600
-17.03938389,-236259,128,-14.1810595,-196627,128,-4.740987389,-65736,15617,1.126323477,28312.5,10240
-17.05561126,-236484,128,-14.20969179,-197024,128,-1.181640766,-16384,15367,1.108293069,28332.03125,10880
-17.03527296,-236202,128,-14.19029107,-196755,128,-4.72685155,-65540,15363,1.108004583,28351.5625,11520
-17.05236579,-236439,128,-14.18596377,-196695,128,-1.180558941,-16369,15616,1.126251355,28371.09375,12160
-17.03866268,-236249,128,-14.19750323,-196855,128,-4.728798834,-65567,15587,1.124159828,28390.625,12800
-17.03909541,-236255,128,-14.19613292,-196836,128,-4.728943077,-65569,15392,1.11009611,28410.15625,13440
-17.02568078,-236069,128,-14.18408861,-196669,128,-4.728654591,-65565,15615,1.126179233,28429.6875,14080
-17.01003039,-235852,128,-14.17168369,-196497,128,-1.163321872,-16130,16158,1.165341278,28449.21875,14720
-16.9894036,-235566,128,-14.16699578,-196432,128,-4.727140036,-65544,16319,1.17695286,28468.75,15360
-16.97591686,-235379,128,-14.1313677,-195938,128,-1.145796316,-15887,14534,1.048215753,28488.28125,16000
-16.95896828,-235144,128,-14.11831368,-195757,128,-1.153441209,-15993,14535,1.048287874,28507.8125,16640
-17.01435769,-235912,128,-14.17074611,-196484,128,-1.168370386,-16200,14303,1.031555656,28527.34375,17280
-17.02351713,-236039,128,-14.18178072,-196637,128,-1.179404995,-16353,14335,1.033863549,28546.875,17920
-17.015728,-235931,128,-14.18610802,-196697,128,-4.740771024,-65733,15879,1.145219343,28566.40625,18560
-17.08525325,-236895,128,-14.20284023,-196929,128,-1.177601955,-16328,15872,1.144714492,28585.9375,19200
-17.07234348,-236716,128,-14.25902298,-197708,128,-4.727212158,-65545,8129,0.58627672,28605.46875,19840
-15.51148719,-215074,128,-13.70332583,-190003,128,-0.087483536,-1213,0,0,28625,20480
-16.68252607,-231311,128,-14.11896278,-195766,128,-0.330605546,-4584,1008,0.072698602,28644.53125,21120
-16.95341491,-235067,128,-14.14283504,-196097,128,-0.590604018,-8189,15987,1.153008479,28664.0625,21760
-16.9840666,-235492,128,-14.15350904,-196245,128,-0.582165787,-8072,16376,1.181063793,28683.59375,22400
-16.98298478,-235477,128,-14.15026357,-196200,128,-0.581660936,-8065,14371,1.036459927,28703.125,23040
-16.97122895,-235314,128,-14.13915683,-196046,128,-1.145002978,-15876,14528,1.047783023,28722.65625,23680
-16.97533989,-235371,128,-14.12307371,-195823,128,-1.163177629,-16128,14591,1.052326685,28742.1875,24320
-16.93949544,-234874,128,-14.08492137,-195294,128,-0.563197799,-7809,14400,1.038551454,28761.71875,24960
-16.89982854,-234324,128,-14.05902971,-194935,128,-1.0343684,-14342,14833,1.06978012,28781.25,25600
-16.83455847,-233419,128,-14.03948474,-194664,128,-0.556129879,-7711,16095,1.160797615,28800.78125,26240
-16.74209854,-232137,128,-13.98359048,-193889,128,-0.562620826,-7801,14862,1.071871647,28820.3125,26880
-16.60715897,-230266,128,-13.90548276,-192806,128,-0.303632057,-4210,14886,1.073602566,28839.84375,27520
-16.53698463,-229293,128,-13.88088928,-192465,128,-0.302694476,-4197,15879,1.145219343,28859.375,28160
-16.59771104,-230135,128,-13.91579615,-192949,128,-0.313801207,-4351,16141,1.16411521,28878.90625,28800
-16.87047504,-233917,128,-14.09415294,-195422,128,-0.590315532,-8185,12543,0.90462159,28898.4375,29440
-16.96307921,-235201,128,-14.11066879,-195651,128,-1.112620367,-15427,16159,1.165413399,28917.96875,30080
-17.0150789,-235922,128,-14.12905981,-195906,128,-1.123943463,-15584,15903,1.146950262,28937.5,30720
-17.03664327,-236221,128,-14.13778652,-196027,128,-1.18048682,-16368,15422,1.112259759,28957.03125,31360
-17.04731727,-236369,128,-14.14672961,-196151,128,-1.144786614,-15873,15410,1.111394299,28976.5625,32000
-17.02726746,-236091,128,-14.14225807,-196089,128,-1.177097103,-16321,15586,1.124087706,28996.09375,32640
-17.05337549,-236453,128,-14.11824156,-195756,128,-1.141901748,-15833,15375,1.108870042,29015.625,33280
-17.05532277,-236480,128,-14.13107921,-195934,128,-1.181135914,-16377,15361,1.10786034,29035.15625,33920
-17.07328106,-236729,128,-14.12473251,-195846,128,-1.108365191,-15368,14407,1.039056306,29054.6875,34560
-17.07421864,-236742,128,-14.10388936,-195557,128,-1.121202841,-15546,14533,1.048143631,29074.21875,35200
-17.05712581,-236505,128,-14.11030818,-195646,128,-1.122789517,-15568,14660,1.057303078,29093.75,35840
-17.06231857,-236577,128,-14.10273541,-195541,128,-1.112259759,-15422,14822,1.068986782,29113.28125,36480
-17.05344761,-236454,128,-14.11232759,-195674,128,-1.174789211,-16289,14816,1.068554052,29132.8125,37120
-17.05748642,-236510,128,-14.10944272,-195634,128,-1.125962868,-15612,14432,1.040859346,29152.34375,37760
-17.09095086,-236974,128,-14.10150934,-195524,128,-1.117019786,-15488,14339,1.034152035,29171.875,38400
-17.10487033,-237167,128,-14.11557306,-195719,128,-1.17298617,-16264,12701,0.916016807,29191.40625,39040
-17.10919763,-237227,128,-14.12422766,-195839,128,-1.166711589,-16177,14336,1.03393567,29210.9375,39680
-17.09470118,-237026,128,-14.1147076,-195707,128,-1.163249751,-16129,13184,0.950851554,29230.46875,40320
-17.07328106,-236729,128,-14.12725677,-195881,128,-1.143921154,-15861,13296,0.958929176,29250,40960
-17.06203008,-236573,128,-14.11016394,-195644,128,-1.174212238,-16281,14403,1.038767819,29269.53125,41600
-17.03246022,-236163,128,-14.08448864,-195288,128,-1.043095117,-14463,15492,1.117308273,29289.0625,42240
-17.04313422,-236311,128,-14.09083534,-195376,128,-1.163249751,-16129,15360,1.107788218,29308.59375,42880
-17.08972479,-236957,128,-14.19180562,-196776,128,-4.728366104,-65561,12800,0.923156848,29328.125,43520
-17.09938909,-237091,128,-14.17817464,-196587,128,-4.727644888,-65551,14344,1.034512643,29347.65625,44160
-17.09491755,-237029,128,-14.20255175,-196925,128,-4.745603173,-65800,13071,0.94270181,29367.1875,44800
-17.13984932,-237652,128,-14.28001038,-197999,128,-4.763489337,-66048,8064,0.581588814,29386.71875,45440
-15.79225669,-218967,128,-13.72467383,-190299,128,-0.581660936,-8065,32736,2.36097364,29406.25,46080
-16.67819878,-231251,128,-14.13158406,-195941,128,-0.305218733,-4232,1807,0.130323783,29425.78125,46720
-16.93249964,-234777,128,-14.16389455,-196389,128,-0.578848193,-8026,16124,1.162889142,29445.3125,47360
-17.00743401,-235816,128,-14.17514553,-196545,128,-1.165413399,-16159,14080,1.015472533,29464.84375,48000
-16.99502909,-235644,128,-14.15834119,-196312,128,-1.178755901,-16344,16112,1.162023683,29484.375,48640
-16.99026906,-235578,128,-14.16519274,-196407,128,-1.181640766,-16384,16358,1.179765604,29503.90625,49280
-16.96740651,-235261,128,-14.15451874,-196259,128,-1.137935059,-15778,16378,1.181208036,29523.4375,49920
-16.93329298,-234788,128,-14.12624706,-195867,128,-0.587286423,-8143,14556,1.049802428,29542.96875,50560
-16.9200226,-234604,128,-14.0660255,-195032,128,-1.107283367,-15353,14591,1.052326685,29562.5,51200
-16.87811993,-234023,128,-14.05585635,-194891,128,-1.034079913,-14338,15584,1.123943463,29582.03125,51840
-16.76625928,-232472,128,-13.99707723,-194076,128,-0.555048055,-7696,14615,1.054057605,29601.5625,52480
-16.66954418,-231131,128,-13.94428419,-193344,128,-0.521439376,-7230,16376,1.181063793,29621.09375,53120
-16.55234653,-229506,128,-13.8816105,-192475,128,-0.298078692,-4133,15870,1.144570249,29640.625,53760
-16.6322573,-230614,128,-13.91759919,-192974,128,-0.296564138,-4112,16320,1.177024982,29660.15625,54400
-16.83614514,-233441,128,-13.99750996,-194082,128,-0.554038352,-7682,12303,0.887312399,29679.6875,55040
-17.06051553,-236552,128,-14.10634149,-195591,128,-1.163754602,-16136,14329,1.033430819,29699.21875,55680
-17.1087649,-237221,128,-14.119684,-195776,128,-1.177024982,-16320,12409,0.894957291,29718.75,56320
-17.12766077,-237483,128,-14.13627197,-196006,128,-1.180558941,-16369,12288,0.886230574,29738.28125,56960
-17.13097836,-237529,128,-14.11788095,-195751,128,-1.126251355,-15616,12499,0.901448238,29757.8125,57600
-17.12773289,-237484,128,-14.12091006,-195793,128,-1.050235158,-14562,12494,0.90108763,29777.34375,58240
-17.12391044,-237431,128,-14.13021375,-195922,128,-1.142767208,-15845,12353,0.89091848,29796.875,58880
-17.10378851,-237152,128,-14.10994758,-195641,128,-1.181135914,-16377,12768,0.920848956,29816.40625,59520
-17.0991006,-237087,128,-14.10511543,-195574,128,-1.110168232,-15393,14384,1.037397508,29835.9375,60160
-17.09001328,-236961,128,-14.11809732,-195754,128,-1.117741003,-15498,13087,0.943855756,29855.46875,60800
-17.0954224,-237036,128,-14.11333729,-195688,128,-1.105336083,-15326,13191,0.951356405,29875,61440
-17.09650422,-237051,128,-14.10374512,-195555,128,-1.165413399,-16159,14370,1.036387806,29894.53125,62080
-17.10429336,-237159,128,-14.11283244,-195681,128,-1.181135914,-16377,12672,0.91392528,29914.0625,62720
-17.09946121,-237092,128,-14.1023748,-195536,128,-1.047855144,-14529,12792,0.922579875,29933.59375,63360
-17.11302008,-237280,128,-14.11917914,-195769,128,-1.148248452,-15921,12737,0.918613186,29953.125,64000
-17.10357214,-237149,128,-14.11326517,-195687,128,-1.108148826,-15365,14392,1.037974481,29972.65625,64640
-17.08388294,-236876,128,-14.10821666,-195617,128,-1.110168232,-15393,13311,0.960011001,29992.1875,65280
-17.06311191,-236588,128,-14.05124057,-194827,128,-1.035017495,-14351,14748,1.063649781,30011.71875,384
-17.04746152,-236371,128,-14.05297149,-194851,128,-1.064226754,-14756,14304,1.031627778,30031.25,1024
-17.11352493,-237287,128,-14.12949254,-195912,128,-1.074323782,-14896,12816,0.924310794,30050.78125,1664
-17.12203528,-237405,128,-14.12018885,-195783,128,-1.166062494,-16168,14368,1.036243562,30070.3125,2304
-17.12412681,-237434,128,-14.13122346,-195936,128,-1.149258155,-15935,14456,1.042590266,30089.84375,2944
-17.19271448,-238385,128,-14.14709021,-196156,128,-1.144714492,-15872,8063,0.581516693,30109.375,3584
-17.05979431,-236542,128,-14.14009442,-196059,128,-1.126251355,-15616,24579,1.772677514,30128.90625,4224
-15.73600182,-218187,128,-13.64642187,-189214,128,-0.101763618,-1411,6,4.33E-04,30148.4375,4864
-16.80917165,-233067,128,-14.05131269,-194828,128,-0.471098479,-6532,12533,0.903900373,30167.96875,5504
-17.00454915,-235776,128,-14.08420015,-195284,128,-0.507736267,-7040,15940,1.149618763,30187.5,6144
-17.04536999,-236342,128,-14.09083534,-195376,128,-1.092786919,-15152,15560,1.122212544,30207.03125,6784
-17.02495957,-236059,128,-14.06544853,-195024,128,-1.146012681,-15890,15423,1.112331881,30226.5625,7424
-17.01067948,-235861,128,-14.05910183,-194936,128,-1.103172434,-15296,15368,1.108365191,30246.09375,8064
-16.97930658,-235426,128,-14.04503811,-194741,128,-1.181640766,-16384,16383,1.181568644,30265.625,8704
-16.95060217,-235028,128,-14.025998,-194477,128,-0.590820383,-8192,14560,1.050090915,30285.15625,9344
-16.92478262,-234670,128,-14.01316035,-194299,128,-0.590459775,-8187,15346,1.106778515,30304.6875,9984
-16.83477483,-233422,128,-13.9403175,-193289,128,-0.582742761,-8080,16382,1.181496523,30324.21875,10624
-16.74527189,-232181,128,-13.89812635,-192704,128,-0.447731071,-6208,16136,1.163754602,30343.75,11264
