Device,Device,Device,Device,Device,Device,Device,Device,Device,Device,Device,Device
ECG LL-RA,ECG LL-RA,EXG2 Status,ECG LA-RA,ECG LA-RA,EXG1 Status,ECG Vx-RL,ECG Vx-RL,ExG2 CH1,ExG2 CH1,Timestamp,Timestamp
RAW,CAL,RAW,CAL,RAW,RAW,CAL,RAW,RAW,CAL,CAL,RAW
No Units,mV,No Units,mV,No Units,No Units,mV,No Units,No Units,mV,mSecs,No Units
121584,8.768836113,128,1.788544272,24799,128,1.766979905,24500,6167,0.444774085,58.59375,1920
122859,8.86079119,128,1.806863166,25053,128,1.04367209,14471,8190,0.59067614,78.125,2560
124880,9.006549002,128,1.8836727,26118,128,1.108437313,15369,16272,1.173563143,97.65625,3200
125027,9.017150881,128,1.892543661,26241,128,1.884321795,26127,14585,1.051893956,117.1875,3840
121946,8.794944143,128,1.799939489,24957,128,0.036421423,505,14385,1.03746963,136.71875,4480
120386,8.682434402,128,1.716206278,23796,128,7.21E-05,1,6256,0.45119291,156.25,5120
119416,8.612476422,128,0.964194055,13369,128,0.030002598,416,6876,0.495908319,175.78125,5760
118915,8.576343486,128,-0.033103828,-459,128,0.073708305,1022,6247,0.450543815,195.3125,6400
118649,8.557159133,128,-0.072482237,-1005,128,18.89218854,261949,4094,0.295265948,214.84375,7040
118423,8.540859645,128,-0.098590267,-1367,128,18.83124576,261104,3984,0.287332569,234.375,7680
118720,8.562279768,128,-0.101042402,-1401,128,18.76309082,260159,4048,0.291948353,253.90625,8320
118553,8.550235456,128,-0.096570861,-1339,128,18.89153944,261940,4060,0.292813813,273.4375,8960
118604,8.553913659,128,-0.094551455,-1311,128,18.76590356,260198,3968,0.286178623,292.96875,9600
118379,8.537686293,128,-0.111355795,-1544,128,-0.110850943,-1537,3711,0.267643364,312.5,10240
118712,8.561702795,128,-0.085752617,-1189,128,18.81444142,260871,3776,0.27233127,332.03125,10880
118616,8.554779119,128,-0.112726106,-1563,128,18.7677066,260223,4086,0.294688975,351.5625,11520
118608,8.554202146,128,-0.077242264,-1071,128,18.79547343,260608,4090,0.294977462,371.09375,12160
118557,8.550523943,128,-0.119000687,-1650,128,-0.003606081,-50,4095,0.29533807,390.625,12800
118543,8.54951424,128,-0.088276874,-1224,128,18.88310121,261823,3976,0.286755596,410.15625,13440
118630,8.555788822,128,-0.101042402,-1401,128,-0.074934372,-1039,4031,0.290722286,429.6875,14080
118341,8.534945671,128,-0.129891053,-1801,128,18.86867689,261623,4080,0.294256245,449.21875,14720
118432,8.541508739,128,-0.110057606,-1526,128,18.8704078,261647,3896,0.280985866,468.75,15360
118601,8.553697294,128,-0.086978684,-1206,128,18.83239971,261120,4092,0.295121705,488.28125,16000
118406,8.539633577,128,-0.107244862,-1487,128,18.7700145,260255,4080,0.294256245,507.8125,16640
118353,8.535811131,128,-0.123832837,-1717,128,18.83643852,261176,3844,0.277235541,527.34375,17280
118114,8.518574061,128,-0.13681473,-1897,128,18.90279042,262096,3710,0.267571243,546.875,17920
118352,8.535739009,128,-0.114384903,-1586,128,18.76309082,260159,3574,0.257762701,566.40625,18560
118260,8.529103819,128,-0.12664558,-1756,128,18.762009,260144,3520,0.253868133,585.9375,19200
118647,8.557014889,128,-0.099455726,-1379,128,18.80751774,260775,3588,0.258772404,605.46875,19840
119068,8.587378095,128,-0.102556956,-1422,128,18.87754785,261746,8140,0.587070058,625,20480
119327,8.606057597,128,-0.071544656,-992,128,-0.00706792,-98,7999,0.576900909,644.53125,21120
118569,8.551389402,128,-0.097147834,-1347,128,18.87156175,261663,7424,0.535430972,664.0625,21760
117774,8.494052707,128,-0.128160134,-1777,128,-0.111788525,-1550,3905,0.28163496,683.59375,22400
117773,8.493980586,128,-0.135155932,-1874,128,-5.77E-04,-8,4081,0.294328367,703.125,23040
117548,8.477753219,128,-0.159533043,-2212,128,18.89882373,262041,4088,0.294833218,722.65625,23680
117806,8.4963606,128,-0.134434716,-1864,128,18.76886055,260239,3824,0.275793108,742.1875,24320
119153,8.593508434,128,-0.032815341,-455,128,18.83232758,261119,16636,1.199815416,761.71875,24960
130348,9.400910068,128,-0.018535259,-257,128,0.01817465,252,16158,1.165341278,781.25,25600
118871,8.573170134,128,-0.238938956,-3313,128,-0.294328367,-4081,7703,0.555552906,800.78125,26240
117968,8.508044303,128,-0.137103216,-1901,128,-2.16E-04,-3,1983,0.14301719,820.3125,26880
118147,8.520954075,128,-0.135228054,-1875,128,-0.141358392,-1960,4095,0.29533807,839.84375,27520
118508,8.546989983,128,-0.118351593,-1641,128,-0.114168538,-1583,4063,0.293030178,859.375,28160
118398,8.539056604,128,-0.120082512,-1665,128,-0.016155245,-224,3973,0.286539231,878.90625,28800
118711,8.561630674,128,-0.109336389,-1516,128,-0.147488731,-2045,4095,0.29533807,898.4375,29440
118616,8.554779119,128,-0.132631675,-1839,128,18.77809212,260367,4088,0.294833218,917.96875,30080
119244,8.600071502,128,-0.081425319,-1129,128,18.89723705,262019,8166,0.588945221,937.5,30720
119908,8.647960263,128,-0.073564061,-1020,128,18.81263838,260846,8064,0.581588814,957.03125,31360
120709,8.705729688,128,-0.074068913,-1027,128,-0.075006494,-1040,8095,0.583824585,976.5625,32000
122806,8.856968743,128,0.017164948,238,128,-7.21E-05,-1,16889,1.218062188,996.09375,32640
123845,8.931903116,128,0.051062113,708,128,8.65E-04,12,24640,1.777076933,1015.625,33280
123503,8.907237519,128,0.021492245,298,128,0.013775231,191,15983,1.152719993,1035.15625,33920
121425,8.757368774,128,-0.045003896,-624,128,0.002163649,30,8179,0.589882802,1054.6875,34560
118744,8.564010687,128,-0.128088013,-1776,128,-0.003750325,-52,7681,0.553966231,1074.21875,35200
117914,8.504149735,128,-0.141791122,-1966,128,18.68440612,259068,3578,0.258051188,1093.75,35840
117424,8.468810137,128,-0.163427611,-2266,128,18.90531467,262131,4094,0.295265948,1113.28125,36480
117503,8.474507746,128,-0.14965238,-2075,128,18.64755197,258557,3832,0.276370081,1132.8125,37120
117221,8.454169447,128,-0.161840935,-2244,128,18.78624186,260480,3840,0.276947054,1152.34375,37760
117279,8.458352501,128,-0.153691191,-2131,128,18.90531467,262131,4064,0.293102299,1171.875,38400
117257,8.456765825,128,-0.159605164,-2213,128,-1.44E-04,-2,3647,0.26302758,1191.40625,39040
117080,8.444000297,128,-0.165879746,-2300,128,18.75854716,260096,4032,0.290794407,1210.9375,39680
117288,8.459001596,128,-0.163427611,-2266,128,18.64661439,258544,4048,0.291948353,1230.46875,40320
117473,8.472344097,128,-0.130107418,-1804,128,18.87329267,261687,4080,0.294256245,1250,40960
117412,8.467944678,128,-0.124049201,-1720,128,-0.024954084,-346,16575,1.195415997,1269.53125,41600
117168,8.450347,128,-0.145541447,-2018,128,18.75962898,260111,3568,0.257329971,1289.0625,42240
117266,8.45741492,128,-0.154051799,-2136,128,-0.293174421,-4065,16495,1.189646267,1308.59375,42880
116856,8.427845052,128,-0.184703491,-2561,128,18.90163647,262080,4080,0.294256245,1328.125,43520
117033,8.440610581,128,-0.176842234,-2452,128,-0.131549851,-1824,3851,0.277740392,1347.65625,44160
117020,8.439672999,128,-0.129025594,-1789,128,18.62699731,258272,16388,1.181929252,1367.1875,44800
116918,8.432316593,128,-0.184775613,-2562,128,-0.277091298,-3842,4095,0.29533807,1386.71875,45440
116681,8.415223767,128,-0.188309573,-2611,128,18.87069629,261651,3964,0.285890136,1406.25,46080
116808,8.424383214,128,-0.185785316,-2576,128,18.90509831,262128,3904,0.281562839,1425.78125,46720
116585,8.408300091,128,-0.19617083,-2720,128,18.89904009,262044,3680,0.265407594,1445.3125,47360
116666,8.414141943,128,-0.184126518,-2553,128,-1.44E-04,-2,2045,0.147488731,1464.84375,48000
117226,8.454530055,128,-0.200065398,-2774,128,-0.036998396,-513,4067,0.293318664,1484.375,48640
118484,8.545259064,128,-0.112942471,-1566,128,-0.184559248,-2559,17183,1.239265947,1503.90625,49280
117640,8.484388409,128,-0.144675987,-2006,128,18.75486896,260045,16398,1.182650469,1523.4375,49920
116814,8.424815944,128,-0.198911452,-2758,128,18.87285994,261681,3992,0.287909542,1542.96875,50560
116143,8.376422331,128,-0.205330277,-2847,128,-0.279254947,-3872,16547,1.193396591,1562.5,51200
116224,8.382264183,128,-0.216653373,-3004,128,18.61488087,258104,2044,0.147416609,1582.03125,51840
116087,8.37238352,128,-0.214994575,-2981,128,-0.002380014,-33,16511,1.190800213,1601.5625,52480
115661,8.341659706,128,-0.207277561,-2874,128,18.90293466,262098,1868,0.134723203,1621.09375,53120
117648,8.484965382,128,-0.123472228,-1712,128,-0.00223577,-31,16771,1.209551836,1640.625,53760
123105,8.87853311,128,-0.294039881,-4077,128,18.61113055,258052,15614,1.126107112,1660.15625,54400
113818,8.208739544,128,-0.267787608,-3713,128,18.35105996,254446,2046,0.147560852,1679.6875,55040
116354,8.391639995,128,-0.202445412,-2807,128,18.61084206,258048,16384,1.181640766,1699.21875,55680
116683,8.41536801,128,-0.208719994,-2894,128,-0.228264955,-3165,1887,0.136093513,1718.75,56320
116779,8.422291687,128,-0.215571548,-2989,128,-0.069020399,-957,16387,1.181857131,1738.28125,56960
116970,8.436066918,128,-0.198118114,-2747,128,-0.291443502,-4041,4095,0.29533807,1757.8125,57600
117493,8.47378653,128,-0.1930696,-2677,128,18.64647015,258542,3840,0.276947054,1777.34375,58240
117670,8.486552058,128,-0.166168233,-2304,128,-0.260863931,-3617,4095,0.29533807,1796.875,58880
117692,8.488138734,128,-0.192997479,-2676,128,-0.166168233,-2304,3589,0.258844526,1816.40625,59520
118991,8.58182473,128,-0.142872947,-1981,128,18.89702069,262016,4034,0.29093865,1835.9375,60160
120227,8.670967063,128,-0.101979983,-1414,128,18.83499608,261156,16512,1.190872334,1855.46875,60800
121456,8.759604545,128,-0.047888762,-664,128,18.89211641,261948,16432,1.185102604,1875,61440
122815,8.857617838,128,-0.033680801,-467,128,18.87423025,261700,8184,0.59024341,1894.53125,62080
122368,8.82537947,128,-0.038296585,-531,128,18.90618013,262143,7680,0.553894109,1914.0625,62720
119240,8.599783015,128,-0.160037894,-2219,128,-0.07616044,-1056,7687,0.55439896,1933.59375,63360
117621,8.483018098,128,-0.20987394,-2910,128,-0.18463137,-2560,3583,0.258411796,1953.125,64000
116744,8.41976743,128,-0.216653373,-3004,128,18.61769362,258143,3870,0.279110703,1972.65625,64640
116560,8.40649705,128,-0.216148521,-2997,128,-0.291082894,-4036,3999,0.288414393,1992.1875,65280
116270,8.385581778,128,-0.254517228,-3529,128,-0.254517228,-3529,1983,0.14301719,2011.71875,384
116364,8.392361211,128,-0.236486821,-3279,128,18.61098631,258050,2032,0.14655115,2031.25,1024
116499,8.402097631,128,-0.245502024,-3404,128,-0.253940255,-3521,16415,1.183876536,2050.78125,1664
116186,8.379523561,128,-0.248891741,-3451,128,18.68440612,259068,16392,1.182217739,2070.3125,2304
116423,8.396616387,128,-0.235909848,-3271,128,-0.014063718,-195,16387,1.181857131,2089.84375,2944
116394,8.39452486,128,-0.232520131,-3224,128,-0.221629765,-3073,16455,1.186761402,2109.375,3584
116457,8.399068522,128,-0.237496524,-3293,128,-0.294184124,-4079,16391,1.182145617,2128.90625,4224
116563,8.406713415,128,-0.241174727,-3344,128,18.83225546,261118,16400,1.182794712,2148.4375,4864
116729,8.418685605,128,-0.214561846,-2975,128,-5.77E-04,-8,16495,1.189646267,2167.96875,5504
116558,8.406352807,128,-0.236631064,-3281,128,-0.273557338,-3793,1807,0.130323783,2187.5,6144
116471,8.400078225,128,-0.248747498,-3449,128,-0.239804416,-3325,16391,1.182145617,2207.03125,6784
116454,8.398852157,128,-0.244636565,-3392,128,18.88548122,261856,16614,1.19822874,2226.5625,7424
116463,8.399501252,128,-0.249612957,-3461,128,18.89593886,262001,3840,0.276947054,2246.09375,8064
116639,8.412194659,128,-0.21167698,-2935,128,18.90480982,262124,16624,1.198949957,2265.625,8704
116474,8.40029459,128,-0.2470887,-3426,128,18.90293466,262098,2018,0.145541447,2285.15625,9344
117174,8.45077973,128,-0.226894644,-3146,128,18.68094429,259020,16446,1.186112307,2304.6875,9984
117789,8.495134532,128,-0.211027886,-2926,128,-0.211027886,-2926,16399,1.18272259,2324.21875,10624
117488,8.473425922,128,-0.215715792,-2991,128,-0.001081824,-15,4063,0.293030178,2343.75,11264
116655,8.413348605,128,-0.243338375,-3374,128,-0.22271159,-3088,16399,1.18272259,2363.28125,11904
116288,8.386879967,128,-0.251343876,-3485,128,18.88778912,261888,16408,1.183371685,2382.8125,12544
116219,8.381903575,128,-0.274567041,-3807,128,-0.29533807,-4095,16639,1.200031781,2402.34375,13184
116299,8.387673305,128,-0.27319673,-3788,128,-0.00223577,-31,2047,0.147632974,2421.875,13824
116143,8.376422331,128,-0.250694782,-3476,128,-7.21E-05,-1,16387,1.181857131,2441.40625,14464
116296,8.38745694,128,-0.2134079,-2959,128,18.89680432,262013,17920,1.292419588,2460.9375,15104
126416,9.117327823,128,-0.292525326,-4056,128,18.77664969,260347,15360,1.107788218,2480.46875,15744
114784,8.278409037,128,-0.324980059,-4506,128,18.31564824,253955,16480,1.188564442,2500,16384
116670,8.414430429,128,-0.268580946,-3724,128,-0.277451906,-3847,16447,1.186184428,2519.53125,17024
116944,8.434191756,128,-0.247809916,-3436,128,18.61199601,258064,16384,1.181640766,2539.0625,17664
117186,8.45164519,128,-0.250045687,-3467,128,-0.280408893,-3888,16391,1.182145617,2558.59375,18304
117225,8.454457933,128,-0.254300863,-3526,128,18.68462249,259071,4092,0.295121705,2578.125,18944
117653,8.48532599,128,-0.248891741,-3451,128,-0.295121705,-4092,4095,0.29533807,2597.65625,19584
117798,8.495783627,128,-0.232736496,-3227,128,-0.221629765,-3073,16573,1.195271754,2617.1875,20224
118098,8.517420115,128,-0.219682481,-3046,128,18.61141904,258056,16640,1.200103903,2636.71875,20864
118963,8.579805324,128,-0.218240049,-3026,128,-0.29533807,-4095,16385,1.181712887,2656.25,21504
120251,8.672697982,128,-0.148065704,-2053,128,-5.77E-04,-8,16831,1.213879134,2675.78125,22144
122280,8.819032767,128,-0.099383604,-1378,128,-0.008943082,-124,17407,1.255421192,2695.3125,22784
123186,8.884374962,128,-0.079189548,-1098,128,18.90509831,262128,24832,1.790924286,2714.84375,23424
122124,8.807781793,128,-0.109769119,-1522,128,-7.21E-05,-1,16191,1.167721292,2734.375,24064
119775,8.638368087,128,-0.19393506,-2689,128,-0.001153946,-16,7175,0.517472686,2753.90625,24704
118166,8.522324386,128,-0.245357781,-3402,128,18.90531467,262131,3984,0.287332569,2773.4375,25344
117157,8.449553662,128,-0.25949362,-3598,128,-0.267210635,-3705,4089,0.29490534,2792.96875,25984
116958,8.435201458,128,-0.246944457,-3424,128,-0.230789212,-3200,16399,1.18272259,2812.5,26624
116809,8.424455336,128,-0.299953854,-4159,128,-0.27629796,-3831,3979,0.286971961,2832.03125,27264
116713,8.417531659,128,-0.290722286,-4031,128,-0.29533807,-4095,16481,1.188636564,2851.5625,27904
116798,8.423661998,128,-0.284087096,-3939,128,-0.009231568,-128,16391,1.182145617,2871.09375,28544
116735,8.419118335,128,-0.273052487,-3786,128,-0.147272366,-2042,2047,0.147632974,2890.625,29184
116650,8.412987997,128,-0.281707082,-3906,128,18.83701549,261184,2046,0.147560852,2910.15625,29824
116712,8.417459538,128,-0.305723584,-4239,128,-0.544806784,-7554,1991,0.143594163,2929.6875,30464
117071,8.443351202,128,-0.277740392,-3851,128,-0.032959584,-457,4047,0.291876232,2949.21875,31104
116978,8.436643891,128,-0.273485216,-3792,128,-0.294544732,-4084,2023,0.145902055,2968.75,31744
116863,8.428349904,128,-0.299376881,-4151,128,-0.295626556,-4099,4095,0.29533807,2988.28125,32384
117151,8.449120933,128,-0.273413095,-3791,128,18.90156435,262079,16480,1.188564442,3007.8125,33024
116691,8.415944983,128,-0.307526625,-4264,128,-0.011827947,-164,2015,0.145325082,3027.34375,33664
116962,8.435489945,128,-0.294544732,-4084,128,18.374211,254767,2044,0.147416609,3046.875,34304
116485,8.401087928,128,-0.31704668,-4396,128,-0.44412499,-6158,3843,0.277163419,3066.40625,34944
116893,8.430513552,128,-0.286755596,-3976,128,18.61949666,258168,16384,1.181640766,3085.9375,35584
116821,8.425320795,128,-0.311493315,-4319,128,18.87386964,261695,3612,0.260503323,3105.46875,36224
116720,8.418036511,128,-0.304858125,-4227,128,18.60153837,257919,2032,0.14655115,3125,36864
116748,8.420055916,128,-0.30774299,-4267,128,-0.461073573,-6393,3951,0.284952555,3144.53125,37504
117108,8.446019703,128,-0.288919245,-4006,128,18.61971302,258171,16444,1.185968064,3164.0625,38144
118084,8.516410412,128,-0.267643364,-3711,128,-0.461506303,-6399,16415,1.183876536,3183.59375,38784
118108,8.518141331,128,-0.241895943,-3354,128,18.61819847,258150,16412,1.183660171,3203.125,39424
116561,8.406569172,128,-0.324763694,-4503,128,18.9057474,262137,3704,0.267138513,3222.65625,40064
116355,8.391712116,128,-0.33385102,-4629,128,-0.003389717,-47,2019,0.145613568,3242.1875,40704
116361,8.392144846,128,-0.328946749,-4561,128,-0.017958286,-249,1921,0.138545649,3261.71875,41344
116218,8.381831453,128,-0.336808006,-4670,128,18.5949753,257828,1760,0.126934067,3281.25,41984
116423,8.396616387,128,-0.323465505,-4485,128,-0.017381313,-241,16487,1.189069294,3300.78125,42624
116848,8.427268079,128,-0.237063794,-3287,128,18.6126451,258073,16384,1.181640766,3320.3125,43264
129116,9.312056221,128,-0.177851937,-2466,128,18.72847244,259679,15452,1.114423408,3339.84375,43904
115063,8.298530972,128,-0.374311253,-5190,128,-0.360103292,-4993,7439,0.536512796,3359.375,44544
116781,8.42243593,128,-0.308824814,-4282,128,-0.572357246,-7936,16389,1.182001374,3378.90625,45184
116928,8.433037809,128,-0.311926044,-4325,128,18.59418197,257817,4032,0.290794407,3398.4375,45824
116966,8.435778431,128,-0.324330965,-4497,128,18.86932598,261632,4094,0.295265948,3417.96875,46464
117143,8.44854396,128,-0.325196424,-4509,128,-0.583680342,-8093,16407,1.183299563,3437.5,47104
117563,8.478835044,128,-0.288919245,-4006,128,18.45419388,255876,16670,1.202267552,3457.03125,47744
117673,8.486768423,128,-0.319643059,-4432,128,18.43544226,255616,16396,1.182506225,3476.5625,48384
118276,8.530257765,128,-0.270167621,-3746,128,18.62483366,258242,16882,1.217557337,3496.09375,49024
118831,8.570285269,128,-0.277596149,-3849,128,-0.146334785,-2029,16447,1.186184428,3515.625,49664
120311,8.67702528,128,-0.208719994,-2894,128,18.90618013,262143,16386,1.181785009,3535.15625,50304
121863,8.788958048,128,-0.179582856,-2490,128,18.68455037,259070,16432,1.185102604,3554.6875,50944
123000,8.870960339,128,-0.14921965,-2069,128,18.684334,259067,24584,1.773038122,3574.21875,51584
123129,8.88026403,128,-0.131189243,-1819,128,18.86932598,261632,24582,1.772893879,3593.75,52224
120758,8.709263648,128,-0.201724196,-2797,128,18.75393137,260032,8176,0.589666437,3613.28125,52864
118112,8.518429818,128,-0.293967759,-4076,128,-0.276370081,-3832,3975,0.286683474,3632.8125,53504
117405,8.467439826,128,-0.318272748,-4413,128,-0.297718084,-4128,16413,1.183732293,3652.34375,54144
116914,8.432028107,128,-0.333562533,-4625,128,18.5789643,257606,3968,0.286178623,3671.875,54784
116778,8.422219565,128,-0.339837115,-4712,128,18.86182533,261528,3896,0.280985866,3691.40625,55424
116955,8.434985093,128,-0.331182519,-4592,128,-0.018463137,-256,4095,0.29533807,3710.9375,56064
116774,8.421931079,128,-0.348780197,-4836,128,18.31831674,253992,2040,0.147128123,3730.46875,56704
116494,8.401737023,128,-0.352169913,-4883,128,18.33360652,254204,16398,1.182650469,3750,57344
116631,8.411617686,128,-0.347049278,-4812,128,-0.443403774,-6148,16399,1.18272259,3769.53125,57984
116625,8.411184956,128,-0.340918939,-4727,128,-0.009231568,-128,16799,1.211571242,3789.0625,58624
116714,8.417603781,128,-0.342866223,-4754,128,18.46082907,255968,16412,1.183660171,3808.59375,59264
116674,8.414718916,128,-0.339548628,-4708,128,18.86925386,261631,17344,1.250877529,3828.125,59904
116573,8.407434631,128,-0.354117197,-4910,128,-0.353179616,-4897,16511,1.190800213,3847.65625,60544
116849,8.427340201,128,-0.333490411,-4624,128,-0.001153946,-16,16401,1.182866834,3867.1875,61184
116618,8.410680105,128,-0.349140805,-4841,128,-0.459342654,-6369,16843,1.214744593,3886.71875,61824
116646,8.41269951,128,-0.322023072,-4465,128,18.45412176,255875,16868,1.216547634,3906.25,62464
116501,8.402241874,128,-0.369695469,-5126,128,-0.074429521,-1032,16663,1.2017627,3925.78125,63104
116486,8.40116005,128,-0.349717778,-4849,128,18.89976131,262054,16894,1.218422797,3945.3125,63744
116456,8.398996401,128,-0.354045076,-4909,128,18.40666573,255217,16608,1.197796011,3964.84375,64384
116367,8.392577576,128,-0.337384979,-4678,128,18.90264617,262094,16624,1.198949957,3984.375,65024
116828,8.425825647,128,-0.335798304,-4656,128,18.90610801,262142,16390,1.182073496,4003.90625,128
117103,8.445659095,128,-0.3267831,-4531,128,-0.036926274,-512,16687,1.203493619,4023.4375,768
118179,8.523261967,128,-0.283365879,-3929,128,18.57593519,257564,16384,1.181640766,4042.96875,1408
117637,8.484172044,128,-0.291443502,-4041,128,-0.070174345,-973,16391,1.182145617,4062.5,2048
116496,8.401881266,128,-0.344380777,-4775,128,-0.445711666,-6180,16639,1.200031781,4082.03125,2688
116298,8.387601183,128,-0.357002062,-4950,128,18.83297668,261128,16394,1.182361982,4101.5625,3328
116217,8.381759331,128,-0.350222629,-4856,128,-0.006995798,-97,16903,1.219071891,4121.09375,3968
116479,8.400655198,128,-0.332480709,-4610,128,-0.055461533,-769,16447,1.186184428,4140.625,4608
116029,8.368200465,128,-0.351665062,-4876,128,-0.315027274,-4368,16895,1.218494918,4160.15625,5248
121415,8.756647558,128,-0.176986477,-2454,128,-0.010457636,-145,16481,1.188636564,4179.6875,5888
126153,9.098359835,128,-0.377556727,-5235,128,-0.433378867,-6009,15881,1.145363587,4199.21875,6528
114567,8.262758644,128,-0.362699671,-5029,128,18.90618013,262143,0,0,4218.75,7168
116734,8.419046214,128,-0.355343265,-4927,128,18.44005805,255680,16638,1.19995966,4238.28125,7808
117043,8.441331797,128,-0.33962075,-4709,128,-0.56543357,-7840,16511,1.190800213,4257.8125,8448
117053,8.442053013,128,-0.324763694,-4503,128,-0.00973642,-135,3871,0.279182825,4277.34375,9088
117289,8.459073717,128,-0.32721583,-4537,128,-0.583824585,-8095,16769,1.209407593,4296.875,9728
117368,8.464771326,128,-0.315171518,-4370,128,18.33209197,254183,16408,1.183371685,4316.40625,10368
117459,8.471334394,128,-0.331831614,-4601,128,-0.313368477,-4345,16385,1.181712887,4335.9375,11008
118176,8.523045602,128,-0.323537627,-4486,128,-0.045580869,-632,16387,1.181857131,4355.46875,11648
118946,8.578579256,128,-0.283942852,-3937,128,-0.145469325,-2017,16419,1.184165023,4375,12288
120489,8.68986293,128,-0.231366185,-3208,128,-0.013919474,-193,16447,1.186184428,4394.53125,12928
122053,8.802661157,128,-0.18153014,-2517,128,-0.032671098,-453,16391,1.182145617,4414.0625,13568
123094,8.877739773,128,-0.163283368,-2264,128,18.72162088,259584,24576,1.772461149,4433.59375,14208
121708,8.777779195,128,-0.204392696,-2834,128,-0.290866529,-4033,8191,0.590748261,4453.125,14848
119461,8.615721895,128,-0.271682176,-3767,128,-0.01327038,-184,7685,0.554254717,4472.65625,15488
117404,8.467367705,128,-0.343226831,-4759,128,-0.443331652,-6147,3807,0.274567041,4492.1875,16128
116653,8.413204362,128,-0.364719077,-5057,128,18.90156435,262079,16516,1.191160821,4511.71875,16768
116403,8.395173954,128,-0.364646955,-5056,128,18.32459132,254079,16448,1.18625655,4531.25,17408
116532,8.404477645,128,-0.360031171,-4992,128,-0.332336465,-4608,16695,1.204070592,4550.78125,18048
116360,8.392072724,128,-0.386644052,-5361,128,-0.073924669,-1025,2041,0.147200244,4570.3125,18688
116298,8.387601183,128,-0.361906333,-5018,128,18.31773976,253984,16462,1.187266253,4589.84375,19328
116266,8.385293291,128,-0.365584536,-5069,128,-0.586493085,-8132,16459,1.187049888,4609.375,19968
116264,8.385149048,128,-0.388807701,-5391,128,18.90596377,262140,2028,0.146262663,4628.90625,20608
116481,8.400799441,128,-0.366017266,-5075,128,-0.458765681,-6361,16641,1.200176024,4648.4375,21248
116419,8.3963279,128,-0.359959049,-4991,128,-0.369190618,-5119,16639,1.200031781,4667.96875,21888
116319,8.389115738,128,-0.360103292,-4993,128,-0.064693101,-897,16391,1.182145617,4687.5,22528
116391,8.394308495,128,-0.365440293,-5067,128,18.78631399,260481,16384,1.181640766,4707.03125,23168
116172,8.378513858,128,-0.378782794,-5252,128,18.90596377,262140,16636,1.199815416,4726.5625,23808
116297,8.387529062,128,-0.368469401,-5109,128,-0.29887203,-4144,16895,1.218494918,4746.09375,24448
116353,8.391567873,128,-0.357074184,-4951,128,18.3165137,253967,16896,1.21856704,4765.625,25088
116208,8.381110237,128,-0.381956146,-5296,128,18.79085765,260544,16638,1.19995966,4785.15625,25728
116021,8.367623492,128,-0.376547024,-5221,128,-7.21E-05,-1,16445,1.186040185,4804.6875,26368
115982,8.364810749,128,-0.365368171,-5066,128,18.87379752,261694,16390,1.182073496,4824.21875,27008
116738,8.4193347,128,-0.373301551,-5176,128,18.90509831,262128,16476,1.188275956,4843.75,27648
117774,8.494052707,128,-0.295915043,-4103,128,-2.16E-04,-3,16391,1.182145617,4863.28125,28288
116709,8.417243173,128,-0.362411185,-5025,128,-0.073852548,-1024,3615,0.260719688,4882.8125,28928
116025,8.367911979,128,-0.386283444,-5356,128,18.88822185,261894,1928,0.1390505,4902.34375,29568
115643,8.340361517,128,-0.395947742,-5490,128,-0.575963327,-7986,16447,1.186184428,4921.875,30208
115733,8.346852463,128,-0.367243334,-5092,128,18.57420427,257540,16384,1.181640766,4941.40625,30848
115660,8.341587584,128,-0.400491405,-5553,128,18.8704078,261647,1020,0.073564061,4960.9375,31488
115152,8.304949797,128,-0.404746581,-5612,128,18.86932598,261632,16496,1.189718388,4980.46875,32128
116309,8.388394521,128,-0.328946749,-4561,128,18.9004104,262063,17920,1.292419588,5000,32768
122778,8.854949338,128,-0.467059668,-6476,128,-0.571275422,-7921,16255,1.172337076,5019.53125,33408
113429,8.18068423,128,-0.436840705,-6057,128,-0.438283138,-6077,511,0.036854152,5039.0625,34048
115980,8.364666505,128,-0.39630835,-5495,128,-0.407342959,-5648,16865,1.216331269,5058.59375,34688
116445,8.398203063,128,-0.369190618,-5119,128,-0.590748261,-8191,17117,1.23450592,5078.125,35328
115956,8.362935586,128,-0.406116892,-5631,128,18.88786124,261889,16496,1.189718388,5097.65625,35968
116627,8.411329199,128,-0.373013064,-5172,128,18.90610801,262142,16624,1.198949957,5117.1875,36608
116649,8.412915875,128,-0.370272442,-5134,128,18.90567528,262136,16568,1.194911146,5136.71875,37248
116851,8.427484444,128,-0.36529605,-5065,128,-0.364719077,-5057,16433,1.185174726,5156.25,37888
117349,8.463401015,128,-0.348852318,-4837,128,-0.05315364,-737,16485,1.18892505,5175.78125,38528
118223,8.526435319,128,-0.32324914,-4482,128,18.87841331,261758,16824,1.213374283,5195.3125,39168
119504,8.618823125,128,-0.30774299,-4267,128,18.4585933,255937,16624,1.198949957,5214.84375,39808
120886,8.718495216,128,-0.251632363,-3489,128,18.75962898,260111,16438,1.185535334,5234.375,40448
122551,8.838577728,128,-0.191338681,-2653,128,-0.152897853,-2120,16959,1.223110702,5253.90625,41088
121819,8.785784696,128,-0.211027886,-2926,128,-0.166312476,-2306,8155,0.588151883,5273.4375,41728
118344,8.535162036,128,-0.33875529,-4697,128,18.56490058,257411,4064,0.293102299,5292.96875,42368
116969,8.435994796,128,-0.387293147,-5370,128,-0.590315532,-8185,3817,0.275288257,5312.5,43008
116088,8.372455641,128,-0.391981052,-5435,128,-0.295482313,-4097,1929,0.139122622,5332.03125,43648
116045,8.369354411,128,-0.406621743,-5638,128,-0.110850943,-1537,1997,0.144026893,5351.5625,44288
115952,8.3626471,128,-0.409722973,-5681,128,-0.387725876,-5376,16591,1.196569943,5371.09375,44928
115810,8.352405829,128,-0.39940958,-5538,128,18.36144547,254590,16480,1.188564442,5390.625,45568
115774,8.34980945,128,-0.418233325,-5799,128,18.75948474,260109,2046,0.147560852,5410.15625,46208
115671,8.342380922,128,-0.404818702,-5613,128,-0.404241729,-5605,16639,1.200031781,5429.6875,46848
115780,8.35024218,128,-0.399121094,-5534,128,18.32249979,254050,16388,1.181929252,5449.21875,47488
116076,8.371590182,128,-0.38123493,-5286,128,18.75854716,260096,16750,1.208037282,5468.75,48128
115786,8.350674909,128,-0.417584231,-5790,128,-0.140781419,-1952,1859,0.134074108,5488.28125,48768
116029,8.368200465,128,-0.380874322,-5281,128,18.57442064,257543,16622,1.198805714,5507.8125,49408
115976,8.364378019,128,-0.383975552,-5324,128,18.46537274,256031,16384,1.181640766,5527.34375,50048
115948,8.362358613,128,-0.409290243,-5675,128,18.33382289,254207,16444,1.185968064,5546.875,50688
115918,8.360194964,128,-0.402871418,-5586,128,-0.036493544,-506,16615,1.198300862,5566.40625,51328
115862,8.356156153,128,-0.402871418,-5586,128,18.81393657,260864,16390,1.182073496,5585.9375,51968
116032,8.36841683,128,-0.41224723,-5716,128,18.77232239,260287,16384,1.181640766,5605.46875,52608
115799,8.351612491,128,-0.416141798,-5770,128,-0.582310031,-8074,16455,1.186761402,5625,53248
115731,8.34670822,128,-0.412463595,-5719,128,18.77823636,260369,16384,1.181640766,5644.53125,53888
116013,8.367046519,128,-0.38433616,-5329,128,-0.146623271,-2033,16701,1.204503322,5664.0625,54528
116554,8.40606432,128,-0.420757582,-5834,128,-0.05315364,-737,1919,0.138401406,5683.59375,55168
117353,8.463689502,128,-0.357002062,-4950,128,-0.063611277,-882,16953,1.222677973,5703.125,55808
116771,8.421714714,128,-0.379431889,-5261,128,-0.581660936,-8065,16387,1.181857131,5722.65625,56448
115801,8.351756734,128,-0.42421942,-5882,128,-0.054884559,-761,1537,0.110850943,5742.1875,57088
115679,8.342957895,128,-0.421262434,-5841,128,-0.332408587,-4609,16639,1.200031781,5761.71875,57728
115348,8.319085636,128,-0.445062571,-6171,128,18.38733713,254949,926,0.066784628,5781.25,58368
115441,8.325792948,128,-0.419820001,-5821,128,18.78162608,260416,16624,1.198949957,5800.78125,59008
114972,8.291967904,128,-0.416502406,-5775,128,18.31766764,253983,16444,1.185968064,5820.3125,59648
117200,8.452654893,128,-0.347698372,-4821,128,18.86709021,261601,16888,1.217990067,5839.84375,60288
127918,9.22565451,128,-0.334860722,-4643,128,18.42613857,255487,16256,1.172409197,5859.375,60928
113501,8.185876988,128,-0.472180304,-6547,128,-0.010457636,-145,95,0.006851555,5878.90625,61568
115881,8.357526464,128,-0.419964244,-5823,128,18.46320909,256001,16512,1.190872334,5898.4375,62208
116251,8.384211467,128,-0.417512109,-5789,128,-0.037863855,-525,16385,1.181712887,5917.96875,62848
116168,8.378225372,128,-0.411598135,-5707,128,-6.49E-04,-9,16895,1.218494918,5937.5,63488
116418,8.396255779,128,-0.409218122,-5674,128,18.79446373,260594,16632,1.19952693,5957.03125,64128
116576,8.407650996,128,-0.403809,-5599,128,18.83009181,261088,16416,1.183948658,5976.5625,64768
116806,8.424238971,128,-0.386716173,-5362,128,-0.518770876,-7193,16455,1.186761402,5996.09375,65408
117549,8.477825341,128,-0.359598441,-4986,128,-0.445423179,-6176,16703,1.204647565,6015.625,512
117671,8.48662418,128,-0.396813202,-5502,128,-0.027694705,-384,16423,1.184453509,6035.15625,1152
119431,8.613558246,128,-0.324835816,-4504,128,18.88778912,261888,16576,1.195488119,6054.6875,1792
121019,8.728087393,128,-0.277956757,-3854,128,-0.277091298,-3842,16415,1.183876536,6074.21875,2432
122366,8.825235227,128,-0.262162121,-3635,128,18.61113055,258052,16638,1.19995966,6093.75,3072
121425,8.757368774,128,-0.272403392,-3777,128,-0.290866529,-4033,8191,0.590748261,6113.28125,3712
118161,8.521963778,128,-0.378422186,-5247,128,18.3939002,255040,7682,0.554038352,6132.8125,4352
116795,8.423445633,128,-0.409722973,-5681,128,-0.038152342,-529,3647,0.26302758,6152.34375,4992
116067,8.370941087,128,-0.435686759,-6041,128,-0.434532813,-6025,2019,0.145613568,6171.875,5632
115980,8.364666505,128,-0.418377569,-5801,128,18.34247748,254327,16388,1.181929252,6191.40625,6272
115543,8.333149354,128,-0.461001451,-6392,128,-0.001442433,-20,883,0.063683398,6210.9375,6912
115872,8.35687737,128,-0.445278936,-6174,128,18.46082907,255968,16384,1.181640766,6230.46875,7552
115673,8.342525165,128,-0.451048666,-6254,128,-0.001153946,-16,973,0.070174345,6250,8192
115401,8.322908082,128,-0.45032745,-6244,128,18.4559248,255900,1020,0.073564061,6269.53125,8832
115788,8.350819153,128,-0.443043166,-6143,128,18.31550399,253953,16508,1.190583848,6289.0625,9472
115771,8.349593085,128,-0.452491099,-6274,128,-0.230861334,-3201,16441,1.185751699,6308.59375,10112
115521,8.331562678,128,-0.437706165,-6069,128,-0.142295974,-1973,16833,1.214023377,6328.125,10752
115646,8.340577881,128,-0.454149896,-6297,128,-0.445206814,-6173,1023,0.073780426,6347.65625,11392
115759,8.348727625,128,-0.445567423,-6178,128,-7.21E-05,-1,1967,0.141863244,6367.1875,12032
115588,8.336394827,128,-0.449389869,-6231,128,18.35185329,254457,16388,1.181929252,6386.71875,12672
115385,8.321754136,128,-0.487830697,-6764,128,-0.450904423,-6252,909,0.065558561,6406.25,13312
115495,8.329687515,128,-0.452058369,-6268,128,-0.008943082,-124,16447,1.186184428,6425.78125,13952
115499,8.329976002,128,-0.445855909,-6182,128,-0.004615784,-64,1023,0.073780426,6445.3125,14592
115324,8.317354717,128,-0.44636076,-6189,128,18.45873755,255939,16508,1.190583848,6464.84375,15232
115482,8.328749934,128,-0.460785086,-6389,128,18.44489019,255747,16398,1.182650469,6484.375,15872
115403,8.323052326,128,-0.455880815,-6321,128,-0.56723661,-7865,16449,1.186328672,6503.90625,16512
115475,8.328245083,128,-0.450543815,-6247,128,-0.445495301,-6177,16387,1.181857131,6523.4375,17152
115339,8.318436541,128,-0.445711666,-6180,128,-0.517256322,-7172,16587,1.196281457,6542.96875,17792
115832,8.353992504,128,-0.455880815,-6321,128,18.67106362,258883,16508,1.190583848,6562.5,18432
116889,8.430225066,128,-0.39897685,-5532,128,-0.39897685,-5532,16413,1.183732293,6582.03125,19072
116495,8.401809144,128,-0.409650851,-5680,128,-0.001153946,-16,2047,0.147632974,6601.5625,19712
115789,8.350891274,128,-0.410804798,-5696,128,18.8647102,261568,1996,0.143954771,6621.09375,20352
114951,8.290453349,128,-0.481844602,-6681,128,18.86968659,261637,126,0.009087325,6679.6875,22272
114959,8.291030322,128,-0.448524409,-6219,128,-0.148859042,-2064,16639,1.200031781,6699.21875,22912
115693,8.343967598,128,-0.393351363,-5454,128,18.90567528,262136,920,0.066351898,6718.75,23552
127117,9.167885085,128,-0.356569333,-4944,128,-0.279254947,-3872,8163,0.588728856,6738.28125,24192
112773,8.133372442,128,-0.503264726,-6978,128,-0.00353396,-49,16611,1.198012376,6757.8125,24832
115024,8.295718228,128,-0.458044464,-6351,128,18.87336479,261688,450,0.032454733,6777.34375,25472
115341,8.318580785,128,-0.445567423,-6178,128,18.90610801,262142,16384,1.181640766,6796.875,26112
115324,8.317354717,128,-0.433018259,-6004,128,-0.002307892,-32,16639,1.200031781,6816.40625,26752
115489,8.329254786,128,-0.470737871,-6527,128,-0.018535259,-257,16387,1.181857131,6835.9375,27392
115585,8.336178462,128,-0.442105584,-6130,128,18.90618013,262143,16480,1.188564442,6855.46875,28032
115985,8.365027114,128,-0.442033463,-6129,128,-0.583968828,-8097,16511,1.190800213,6875,28672
116351,8.39142363,128,-0.430494002,-5969,128,-0.58627672,-8129,16511,1.190800213,6894.53125,29312
116834,8.426258376,128,-0.416574528,-5776,128,-0.570409962,-7909,16703,1.204647565,6914.0625,29952
117803,8.496144235,128,-0.394649553,-5472,128,18.31831674,253992,16440,1.185679577,6933.59375,30592
119976,8.652864534,128,-0.320941248,-4450,128,18.44546717,255755,16428,1.184814118,6953.125,31232
120948,8.722966757,128,-0.296203529,-4107,128,-0.145469325,-2017,16639,1.200031781,6972.65625,31872
120873,8.717557635,128,-0.293751394,-4073,128,18.76265809,260153,16632,1.19952693,6992.1875,32512
118761,8.565236755,128,-0.367026969,-5089,128,-0.324258843,-4496,7773,0.56060142,7011.71875,33152
115906,8.359329505,128,-0.431864313,-5988,128,18.34803085,254404,2032,0.14655115,7031.25,33792
115286,8.314614095,128,-0.468718465,-6499,128,18.34889631,254416,902,0.065053709,7050.78125,34432
114831,8.281798754,128,-0.467492398,-6482,128,-1.44E-04,-2,16391,1.182145617,7070.3125,35072
114647,8.268528374,128,-0.473983344,-6572,128,-0.03721476,-516,16387,1.181857131,7089.84375,35712
114856,8.283601795,128,-0.47600275,-6600,128,-0.581660936,-8065,16495,1.189646267,7109.375,36352
114773,8.277615699,128,-0.466049965,-6462,128,-0.001153946,-16,509,0.036709909,7128.90625,36992
114549,8.261460455,128,-0.502471388,-6967,128,18.83694337,261183,0,0,7148.4375,37632
114673,8.270403537,128,-0.470377263,-6522,128,18.90618013,262143,492,0.035483841,7167.96875,38272
114587,8.264201077,128,-0.492734968,-6832,128,18.8710569,261656,16432,1.185102604,7187.5,38912
114536,8.260522873,128,-0.485450683,-6731,128,-0.027838949,-386,55,0.00396669,7207.03125,39552
114503,8.25814286,128,-0.475930628,-6599,128,18.8704078,261647,198,0.014280082,7226.5625,40192
114663,8.26968232,128,-0.459126289,-6366,128,-0.009231568,-128,255,0.018391015,7246.09375,40832
114589,8.26434532,128,-0.489417373,-6786,128,-0.002307892,-32,15,0.001081824,7265.625,41472
114302,8.243646412,128,-0.487470089,-6759,128,18.83694337,261183,136,0.009808542,7285.15625,42112
114633,8.267518671,128,-0.470521506,-6524,128,18.87156175,261663,16412,1.183660171,7304.6875,42752
114288,8.24263671,128,-0.47953671,-6649,128,-0.005697609,-79,63,0.004543663,7324.21875,43392
114376,8.248983413,128,-0.479320345,-6646,128,18.89925646,262047,0,0,7343.75,44032
114238,8.239030628,128,-0.481123386,-6671,128,18.90618013,262143,0,0,7363.28125,44672
114462,8.255185873,128,-0.464535411,-6441,128,-0.036421423,-505,263,0.018967988,7382.8125,45312
115273,8.313676514,128,-0.450183207,-6242,128,-0.003389717,-47,16849,1.215177323,7402.34375,45952
116165,8.378009007,128,-0.422055772,-5852,128,18.89702069,262016,16636,1.199815416,7421.875,46592
114482,8.256628306,128,-0.477517304,-6621,128,18.90257405,262093,8,5.77E-04,7441.40625,47232
114058,8.226048735,128,-0.470377263,-6522,128,18.90618013,262143,96,0.006923676,7460.9375,47872
113868,8.212345625,128,-0.493384062,-6841,128,18.84884344,261348,0,0,7480.46875,48512
114156,8.233116655,128,-0.484945832,-6724,128,-0.152248758,-2111,239,0.017237069,7500,49152
113856,8.211480166,128,-0.466194208,-6464,128,18.87300418,261683,320,0.023078921,7519.53125,49792
113071,8.154864687,128,-0.458260829,-6354,128,18.85266588,261401,510,0.036782031,7539.0625,50432
122639,8.844924431,128,-0.351665062,-4876,128,-2.88E-04,-4,8131,0.586420964,7558.59375,51072
114040,8.224750546,128,-0.566803881,-7859,128,-0.130323783,-1807,8065,0.581660936,7578.125,51712
112768,8.133011834,128,-0.512496294,-7106,128,-8.65E-04,-12,457,0.032959584,7597.65625,52352
114479,8.256411941,128,-0.485883413,-6737,128,18.84134279,261244,0,0,7617.1875,52992
114780,8.278120551,128,-0.462588127,-6414,128,-0.001153946,-16,16441,1.185751699,7636.71875,53632
114969,8.291751539,128,-0.469583925,-6511,128,18.90618013,262143,16384,1.181640766,7656.25,54272
114926,8.288650309,128,-0.473550615,-6566,128,-0.554975933,-7695,16387,1.181857131,7675.78125,54912
115053,8.297809756,128,-0.474416074,-6578,128,18.35336785,254478,16892,1.218278553,7695.3125,55552
115551,8.333726327,128,-0.455303842,-6313,128,-0.581733058,-8066,16385,1.181712887,7714.84375,56192
115989,8.3653156,128,-0.455736572,-6319,128,18.37897103,254833,16784,1.210489417,7734.375,56832
117283,8.458640988,128,-0.400202918,-5549,128,-0.577117273,-8002,16399,1.18272259,7753.90625,57472
118606,8.554057903,128,-0.365873023,-5073,128,-0.519275727,-7200,16449,1.186328672,7773.4375,58112
120526,8.69253143,128,-0.309690274,-4294,128,-0.312935747,-4339,16883,1.217629459,7792.96875,58752
120671,8.702989066,128,-0.296996867,-4118,128,-0.298655665,-4141,16671,1.202339673,7812.5,59392
117718,8.490013896,128,-0.406116892,-5631,128,-0.478094277,-6629,4093,0.295193827,7832.03125,60032
115506,8.330480853,128,-0.481844602,-6681,128,18.31593672,253959,1792,0.129241959,7851.5625,60672
115099,8.30112735,128,-0.455520207,-6316,128,-0.003461838,-48,475,0.034257774,7871.09375,61312
114459,8.254969508,128,-0.48487371,-6723,128,18.83239971,261120,0,0,7890.625,61952
114273,8.241554885,128,-0.507159294,-7032,128,18.31824461,253991,64,0.004615784,7910.15625,62592
114452,8.254464657,128,-0.497494995,-6898,128,-0.017381313,-241,79,0.005697609,7929.6875,63232
114141,8.23203483,128,-0.520069065,-7211,128,-5.77E-04,-8,15,0.001081824,7949.21875,63872
114404,8.251002818,128,-0.501966536,-6960,128,18.90214132,262087,256,0.018463137,7968.75,64512
114261,8.240689426,128,-0.523747268,-7262,128,18.85540651,261439,0,0,7988.28125,65152
114397,8.250497967,128,-0.50211078,-6962,128,-0.073347696,-1017,127,0.009159447,8007.8125,256
114379,8.249199778,128,-0.49814409,-6907,128,18.86860476,261622,160,0.011539461,8027.34375,896
114451,8.254392535,128,-0.499370158,-6924,128,-0.018751623,-260,259,0.018679502,8046.875,1536
114319,8.24487248,128,-0.523170295,-7254,128,-7.21E-05,-1,31,0.00223577,8066.40625,2176
114515,8.259008319,128,-0.49107617,-6809,128,18.87624966,261728,248,0.017886164,8085.9375,2816
114546,8.26124409,128,-0.497927725,-6904,128,18.8647102,261568,482,0.034762625,8105.46875,3456
114720,8.273793253,128,-0.481411872,-6675,128,18.83290456,261127,504,0.036349301,8125,4096
114516,8.259080441,128,-0.520862403,-7222,128,18.83124576,261104,256,0.018463137,8144.53125,4736
114491,8.2572774,128,-0.503192604,-6977,128,-0.11777462,-1633,15,0.001081824,8164.0625,5376
114601,8.265210779,128,-0.504923523,-7001,128,-0.006707311,-93,385,0.027766827,8183.59375,6016
115427,8.324783245,128,-0.50831324,-7048,128,18.86983083,261639,16824,1.213374283,8203.125,6656
116027,8.368056222,128,-0.469439682,-6509,128,18.86932598,261632,16432,1.185102604,8222.65625,7296
115069,8.298963702,128,-0.482782183,-6694,128,-2.88E-04,-4,16639,1.200031781,8242.1875,7936
114581,8.263768347,128,-0.527786079,-7318,128,-9.38E-04,-13,16383,1.181568644,8261.71875,8576
114118,8.230376033,128,-0.534493391,-7411,128,-0.006707311,-93,97,0.006995798,8281.25,9216
114191,8.235640912,128,-0.527930323,-7320,128,-0.147488731,-2045,3,2.16E-04,8300.78125,9856
114278,8.241915493,128,-0.559808083,-7762,128,-0.001875162,-26,103,0.007428528,8320.3125,10496
113170,8.162004729,128,-0.52028543,-7214,128,18.9004104,262063,356,0.0256753,8339.84375,11136
120551,8.694334471,128,-0.378422186,-5247,128,-0.519203606,-7199,18151,1.309079684,8359.375,11776
116502,8.402313996,128,-0.628972725,-8721,128,18.88317333,261824,15004,1.082112918,8378.90625,12416
113134,8.15940835,128,-0.527641836,-7316,128,18.31514338,253948,1008,0.072698602,8398.4375,13056
114938,8.289515768,128,-0.534565512,-7412,128,-0.562837191,-7804,16511,1.190800213,8417.96875,13696
115080,8.29975704,128,-0.520069065,-7211,128,-0.590027045,-8181,16833,1.214023377,8437.5,14336
115346,8.318941393,128,-0.508241118,-7047,128,18.31997553,254015,16402,1.182938955,8457.03125,14976
115398,8.322691717,128,-0.511125983,-7087,128,18.32350949,254064,16576,1.195488119,8476.5625,15616
115979,8.364594384,128,-0.504274428,-6992,128,-0.019617083,-272,16783,1.210417296,8496.09375,16256
115998,8.365964695,128,-0.530238215,-7352,128,18.83348153,261135,16402,1.182938955,8515.625,16896
116856,8.427845052,128,-0.465472992,-6454,128,18.31557611,253954,16446,1.186112307,8535.15625,17536
117959,8.507395209,128,-0.455592329,-6317,128,-0.554254717,-7685,16771,1.209551836,8554.6875,18176
119129,8.591777514,128,-0.419820001,-5821,128,18.31564824,253955,16992,1.225490716,8574.21875,18816
120858,8.716475811,128,-0.370777294,-5141,128,-0.57697303,-8000,17153,1.237102298,8593.75,19456
121581,8.768619748,128,-0.368902131,-5115,128,-0.331471006,-4596,16449,1.186328672,8613.28125,20096
120011,8.655388791,128,-0.405035067,-5616,128,-0.406189013,-5632,8163,0.588728856,8632.8125,20736
116945,8.434263877,128,-0.497134387,-6893,128,-0.590820383,-8192,3859,0.278317365,8652.34375,21376
115831,8.353920383,128,-0.530598823,-7357,128,-0.521367254,-7229,16439,1.185607455,8671.875,22016
115186,8.307401932,128,-0.542571013,-7523,128,-0.090584766,-1256,16431,1.185030482,8691.40625,22656
115167,8.306031621,128,-0.541344946,-7506,128,18.84213613,261255,16384,1.181640766,8710.9375,23296
115098,8.301055229,128,-0.550432271,-7632,128,-0.140276568,-1945,16483,1.188780807,8730.46875,23936
114860,8.283890281,128,-0.553100771,-7669,128,-0.535430972,-7424,16797,1.211426999,8750,24576
115005,8.294347917,128,-0.554254717,-7685,128,18.79540131,260607,16700,1.204431201,8769.53125,25216
114895,8.286414538,128,-0.556562609,-7717,128,-0.036926274,-512,16649,1.200752997,8789.0625,25856
115022,8.295573985,128,-0.562692948,-7802,128,18.79316554,260576,16832,1.213951256,8808.59375,26496
114814,8.280572686,128,-0.580434868,-8048,128,-0.112004889,-1553,509,0.036709909,8828.125,27136
114847,8.2829527,128,-0.567308732,-7866,128,-0.138617771,-1922,16391,1.182145617,8847.65625,27776
115278,8.314037122,128,-0.546104973,-7572,128,-0.133352892,-1849,16409,1.183443807,8867.1875,28416
114867,8.284395133,128,-0.584617923,-8106,128,18.85050223,261371,496,0.035772328,8886.71875,29056
115086,8.300189769,128,-0.562837191,-7804,128,18.77874121,260376,16892,1.218278553,8906.25,29696
115105,8.30156008,128,-0.57430453,-7963,128,18.32242767,254049,16496,1.189718388,8925.78125,30336
114922,8.288361822,128,-0.569760867,-7900,128,18.31543187,253952,16632,1.19952693,8945.3125,30976
115113,8.302137053,128,-0.561683245,-7788,128,-0.017669799,-245,16895,1.218494918,8964.84375,31616
114768,8.277255091,128,-0.596229505,-8267,128,18.31521551,253949,16472,1.187987469,8984.375,32256
114974,8.292112147,128,-0.573943922,-7958,128,-0.145469325,-2017,16387,1.181857131,9003.90625,32896
114949,8.290309106,128,-0.583752463,-8094,128,18.75854716,260096,16388,1.181929252,9023.4375,33536
114849,8.283096943,128,-0.594714951,-8246,128,18.3131961,253921,16512,1.190872334,9042.96875,34176
115153,8.305021918,128,-0.569760867,-7900,128,-0.147272366,-2042,16767,1.20926335,9062.5,34816
115417,8.324062028,128,-0.590748261,-8191,128,-0.147632974,-2047,16605,1.197579646,9082.03125,35456
116649,8.412915875,128,-0.528579417,-7329,128,-7.21E-05,-1,16481,1.188636564,9101.5625,36096
116129,8.375412628,128,-0.551514095,-7647,128,18.82324026,260993,16768,1.209335471,9121.09375,36736
114994,8.293554579,128,-0.591180991,-8197,128,18.76078293,260127,452,0.032598976,9140.625,37376
114630,8.267302307,128,-0.6022156,-8350,128,18.89492916,261987,192,0.013847353,9160.15625,38016
114521,8.259441049,128,-0.606398655,-8408,128,18.3105276,253884,60,0.004327298,9179.6875,38656
114550,8.261532576,128,-0.61281748,-8497,128,-0.592695545,-8218,63,0.004543663,9199.21875,39296
113754,8.20412376,128,-0.59997983,-8319,128,-0.591108869,-8196,193,0.013919474,9218.75,39936
117444,8.47025257,128,-0.477156696,-6616,128,18.31745128,253980,0,0,9238.28125,40576
127055,9.163413544,128,-0.512207808,-7102,128,-0.586204599,-8128,14351,1.035017495,9257.8125,41216
113089,8.156162877,128,-0.63452609,-8798,128,-0.662942012,-9192,255,0.018391015,9277.34375,41856
115281,8.314253487,128,-0.611014439,-8472,128,18.29682449,253694,16384,1.181640766,9296.875,42496
115587,8.336322705,128,-0.607191993,-8419,128,-0.625510886,-8673,16391,1.182145617,9316.40625,43136
115648,8.340722125,128,-0.59731133,-8282,128,18.90416073,262115,16880,1.217413094,9335.9375,43776
115829,8.353776139,128,-0.590604018,-8189,128,-0.590315532,-8185,16655,1.201185727,9355.46875,44416
115839,8.354497356,128,-0.586637328,-8134,128,18.31535975,253951,16384,1.181640766,9375,45056
116212,8.381398723,128,-0.588224004,-8156,128,18.76128778,260134,16508,1.190583848,9394.53125,45696
116779,8.422291687,128,-0.568967529,-7889,128,-0.047311788,-656,16783,1.210417296,9414.0625,46336
117468,8.471983489,128,-0.531824891,-7374,128,18.31766764,253983,16974,1.224192527,9433.59375,46976
119089,8.588892649,128,-0.492879211,-6834,128,-0.526776377,-7304,16503,1.19022324,9453.125,47616
120548,8.694118106,128,-0.4348213,-6029,128,18.31680218,253971,17406,1.25534907,9472.65625,48256
121726,8.779077384,128,-0.403664756,-5597,128,18.35206966,254460,17088,1.232414393,9492.1875,48896
120841,8.715249743,128,-0.458982046,-6364,128,-0.57697303,-8000,16527,1.191954159,9511.71875,49536
118713,8.561774917,128,-0.508168996,-7046,128,-0.589089464,-8168,16637,1.199887538,9531.25,50176
116269,8.385509656,128,-0.581300328,-8060,128,18.33367864,254205,1944,0.140204446,9550.78125,50816
115543,8.333149354,128,-0.606831385,-8414,128,-0.006923676,-96,16391,1.182145617,9570.3125,51456
115398,8.322691717,128,-0.592407059,-8214,128,-0.619092061,-8584,16413,1.183732293,9589.84375,52096
115233,8.310791649,128,-0.625006035,-8666,128,18.87386964,261695,16416,1.183948658,9609.375,52736
115044,8.297160661,128,-0.625871495,-8678,128,-0.59997983,-8319,16507,1.190511726,9628.90625,53376
115308,8.316200771,128,-0.615990831,-8541,128,18.31507126,253947,16492,1.189429902,9648.4375,54016
115159,8.305454648,128,-0.608057452,-8431,128,18.30663303,253830,16424,1.184525631,9667.96875,54656
115186,8.307401932,128,-0.617793872,-8566,128,18.3062003,253824,16396,1.182506225,9687.5,55296
115129,8.303290999,128,-0.61945267,-8589,128,-0.60041256,-8325,16633,1.199599051,9707.03125,55936
115282,8.314325609,128,-0.622698143,-8634,128,-0.618082359,-8570,16447,1.186184428,9726.5625,56576
115288,8.314758338,128,-0.620895102,-8609,128,18.29805056,253711,16408,1.183371685,9746.09375,57216
115444,8.326009312,128,-0.617433264,-8561,128,-0.591469478,-8201,1023,0.073780426,9765.625,57856
115308,8.316200771,128,-0.623347238,-8643,128,-0.623419359,-8644,16399,1.18272259,9785.15625,58496
115358,8.319806852,128,-0.618082359,-8570,128,-0.590964626,-8194,16639,1.200031781,9804.6875,59136
115434,8.325288096,128,-0.604090763,-8376,128,-0.594859194,-8248,16443,1.185895942,9824.21875,59776
115099,8.30112735,128,-0.623779967,-8649,128,-0.598898005,-8304,16513,1.190944456,9843.75,60416
115326,8.31749896,128,-0.60661502,-8411,128,-0.018391015,-255,16463,1.187338375,9863.28125,61056
115333,8.318003812,128,-0.598393154,-8297,128,-0.598898005,-8304,16513,1.190944456,9882.8125,61696
115229,8.310503162,128,-0.619164183,-8585,128,18.86752294,261607,16400,1.182794712,9902.34375,62336
115526,8.331923286,128,-0.613755061,-8510,128,18.3148549,253944,16450,1.186400793,9921.875,62976
116503,8.402386117,128,-0.584906409,-8110,128,18.31074396,253887,16654,1.201113606,9941.40625,63616
116663,8.413925578,128,-0.557283826,-7727,128,-0.558437772,-7743,16895,1.218494918,9960.9375,64256
115280,8.314181365,128,-0.619236305,-8586,128,18.31514338,253948,16384,1.181640766,9980.46875,64896
114849,8.283096943,128,-0.641810374,-8899,128,-0.591180991,-8197,16449,1.186328672,10000,0
114869,8.284539376,128,-0.641666131,-8897,128,18.30843607,253855,16528,1.19202628,10019.53125,640
114969,8.291751539,128,-0.630703644,-8745,128,-0.600051951,-8320,16399,1.18272259,10039.0625,1280
115178,8.306824959,128,-0.611014439,-8472,128,-0.018751623,-260,16895,1.218494918,10058.59375,1920
114984,8.292833363,128,-0.5712033,-7920,128,-0.620750859,-8607,79,0.005697609,10078.125,2560
126776,9.14329161,128,-0.489633738,-6789,128,-0.512712659,-7109,16143,1.164259453,10097.65625,3200
112721,8.129622117,128,-0.709748949,-9841,128,18.30663303,253830,4034,0.29093865,10117.1875,3840
114456,8.254753143,128,-0.640223699,-8877,128,18.24792603,253016,24,0.001730919,10136.71875,4480
115785,8.350602788,128,-0.604379249,-8380,128,18.90394436,262112,16448,1.18625655,10156.25,5120
115604,8.337548773,128,-0.613466574,-8506,128,18.31478278,253943,16480,1.188564442,10175.78125,5760
115673,8.342525165,128,-0.610581709,-8466,128,-0.609355642,-8449,16639,1.200031781,10195.3125,6400
116092,8.372744128,128,-0.595941019,-8263,128,-0.590892505,-8193,16387,1.181857131,10214.84375,7040
116188,8.379667804,128,-0.597744059,-8288,128,18.3062003,253824,16892,1.218278553,10234.375,7680
116618,8.410680105,128,-0.598898005,-8304,128,-0.604956222,-8388,16497,1.18979051,10253.90625,8320
116878,8.429431728,128,-0.576684544,-7996,128,18.32264403,254052,16384,1.181640766,10273.4375,8960
118641,8.55658216,128,-0.527136985,-7309,128,-0.10183574,-1412,16387,1.181857131,10292.96875,9600
119980,8.653153021,128,-0.488119184,-6768,128,18.46198302,255984,16636,1.199815416,10312.5,10240
121027,8.728664366,128,-0.45032745,-6244,128,-0.525117579,-7281,16507,1.190511726,10332.03125,10880
121336,8.750949949,128,-0.433667354,-6013,128,18.38019709,254850,16384,1.181640766,10351.5625,11520
119164,8.594301771,128,-0.528074566,-7322,128,18.33432774,254214,7676,0.553605622,10371.09375,12160
116320,8.389187859,128,-0.613538696,-8507,128,-0.03721476,-516,3535,0.254949958,10390.625,12800
115462,8.327307502,128,-0.634453968,-8797,128,-0.648301321,-8989,899,0.064837344,10410.15625,13440
115098,8.301055229,128,-0.656595308,-9104,128,18.2785056,253440,830,0.059860952,10429.6875,14080
114889,8.285981808,128,-0.649887997,-9011,128,-0.646426159,-8963,193,0.013919474,10449.21875,14720
115073,8.299252188,128,-0.649238902,-9002,128,18.31449429,253939,16384,1.181640766,10468.75,15360
114786,8.278553281,128,-0.649311024,-9003,128,-0.655513484,-9089,479,0.03454626,10488.28125,16000
114861,8.283962403,128,-0.625150278,-8668,128,18.28283289,253500,16396,1.182506225,10507.8125,16640
114749,8.27588478,128,-0.643757658,-8926,128,18.31435005,253937,240,0.017309191,10527.34375,17280
114791,8.278913889,128,-0.649094659,-9000,128,18.28312138,253504,16384,1.181640766,10546.875,17920
114938,8.289515768,128,-0.650753456,-9023,128,-0.626664832,-8689,129,0.00930369,10566.40625,18560
115041,8.296944296,128,-0.642170983,-8904,128,18.85086284,261376,480,0.034618382,10585.9375,19200
114839,8.282375727,128,-0.65313347,-9056,128,-0.65313347,-9056,223,0.016083123,10605.46875,19840
114894,8.286342417,128,-0.640584307,-8882,128,-0.657244403,-9113,16455,1.186761402,10625,20480
114696,8.272062334,128,-0.663807471,-9204,128,18.83239971,261120,16384,1.181640766,10644.53125,21120
114750,8.275956902,128,-0.64116128,-8890,128,-0.597527694,-8285,16399,1.18272259,10664.0625,21760
114642,8.268167766,128,-0.653349835,-9059,128,18.28975657,253596,64,0.004615784,10683.59375,22400
115349,8.319157758,128,-0.653349835,-9059,128,-0.594354343,-8241,16505,1.190367483,10703.125,23040
116276,8.386014508,128,-0.619669034,-8592,128,18.30562333,253816,16390,1.182073496,10722.65625,23680
115497,8.329831759,128,-0.613899304,-8512,128,-0.604667736,-8384,2047,0.147632974,10742.1875,24320
114290,8.242780953,128,-0.692728244,-9605,128,-0.106523646,-1477,15987,1.153008479,10761.71875,24960
114428,8.252733738,128,-0.653638322,-9063,128,-0.627674535,-8703,127,0.009159447,10781.25,25600
114080,8.227635411,128,-0.680034838,-9429,128,-0.623202994,-8641,16287,1.174644968,10800.78125,26240
114176,8.234559087,128,-0.674625716,-9354,128,18.2415072,252927,16368,1.18048682,10820.3125,26880
113693,8.19972434,128,-0.663374741,-9198,128,18.23696354,252864,412,0.029714111,10839.84375,27520
115121,8.302714026,128,-0.600124073,-8321,128,18.90618013,262143,16768,1.209335471,10859.375,28160
121546,8.766095491,128,-0.76823959,-10652,128,18.87379752,261694,16284,1.174428603,10878.90625,28800
111946,8.073727855,128,-0.711840476,-9870,128,18.17227044,251967,480,0.034618382,10898.4375,29440
114208,8.236866979,128,-0.675130567,-9361,128,18.82309602,260991,56,0.004038811,10917.96875,30080
114737,8.275019321,128,-0.660057147,-9152,128,18.83239971,261120,16432,1.185102604,10937.5,30720
114791,8.278913889,128,-0.664023836,-9207,128,18.29754571,253704,16384,1.181640766,10957.03125,31360
115096,8.300910986,128,-0.662797768,-9190,128,18.29740146,253702,16416,1.183948658,10976.5625,32000
115124,8.302930391,128,-0.655657727,-9091,128,18.28290502,253501,16884,1.21770158,10996.09375,32640
115503,8.330264488,128,-0.648878294,-8997,128,-0.650609213,-9021,16639,1.200031781,11015.625,33280
115686,8.343462747,128,-0.661499579,-9172,128,18.86932598,261632,16416,1.183948658,11035.15625,33920
117004,8.438519053,128,-0.595724654,-8260,128,-0.604811979,-8386,16575,1.195415997,11054.6875,34560
118222,8.526363197,128,-0.573511192,-7952,128,18.762009,260144,16834,1.214095499,11074.21875,35200
119372,8.60930307,128,-0.553821987,-7679,128,18.86932598,261632,16398,1.182650469,11093.75,35840
120525,8.692459308,128,-0.517689051,-7178,128,-0.553966231,-7681,16495,1.189646267,11113.28125,36480
120100,8.661807616,128,-0.517112078,-7170,128,18.32459132,254079,16388,1.181929252,11132.8125,37120
116921,8.432532958,128,-0.618875697,-8581,128,-0.572501489,-7938,3647,0.26302758,11152.34375,37760
115310,8.316345014,128,-0.66683658,-9246,128,-0.66683658,-9246,999,0.072049507,11171.875,38400
114387,8.249776751,128,-0.690853082,-9579,128,-0.594931316,-8249,16385,1.181712887,11191.40625,39040
114594,8.264705928,128,-0.698209488,-9681,128,18.29747359,253703,48,0.003461838,11210.9375,39680
114510,8.258647711,128,-0.684722744,-9494,128,18.31370095,253928,102,0.007356406,11230.46875,40320
114291,8.242853074,128,-0.702320421,-9738,128,-0.730015126,-10122,25,0.001803041,11250,40960
114359,8.247757345,128,-0.700805867,-9717,128,18.27857772,253441,176,0.012693407,11269.53125,41600
114081,8.227707532,128,-0.717465963,-9948,128,18.17234256,251968,116,0.008366109,11289.0625,42240
114098,8.2289336,128,-0.709748949,-9841,128,-0.664168079,-9209,243,0.017525556,11308.59375,42880
114411,8.25150767,128,-0.694242799,-9626,128,18.16823163,251911,240,0.017309191,11328.125,43520
114164,8.233693628,128,-0.711768354,-9869,128,18.2681922,253297,124,0.008943082,11347.65625,44160
114282,8.24220398,128,-0.708955611,-9830,128,-0.887312399,-12303,119,0.008582474,11367.1875,44800
114353,8.247324615,128,-0.693954312,-9622,128,-0.729870883,-10120,1,7.21E-05,11386.71875,45440
114241,8.239246993,128,-0.694242799,-9626,128,-0.61945267,-8589,1,7.21E-05,11406.25,46080
114231,8.238525777,128,-0.700733745,-9716,128,-0.147200244,-2041,55,0.00396669,11425.78125,46720
114451,8.254392535,128,-0.704772556,-9772,128,18.76316294,260160,280,0.020194056,11445.3125,47360
114377,8.249055534,128,-0.695036137,-9637,128,18.22304406,252671,112,0.008077622,11464.84375,48000
114357,8.247613102,128,-0.707657422,-9812,128,-0.111067308,-1540,177,0.012765528,11484.375,48640
115300,8.315623798,128,-0.684506379,-9491,128,-0.634598212,-8799,16783,1.210417296,11503.90625,49280
115791,8.351035518,128,-0.648517686,-8992,128,-0.64736374,-8976,16391,1.182145617,11523.4375,49920
115000,8.293987309,128,-0.681044541,-9443,128,18.23746839,252871,16408,1.183371685,11542.96875,50560
113917,8.215879585,128,-0.736145465,-10207,128,18.1677989,251905,124,0.008943082,11562.5,51200
113868,8.212345625,128,-0.711047138,-9859,128,18.2425169,252941,236,0.017020704,11582.03125,51840
113773,8.205494071,128,-0.724894491,-10051,128,18.09163846,250849,30,0.002163649,11601.5625,52480
113816,8.208595301,128,-0.738525479,-10240,128,18.75854716,260096,8,5.77E-04,11621.09375,53120
112709,8.128756658,128,-0.699147069,-9694,128,18.16772678,251904,224,0.016155245,11640.625,53760
122499,8.834827403,128,-0.531175796,-7365,128,-0.004976392,-69,18163,1.309945143,11660.15625,54400
121124,8.735660164,128,-0.792760944,-10992,128,18.09387423,250880,6436,0.464174803,11679.6875,55040
112930,8.144695538,128,-0.741338222,-10279,128,-0.224442509,-3112,59,0.004255176,11699.21875,55680
114199,8.236217885,128,-0.744439452,-10322,128,-0.258628161,-3586,23,0.001658797,11718.75,56320
114566,8.262686522,128,-0.726553288,-10074,128,18.31427792,253936,134,0.009664298,11738.28125,56960
114657,8.269249591,128,-0.732467262,-10156,128,18.27965954,253456,240,0.017309191,11757.8125,57600
115002,8.294131552,128,-0.720350828,-9988,128,18.20458093,252415,16384,1.181640766,11777.34375,58240
115152,8.304949797,128,-0.695973718,-9650,128,18.17688622,252031,16832,1.213951256,11796.875,58880
115764,8.349088234,128,-0.668062647,-9263,128,18.76777873,260224,16852,1.215393688,11816.40625,59520
116139,8.376133844,128,-0.6845785,-9492,128,18.31413368,253934,16616,1.198372984,11835.9375,60160
116640,8.41226678,128,-0.655297119,-9086,128,18.29581479,253680,16888,1.217990067,11855.46875,60800
118768,8.565741606,128,-0.597094965,-8279,128,18.89788614,262028,17400,1.254916341,11875,61440
119866,8.644931155,128,-0.556057758,-7710,128,-0.001009703,-14,16387,1.181857131,11894.53125,62080
120713,8.706018174,128,-0.545888608,-7569,128,-0.518193903,-7185,16879,1.217340972,11914.0625,62720
118714,8.561847038,128,-0.610942317,-8471,128,18.3148549,253944,4090,0.294977462,11933.59375,63360
115808,8.352261585,128,-0.685083352,-9499,128,18.8340585,261143,1920,0.138473527,11953.125,64000
114726,8.274225983,128,-0.72352418,-10032,128,18.18503597,252144,16438,1.185535334,11972.65625,64640
114443,8.253815562,128,-0.704700435,-9771,128,-0.890846359,-12352,11,7.93E-04,11992.1875,65280
114379,8.249199778,128,-0.738092749,-10234,128,18.75905201,260103,72,0.005192757,12011.71875,384
114253,8.240112453,128,-0.722586599,-10019,128,18.18265595,252111,12,8.65E-04,12031.25,1024
114124,8.230808762,128,-0.738453357,-10239,128,18.1677989,251905,252,0.01817465,12050.78125,1664
113974,8.219990518,128,-0.741915195,-10287,128,-1.034007792,-14337,7,5.05E-04,12070.3125,2304
114094,8.228645114,128,-0.726553288,-10074,128,-0.592262816,-8212,45,0.003245473,12089.84375,2944
113990,8.221144464,128,-0.743141263,-10304,128,18.08925844,250816,16254,1.172264954,12109.375,3584
114123,8.230736641,128,-0.714581098,-9908,128,-0.747540682,-10365,255,0.018391015,12128.90625,4224
114037,8.224534181,128,-0.759368629,-10529,128,-0.81475804,-11297,21,0.001514554,12148.4375,4864
114226,8.238165169,128,-0.735784857,-10202,128,-0.664456566,-9213,3,2.16E-04,12167.96875,5504
114178,8.23470333,128,-0.719629612,-9978,128,18.00177491,249603,0,0,12187.5,6144
114098,8.2289336,128,-0.747252196,-10361,128,18.31132094,253895,0,0,12207.03125,6784
114160,8.233405141,128,-0.732539383,-10157,128,18.28023652,253464,240,0.017309191,12226.5625,7424
113968,8.219557788,128,-0.719413247,-9975,128,18.24165144,252929,16144,1.164331575,12246.09375,8064
114093,8.228572992,128,-0.727779356,-10091,128,17.87173961,247800,16382,1.181496523,12265.625,8704
113830,8.209605004,128,-0.751795858,-10424,128,-0.739102452,-10248,15911,1.147527235,12285.15625,9344
114108,8.229654816,128,-0.729582397,-10116,128,-0.604811979,-8386,191,0.013775231,12304.6875,9984
113943,8.217754748,128,-0.757060737,-10497,128,-0.590892505,-8193,1,7.21E-05,12324.21875,10624
114450,8.254320413,128,-0.745881885,-10342,128,18.31528763,253950,16256,1.172409197,12343.75,11264
115414,8.323845664,128,-0.702608908,-9742,128,18.20364335,252402,16582,1.195920848,12363.28125,11904
115428,8.324855366,128,-0.697488272,-9671,128,18.20559063,252429,1012,0.072987088,12382.8125,12544
114090,8.228356627,128,-0.740040033,-10261,128,18.16650071,251887,16382,1.181496523,12402.34375,13184
113769,8.205205584,128,-0.777254793,-10777,128,-0.278750095,-3865,15873,1.144786614,12421.875,13824
113609,8.193666124,128,-0.767302009,-10639,128,-0.662942012,-9192,16383,1.181568644,12441.40625,14464
113505,8.186165474,128,-0.774946901,-10745,128,-1.181640766,-16384,1,7.21E-05,12460.9375,15104
113761,8.204628611,128,-0.760450454,-10544,128,18.31081609,253888,60,0.004327298,12480.46875,15744
114404,8.251002818,128,-0.67260631,-9326,128,18.2345114,252830,1020,0.073564061,12500,16384
126146,9.097854984,128,-0.623996332,-8652,128,-0.036637787,-508,24643,1.777293298,12519.53125,17024
112021,8.079136977,128,-0.830192069,-11511,128,-0.829759339,-11505,255,0.018391015,12539.0625,17664
113858,8.211624409,128,-0.771124455,-10692,128,-0.881686912,-12225,67,0.004832149,12558.59375,18304
114234,8.238742142,128,-0.770258995,-10680,128,18.61891968,258160,510,0.036782031,12578.125,18944
114458,8.254897386,128,-0.734126059,-10179,128,18.17227044,251967,408,0.029425625,12597.65625,19584
114474,8.256051332,128,-0.757565589,-10504,128,-0.739102452,-10248,511,0.036854152,12617.1875,20224
114671,8.270259293,128,-0.746242493,-10347,128,-0.742636412,-10297,255,0.018391015,12636.71875,20864
114784,8.278409037,128,-0.73989579,-10259,128,-0.738813965,-10244,16511,1.190800213,12656.25,21504
115251,8.312089838,128,-0.74169883,-10284,128,-0.741987317,-10288,16447,1.186184428,12675.78125,22144
115840,8.354569477,128,-0.711696233,-9868,128,18.89687644,262014,16384,1.181640766,12695.3125,22784
117439,8.469891962,128,-0.653205592,-9057,128,-0.654359538,-9073,16927,1.22080281,12714.84375,23424
118649,8.557159133,128,-0.626159981,-8682,128,-0.598898005,-8304,17401,1.254988462,12734.375,24064
119735,8.635483221,128,-0.605172587,-8391,128,-0.009159447,-127,17335,1.250228435,12753.90625,24704
119801,8.640243249,128,-0.593416762,-8228,128,18.31535975,253951,16384,1.181640766,12773.4375,25344
117607,8.482008395,128,-0.649238902,-9002,128,-0.027838949,-386,3943,0.284375582,12792.96875,25984
114823,8.281221781,128,-0.737587897,-10227,128,-0.590892505,-8193,195,0.014063718,12812.5,26624
114206,8.236722736,128,-0.762974711,-10579,128,18.7250106,259631,30,0.002163649,12832.03125,27264
114081,8.227707532,128,-0.738309114,-10237,128,-0.738309114,-10237,49,0.00353396,12851.5625,27904
113600,8.193017029,128,-0.777831766,-10785,128,18.16765465,251903,0,0,12871.09375,28544
113633,8.195397043,128,-0.769609901,-10671,128,18.15387942,251712,124,0.008943082,12890.625,29184
113645,8.196262502,128,-0.77797601,-10787,128,-0.871301397,-12081,255,0.018391015,12910.15625,29824
113437,8.181261203,128,-0.791174268,-10970,128,-0.881759033,-12226,29,0.002091527,12929.6875,30464
113498,8.185660623,128,-0.769970509,-10676,128,17.77069721,246399,120,0.008654595,12949.21875,31104
113399,8.178520582,128,-0.791318511,-10972,128,-0.295410191,-4096,255,0.018391015,12968.75,31744
113522,8.187391542,128,-0.779202077,-10804,128,18.27489952,253390,498,0.035916571,12988.28125,32384
113507,8.186309717,128,-0.764489265,-10600,128,-1.043167239,-14464,99,0.007140041,13007.8125,33024
113584,8.191863083,128,-0.771485063,-10697,128,18.61538572,258111,184,0.01327038,13027.34375,33664
113430,8.180756352,128,-0.769898387,-10675,128,18.27886621,253445,6,4.33E-04,13046.875,34304
113278,8.169793864,128,-0.792905187,-10994,128,17.74307462,246016,62,0.004471541,13066.40625,34944
113311,8.172173878,128,-0.779202077,-10804,128,-0.594570708,-8244,143,0.010313393,13085.9375,35584
113253,8.167990824,128,-0.78107724,-10830,128,-0.591974329,-8208,7,5.05E-04,13105.46875,36224
113147,8.160345931,128,-0.783529375,-10864,128,-0.739679425,-10256,255,0.018391015,13125,36864
113183,8.16294231,128,-0.779274199,-10805,128,-0.804877377,-11160,31,0.00223577,13144.53125,37504
113903,8.214869882,128,-0.771124455,-10692,128,-0.626664832,-8689,239,0.017237069,13164.0625,38144
114621,8.266653212,128,-0.751795858,-10424,128,-0.74256429,-10296,415,0.029930476,13183.59375,38784
113867,8.212273504,128,-0.753743142,-10451,128,-0.272403392,-3777,11,7.93E-04,13203.125,39424
113199,8.164096256,128,-0.783168767,-10859,128,-0.635824279,-8816,15,0.001081824,13222.65625,40064
112676,8.126376644,128,-0.823845366,-11423,128,18.07771898,250656,0,0,13242.1875,40704
112925,8.14433493,128,-0.808194972,-11206,128,17.83986185,247358,28,0.002019406,13261.71875,41344
113026,8.151619214,128,-0.774297807,-10736,128,17.83986185,247358,28,0.002019406,13281.25,41984
117327,8.461814339,128,-0.941980593,-13061,128,18.03819633,250108,14578,1.051389104,13339.84375,43904
110549,7.97297394,128,-0.815118648,-11302,128,18.02002168,249856,60,0.004327298,13359.375,44544
113088,8.156090755,128,-0.811296202,-11249,128,18.1671498,251896,0,0,13378.90625,45184
113269,8.16914477,128,-0.776533577,-10767,128,-0.781221483,-10832,55,0.00396669,13398.4375,45824
113452,8.182343028,128,-0.782663915,-10852,128,-0.759296508,-10528,31,0.00223577,13417.96875,46464
113581,8.191646718,128,-0.773865077,-10730,128,18.16765465,251903,0,0,13437.5,47104
113523,8.187463664,128,-0.795573687,-11031,128,-0.780139658,-10817,7,5.05E-04,13457.03125,47744
114048,8.225327519,128,-0.769970509,-10676,128,-0.627674535,-8703,255,0.018391015,13476.5625,48384
114361,8.247901588,128,-0.746170371,-10346,128,-0.739967911,-10260,445,0.032094125,13496.09375,49024
115475,8.328245083,128,-0.731241194,-10139,128,-0.590964626,-8194,16643,1.200320268,13515.625,49664
116562,8.406641293,128,-0.692439758,-9601,128,18.16794314,251907,16514,1.191016578,13535.15625,50304
118080,8.516121926,128,-0.633804874,-8788,128,-0.593128275,-8224,16927,1.22080281,13554.6875,50944
119178,8.595311474,128,-0.579353044,-8033,128,18.89925646,262047,16384,1.181640766,13574.21875,51584
118111,8.518357696,128,-0.641233401,-8891,128,18.31521551,253949,8176,0.589666437,13593.75,52224
114766,8.277110848,128,-0.755257697,-10472,128,18.20039787,252357,1248,0.090007793,13613.28125,52864
113360,8.175707838,128,-0.788000916,-10926,128,18.28312138,253504,16156,1.165197035,13632.8125,53504
112627,8.122842684,128,-0.805959202,-11175,128,18.13995995,251519,124,0.008943082,13652.34375,54144
112431,8.108706845,128,-0.813171364,-11275,128,18.09387423,250880,16,0.001153946,13671.875,54784
112509,8.114332332,128,-0.814036824,-11287,128,-0.812882878,-11271,63,0.004543663,13691.40625,55424
112396,8.106182588,128,-0.80855558,-11211,128,-0.882768736,-12240,7,5.05E-04,13710.9375,56064
112125,8.086637626,128,-0.834879975,-11576,128,18.04822124,250247,16382,1.181496523,13730.46875,56704
111932,8.072718152,128,-0.868128046,-12037,128,18.03956664,250127,15994,1.153513331,13750,57344
112318,8.100557101,128,-0.813676216,-11282,128,18.06617952,250496,2,1.44E-04,13769.53125,57984
112368,8.104163182,128,-0.823412636,-11417,128,18.09372998,250878,16,0.001153946,13789.0625,58624
112355,8.103225601,128,-0.823052028,-11412,128,-0.816993811,-11328,16369,1.180558941,13808.59375,59264
112411,8.107264412,128,-0.827235082,-11470,128,-0.884860263,-12269,16155,1.165124913,13828.125,59904
112533,8.116063251,128,-0.799828863,-11090,128,-0.877143249,-12162,243,0.017525556,13847.65625,60544
112360,8.103586209,128,-0.835240583,-11581,128,-0.807545877,-11197,16365,1.180270455,13867.1875,61184
112191,8.091397654,128,-0.835673313,-11587,128,-0.814108946,-11288,57,0.004110933,13886.71875,61824
112001,8.077694545,128,-0.856011612,-11869,128,-0.849376422,-11777,16381,1.181424401,13906.25,62464
113221,8.165682932,128,-0.797520971,-11058,128,18.09495605,250895,448,0.03231049,13925.78125,63104
113673,8.198281908,128,-0.790092443,-10955,128,18.16657283,251888,192,0.013847353,13945.3125,63744
112514,8.11469294,128,-0.822330811,-11402,128,18.16058673,251805,24,0.001730919,13964.84375,64384
112079,8.083320032,128,-0.85904072,-11911,128,18.02781082,249964,16336,1.178178928,13984.375,65024
111968,8.075314531,128,-0.843246084,-11692,128,18.06502558,250480,96,0.006923676,14003.90625,128
111778,8.061611421,128,-0.863800748,-11977,128,18.06127525,250428,16380,1.181352279,14023.4375,768
112186,8.091037046,128,-0.826658109,-11462,128,-0.879162655,-12190,241,0.017381313,14042.96875,1408
111180,8.018482687,128,-0.812810756,-11270,128,-0.818796851,-11353,135,0.00973642,14062.5,2048
116825,8.425609282,128,-0.713427152,-9892,128,-0.659624417,-9146,255,0.018391015,14082.03125,2688
114275,8.241699128,128,-0.9573425,-13274,128,-0.88601421,-12285,6715,0.484296737,14101.5625,3328
110021,7.93489372,128,-0.883273588,-12247,128,-1.040931468,-14433,1,7.21E-05,14121.09375,3968
112336,8.10185529,128,-0.844904881,-11715,128,18.07973839,250684,64,0.004615784,14140.625,4608
112741,8.13106455,128,-0.848943692,-11771,128,-0.849087936,-11773,127,0.009159447,14160.15625,5248
112668,8.125799671,128,-0.836538772,-11599,128,18.07880081,250671,252,0.01817465,14179.6875,5888
113175,8.162365337,128,-0.82802842,-11481,128,-0.816993811,-11328,255,0.018391015,14199.21875,6528
113286,8.170370837,128,-0.807545877,-11197,128,18.02225745,249887,456,0.032887463,14218.75,7168
113546,8.189122461,128,-0.824278095,-11429,128,-0.881759033,-12226,255,0.018391015,14238.28125,7808
114170,8.234126357,128,-0.797376728,-11056,128,-0.803074336,-11135,271,0.019544961,14257.8125,8448
115420,8.324278393,128,-0.747973412,-10371,128,-0.743285506,-10306,16385,1.181712887,14277.34375,9088
116667,8.414214064,128,-0.721649018,-10006,128,18.31110457,253892,17352,1.251454503,14296.875,9728
118082,8.516266169,128,-0.68587669,-9510,128,-0.146983879,-2038,16451,1.186472915,14316.40625,10368
118832,8.570357391,128,-0.656090457,-9097,128,18.24511328,252977,16502,1.190151118,14335.9375,11008
117477,8.472632584,128,-0.702681029,-9743,128,18.2415072,252927,3998,0.288342272,14355.46875,11648
114208,8.236866979,128,-0.797809458,-11062,128,-0.664672931,-9216,1019,0.07349194,14375,12288
113373,8.176645419,128,-0.832355718,-11541,128,18.20003726,252352,0,0,14394.53125,12928
112847,8.138709442,128,-0.82889388,-11493,128,-0.886158453,-12287,15,0.001081824,14414.0625,13568
112861,8.139719145,128,-0.840361218,-11652,128,18.05168307,250295,150,0.010818244,14433.59375,14208
112760,8.132434861,128,-0.849809152,-11783,128,18.05637098,250360,62,0.004471541,14453.125,14848
112813,8.136257307,128,-0.859112842,-11912,128,-0.876638398,-12155,443,0.031949882,14472.65625,15488
112574,8.119020238,128,-0.860843761,-11936,128,-0.882768736,-12240,191,0.013775231,14492.1875,16128
112876,8.14080097,128,-0.8669741,-12021,128,-0.854208571,-11844,31,0.00223577,14511.71875,16768
112679,8.126593009,128,-0.864594086,-11988,128,18.04201878,250161,0,0,14531.25,17408
112698,8.12796332,128,-0.864089234,-11981,128,17.75915775,246239,0,0,14550.78125,18048
112916,8.143685835,128,-0.86257468,-11960,128,18.02925325,249984,32,0.002307892,14570.3125,18688
112864,8.13993551,128,-0.860988004,-11938,128,-0.853920085,-11840,207,0.014929177,14589.84375,19328
112818,8.136617915,128,-0.869498357,-12056,128,-0.737443654,-10225,15,0.001081824,14609.375,19968
113046,8.153061647,128,-0.864521964,-11987,128,-0.881686912,-12225,16383,1.181568644,14628.90625,20608
113119,8.158326525,128,-0.876710519,-12156,128,-0.869570478,-12057,7,5.05E-04,14648.4375,21248
113664,8.197632813,128,-0.843246084,-11692,128,-0.849376422,-11777,1,7.21E-05,14667.96875,21888
114529,8.260018022,128,-0.820888379,-11382,128,-0.852766139,-11824,391,0.028199557,14687.5,22528
114325,8.24530521,128,-0.813820459,-11284,128,-0.747684926,-10367,15,0.001081824,14707.03125,23168
112969,8.147508281,128,-0.869570478,-12057,128,18.0200938,249857,16256,1.172409197,14726.5625,23808
112519,8.115053548,128,-0.902890671,-12519,128,-1.145868438,-15888,16067,1.15877821,14746.09375,24448
112807,8.135824577,128,-0.867983802,-12035,128,-0.867983802,-12035,16383,1.181568644,14765.625,25088
112793,8.134814875,128,-0.885725723,-12281,128,17.74076673,245984,16348,1.179044387,14785.15625,25728
112837,8.137988226,128,-0.872238978,-12094,128,18.16794314,251907,0,0,14804.6875,26368
114315,8.244583994,128,-0.80011735,-11094,128,-0.73506364,-10192,195,0.014063718,14824.21875,27008
125260,9.03395522,128,-0.791030024,-10968,128,18.18640628,252163,16428,1.184814118,14843.75,27648
110781,7.989706157,128,-0.935417525,-12970,128,-1.117019786,-15488,16255,1.172337076,14863.28125,28288
113250,8.167774459,128,-0.862358315,-11957,128,17.8543583,247559,0,0,14882.8125,28928
113587,8.192079448,128,-0.883057223,-12244,128,-0.868849262,-12047,7,5.05E-04,14902.34375,29568
113598,8.192872786,128,-0.871517762,-12084,128,17.74192068,246000,336,0.024232867,14921.875,30208
113848,8.210903193,128,-0.86920987,-12052,128,18.02434898,249916,62,0.004471541,14941.40625,30848
114431,8.252950102,128,-0.842020016,-11675,128,18.02146411,249876,464,0.033464436,14960.9375,31488
114467,8.255546481,128,-0.859112842,-11912,128,18.02867627,249976,312,0.022501948,14980.46875,32128
114997,8.293770944,128,-0.844832759,-11714,128,-0.85283826,-11825,16441,1.185751699,15000,32768
115906,8.359329505,128,-0.803723431,-11144,128,-0.828605393,-11489,16895,1.218494918,15019.53125,33408
117261,8.457054312,128,-0.78374574,-10867,128,18.25189272,253071,16768,1.209335471,15039.0625,34048
118642,8.556654281,128,-0.736433951,-10211,128,-0.595724654,-8260,16387,1.181857131,15058.59375,34688
119749,8.636492924,128,-0.712633814,-9881,128,-0.602143479,-8349,16833,1.214023377,15078.125,35328
119183,8.595672082,128,-0.722875085,-10023,128,-0.075655589,-1049,8133,0.586565207,15097.65625,35968
116879,8.42950385,128,-0.794347619,-11014,128,-0.766652914,-10630,3311,0.238794713,15117.1875,36608
114560,8.262253793,128,-0.864666207,-11989,128,-0.886158453,-12287,49,0.00353396,15136.71875,37248
113909,8.215302612,128,-0.890990602,-12354,128,-0.867983802,-12035,16381,1.181424401,15156.25,37888
113712,8.201094651,128,-0.889403926,-12332,128,18.02059865,249864,16256,1.172409197,15175.78125,38528
113726,8.202104354,128,-0.896904575,-12436,128,-1.035161738,-14353,127,0.009159447,15195.3125,39168
113668,8.1979213,128,-0.875989303,-12146,128,18.02939749,249986,0,0,15214.84375,39808
113743,8.203330422,128,-0.909237374,-12607,128,-1.144498127,-15869,127,0.009159447,15234.375,40448
113739,8.203041935,128,-0.912266482,-12649,128,-1.034007792,-14337,67,0.004832149,15253.90625,41088
113930,8.216817166,128,-0.890413629,-12346,128,-1.116803422,-15485,97,0.006995798,15273.4375,41728
113824,8.209172274,128,-0.9006549,-12488,128,17.85443042,247560,48,0.003461838,15292.96875,42368
113714,8.201238895,128,-0.921137443,-12772,128,17.76031169,246255,12,8.65E-04,15312.5,43008
114021,8.223380235,128,-0.911977996,-12645,128,17.796661,246759,254,0.018318894,15332.03125,43648
113837,8.210109855,128,-0.926185957,-12842,128,17.87217234,247806,0,0,15351.5625,44288
113992,8.221288707,128,-0.895894873,-12422,128,-0.886302696,-12289,3,2.16E-04,15371.09375,44928
113868,8.212345625,128,-0.919478645,-12749,128,17.76348505,246299,252,0.01817465,15390.625,45568
113915,8.215735342,128,-0.898563373,-12459,128,17.87224446,247807,118,0.008510352,15410.15625,46208
113922,8.216240193,128,-0.901880968,-12505,128,17.78050575,246535,16376,1.181063793,15429.6875,46848
114655,8.269105347,128,-0.882624493,-12238,128,17.86279653,247676,512,0.036926274,15449.21875,47488
115498,8.32990388,128,-0.847284895,-11748,128,18.01079011,249728,16384,1.181640766,15468.75,48128
114845,8.282808457,128,-0.857670409,-11892,128,18.03754724,250099,16864,1.216259148,15488.28125,48768
114015,8.222947505,128,-0.921209564,-12773,128,17.94790005,248856,16158,1.165341278,15507.8125,49408
113586,8.192007326,128,-0.916016807,-12701,128,17.73377093,245887,510,0.036782031,15527.34375,50048
113713,8.201166773,128,-0.94226908,-13065,128,17.80329618,246851,6,4.33E-04,15546.875,50688
113659,8.197272205,128,-0.960011001,-13311,128,-1.181568644,-16383,251,0.018102529,15566.40625,51328
113611,8.193810367,128,-0.910607685,-12626,128,17.72583756,245777,0,0,15585.9375,51968
114295,8.243141561,128,-0.842596989,-11683,128,-0.699363434,-9697,1663,0.119938269,15605.46875,52608
123426,8.901684153,128,-0.948110932,-13146,128,-0.595436167,-8256,15751,1.135987775,15625,53248
112209,8.092695843,128,-0.992177247,-13757,128,-1.032853846,-14321,1991,0.143594163,15644.53125,53888
114478,8.256339819,128,-0.90772282,-12586,128,17.98323965,249346,176,0.012693407,15664.0625,54528
114402,8.250858575,128,-0.921065321,-12771,128,17.73845884,245952,130,0.009375812,15683.59375,55168
114550,8.261532576,128,-0.922219267,-12787,128,17.98403299,249357,16,0.001153946,15703.125,55808
114612,8.266004117,128,-0.924743524,-12822,128,17.76146564,246271,14,0.001009703,15722.65625,56448
114959,8.291030322,128,-0.892433034,-12374,128,-1.145291465,-15880,263,0.018967988,15742.1875,57088
115109,8.301848567,128,-0.882840858,-12241,128,17.7970216,246764,16448,1.18625655,15761.71875,57728
115533,8.332428137,128,-0.90418886,-12537,128,18.01129496,249735,16508,1.190583848,15781.25,58368
116465,8.399645495,128,-0.852549774,-11821,128,18.04302848,250175,16696,1.204142714,15800.78125,59008
117777,8.494269072,128,-0.819806554,-11367,128,-0.733981816,-10177,16399,1.18272259,15820.3125,59648
118969,8.580238054,128,-0.800694323,-11102,128,-0.600051951,-8320,16441,1.185751699,15839.84375,60288
120427,8.685391389,128,-0.745016425,-10330,128,18.67567941,258947,16384,1.181640766,15859.375,60928
119866,8.644931155,128,-0.7589359,-10523,128,18.62822337,258289,7960,0.574088165,15878.90625,61568
116469,8.399933982,128,-0.864810451,-11991,128,18.2421563,252936,3902,0.281418595,15898.4375,62208
115255,8.312378325,128,-0.89135121,-12359,128,-0.895462143,-12416,16447,1.186184428,15917.96875,62848
113813,8.208378936,128,-0.953952784,-13227,128,-0.960083122,-13312,16319,1.17695286,15937.5,63488
114076,8.227346924,128,-0.947173351,-13133,128,-0.941908472,-13060,255,0.018391015,15957.03125,64128
113984,8.220711734,128,-0.94183635,-13059,128,-1.145868438,-15888,159,0.011467339,15976.5625,64768
113877,8.21299472,128,-0.940249674,-13037,128,-1.180991671,-16375,31,0.00223577,15996.09375,65408
113898,8.214509274,128,-0.946019405,-13117,128,-1.16411521,-16141,127,0.009159447,16015.625,512
113546,8.189122461,128,-0.950130337,-13174,128,17.81627808,247031,0,0,16035.15625,1152
113984,8.220711734,128,-0.924887767,-12824,128,17.76096079,246264,0,0,16054.6875,1792
113756,8.204268003,128,-0.935273282,-12968,128,-1.181640766,-16384,63,0.004543663,16074.21875,2432
113805,8.207801963,128,-0.944721215,-13099,128,17.72627029,245783,140,0.010097028,16093.75,3072
113714,8.201238895,128,-0.934768431,-12961,128,17.75692198,246208,116,0.008366109,16113.28125,3712
113828,8.20946076,128,-0.931234471,-12912,128,-0.886374818,-12290,63,0.004543663,16132.8125,4352
113682,8.198931002,128,-0.949481243,-13165,128,17.95720374,248985,0,0,16152.34375,4992
113788,8.206575895,128,-0.92012774,-12758,128,-1.163466115,-16132,511,0.036854152,16171.875,5632
113694,8.199796462,128,-0.951789135,-13197,128,-0.913997401,-12673,3,2.16E-04,16191.40625,6272
114309,8.244151264,128,-0.92546474,-12832,128,18.01129496,249735,504,0.036349301,16210.9375,6912
115116,8.302353418,128,-0.896399724,-12429,128,-0.886302696,-12289,16447,1.186184428,16230.46875,7552
114501,8.257998616,128,-0.906064022,-12563,128,18.02002168,249856,16432,1.185102604,16250,8192
113637,8.195685529,128,-0.944721215,-13099,128,17.85277162,247537,0,0,16269.53125,8832
113198,8.164024134,128,-0.962679501,-13348,128,-0.962679501,-13348,16303,1.175798914,16289.0625,9472
113184,8.163014431,128,-0.935129039,-12966,128,17.98338389,249348,450,0.032454733,16308.59375,10112
112803,8.135536091,128,-0.98388326,-13642,128,17.73838672,245951,16352,1.179332874,16328.125,10752
113070,8.154792566,128,-0.936787836,-12989,128,17.81692717,247040,48,0.003461838,16347.65625,11392
111951,8.074088463,128,-0.938879363,-13018,128,-1.040642982,-14429,271,0.019544961,16367.1875,12032
124566,8.98390281,128,-0.90952586,-12611,128,-0.75540194,-10474,8129,0.58627672,16386.71875,12672
112519,8.115053548,128,-1.052326685,-14591,128,-1.036243562,-14368,3,2.16E-04,16406.25,13312
113239,8.166981121,128,-0.941619985,-13056,128,-0.886519061,-12292,445,0.032094125,16425.78125,13952
113315,8.172462365,128,-0.947029107,-13131,128,18.01122284,249734,0,0,16445.3125,14592
113511,8.186598204,128,-0.934768431,-12961,128,-1.179404995,-16353,823,0.0593561,16464.84375,15232
113728,8.202248597,128,-0.931955687,-12922,128,17.98201358,249329,126,0.009087325,16484.375,15872
113914,8.21566322,128,-0.926690808,-12849,128,-1.148248452,-15921,255,0.018391015,16503.90625,16512
114008,8.222442653,128,-0.933614485,-12945,128,-0.891134845,-12356,3,2.16E-04,16523.4375,17152
114316,8.244656115,128,-0.909237374,-12607,128,-0.915079226,-12688,15,0.001081824,16542.96875,17792
115334,8.318075933,128,-0.871950492,-12090,128,18.01994956,249855,16770,1.209479715,16562.5,18432
116281,8.386375116,128,-0.875700817,-12142,128,-0.738381235,-10238,16445,1.186040185,16582.03125,19072
117667,8.486335693,128,-0.795501565,-11030,128,-0.809493161,-11224,16609,1.197868132,16601.5625,19712
118999,8.582401703,128,-0.758142562,-10512,128,-0.745377033,-10335,16643,1.200320268,16621.09375,20352
119051,8.586152027,128,-0.7589359,-10523,128,-0.590892505,-8193,8067,0.581805179,16640.625,20992
115833,8.354064626,128,-0.853847963,-11839,128,-0.886158453,-12287,3711,0.267643364,16660.15625,21632
114109,8.229726938,128,-0.930152646,-12897,128,17.97609961,249247,16380,1.181352279,16679.6875,22272
113158,8.161139269,128,-0.944216364,-13092,128,-0.931883565,-12921,7,5.05E-04,16699.21875,22912
112806,8.135752456,128,-0.945875161,-13115,128,17.94652974,248837,32,0.002307892,16718.75,23552
112654,8.124789968,128,-0.987849949,-13697,128,-0.962391014,-13344,16383,1.181568644,16738.28125,24192
112485,8.112601413,128,-0.969386812,-13441,128,-1.108942164,-15376,511,0.036854152,16757.8125,24832
112623,8.122554198,128,-0.969242569,-13439,128,-1.117019786,-15488,495,0.035700206,16777.34375,25472
112623,8.122554198,128,-0.954818243,-13239,128,17.72489997,245764,122,0.008798839,16796.875,26112
112405,8.106831683,128,-0.975877759,-13531,128,-1.181135914,-16377,257,0.018535259,16816.40625,26752
112548,8.117145075,128,-0.96130919,-13329,128,-1.033430819,-14329,127,0.009159447,16835.9375,27392
112824,8.137050645,128,-0.938230269,-13009,128,18.00494826,249647,254,0.018318894,16855.46875,28032
112764,8.132723347,128,-0.960660095,-13320,128,-1.03393567,-14336,16367,1.180414698,16875,28672
112649,8.12442936,128,-0.964338298,-13371,128,-0.888033615,-12313,1,7.21E-05,16894.53125,29312
112559,8.117938413,128,-0.966862555,-13406,128,17.78923247,246656,160,0.011539461,16914.0625,29952
112451,8.110149277,128,-0.979844449,-13586,128,-1.153873939,-15999,16379,1.181280158,16933.59375,30592
113034,8.152196187,128,-0.952654594,-13209,128,17.9463855,248835,10,7.21E-04,16953.125,31232
114058,8.226048735,128,-0.893082129,-12383,128,17.807335,246907,948,0.068371304,16972.65625,31872
113469,8.183569096,128,-0.915944685,-12700,128,-1.118173733,-15504,15,0.001081824,16992.1875,32512
112211,8.092840087,128,-0.988066314,-13700,128,17.74307462,246016,16368,1.18048682,17011.71875,33152
111856,8.067236908,128,-1.005519748,-13942,128,17.72562119,245774,16376,1.181063793,17031.25,33792
111823,8.064856895,128,-0.989148139,-13715,128,17.88645242,248004,184,0.01327038,17050.78125,34432
112091,8.084185491,128,-0.993763923,-13779,128,-1.177097103,-16321,16351,1.179260752,17070.3125,35072
112011,8.078415761,128,-0.982368706,-13621,128,-1.165413399,-16159,139,0.010024906,17089.84375,35712
112875,8.140728848,128,-0.918757429,-12739,128,-1.03393567,-14336,7,5.05E-04,17109.375,36352
123853,8.932480089,128,-0.904837955,-12546,128,17.77992878,246527,15332,1.105768812,17128.90625,36992
109626,7.906405676,128,-1.058096416,-14671,128,-1.10786034,-15361,15665,1.129785315,17148.4375,37632
111989,8.076829085,128,-1.025425318,-14218,128,17.73319396,245879,272,0.019617083,17167.96875,38272
112656,8.124934211,128,-1.011289479,-14022,128,-1.121707692,-15553,7,5.05E-04,17187.5,38912
112724,8.129838482,128,-0.97147834,-13470,128,18.00985253,249715,80,0.00576973,17207.03125,39552
112696,8.127819077,128,-0.998812437,-13849,128,17.75922987,246240,16184,1.16721644,17226.5625,40192
113078,8.155369539,128,-0.977392313,-13552,128,-1.025785926,-14223,3,2.16E-04,17246.09375,40832
113366,8.176140568,128,-0.971550461,-13471,128,-1.126179233,-15615,3,2.16E-04,17265.625,41472
113876,8.212922598,128,-0.968881961,-13434,128,-0.90022217,-12482,21,0.001514554,17285.15625,42112
114396,8.250425845,128,-0.931883565,-12921,128,17.86358987,247687,28,0.002019406,17304.6875,42752
116094,8.372888371,128,-0.886158453,-12287,128,17.86972021,247772,17392,1.254339368,17324.21875,43392
117251,8.456333096,128,-0.852549774,-11821,128,-0.724461761,-10045,17155,1.237246542,17343.75,44032
118169,8.522540751,128,-0.848943692,-11771,128,-0.885725723,-12281,16799,1.211571242,17363.28125,44672
118034,8.512804331,128,-0.834735731,-11574,128,18.07505048,250619,4034,0.29093865,17382.8125,45312
115538,8.332788745,128,-0.915295591,-12691,128,-0.915151348,-12689,863,0.062240966,17402.34375,45952
113329,8.173472068,128,-0.998019099,-13838,128,-1.116803422,-15485,15987,1.153008479,17421.875,46592
112360,8.103586209,128,-1.013020398,-14046,128,17.87649964,247866,0,0,17441.40625,47232
112390,8.105749858,128,-1.033286575,-14327,128,-0.952798838,-13211,16359,1.179837725,17460.9375,47872
112361,8.103658331,128,-1.014679195,-14069,128,-1.181424401,-16381,225,0.016227366,17480.46875,48512
112218,8.093344938,128,-1.029247764,-14271,128,-1.03746963,-14385,16369,1.180558941,17500,49152
112169,8.089810978,128,-1.019222858,-14132,128,17.87318204,247820,60,0.004327298,17519.53125,49792
112109,8.08548368,128,-1.018645885,-14124,128,17.72677514,245790,100,0.007212163,17539.0625,50432
112353,8.103081358,128,-1.014751317,-14070,128,-1.181063793,-16376,249,0.017958286,17558.59375,51072
112239,8.094859492,128,-1.021747115,-14167,128,-1.163754602,-16136,16383,1.181568644,17578.125,51712
112276,8.097527992,128,-1.028670791,-14263,128,17.72461149,245760,56,0.004038811,17597.65625,52352
112204,8.092335235,128,-0.988571166,-13707,128,17.72807333,245808,12,8.65E-04,17617.1875,52992
112395,8.106110466,128,-1.004149437,-13923,128,-1.179765604,-16358,113,0.008149744,17636.71875,53632
112255,8.096013438,128,-1.025858048,-14224,128,-1.173563143,-16272,527,0.038008098,17656.25,54272
112258,8.096229803,128,-1.025136831,-14214,128,17.72569331,245775,224,0.016155245,17675.78125,54912
112943,8.145633119,128,-1.02730048,-14244,128,-1.028310183,-14258,399,0.02877653,17695.3125,55552
113574,8.191141867,128,-0.98965299,-13722,128,-0.971117731,-13465,999,0.072049507,17714.84375,56192
113709,8.200878286,128,-0.9573425,-13274,128,17.99261546,249476,224,0.016155245,17734.375,56832
112650,8.124501482,128,-0.991239666,-13744,128,17.87347053,247824,16270,1.1734189,17753.90625,57472
112052,8.081372748,128,-1.057086713,-14657,128,-1.112908854,-15431,16191,1.167721292,17773.4375,58112
111826,8.065073259,128,-1.044753914,-14486,128,-1.035522346,-14358,16347,1.178972266,17792.96875,58752
112065,8.082310329,128,-1.024055007,-14199,128,-0.890629994,-12349,29,0.002091527,17812.5,59392
112151,8.088512789,128,-1.024559858,-14206,128,-0.895462143,-12416,3,2.16E-04,17832.03125,60032
110981,8.004130483,128,-1.037253265,-14382,128,-1.034007792,-14337,16261,1.172769806,17851.5625,60672
123886,8.934860103,128,-0.883417831,-12249,128,18.02023804,249859,16382,1.181496523,17871.09375,61312
114796,8.279274497,128,-1.169812819,-16220,128,17.72489997,245764,124,0.008943082,17890.625,61952
111852,8.066948422,128,-1.057735808,-14666,128,17.74141583,245993,448,0.03231049,17910.15625,62592
112231,8.094282519,128,-1.057735808,-14666,128,-1.116875543,-15486,16371,1.180703185,17929.6875,63232
112518,8.114981427,128,-1.051100618,-14574,128,-1.147022384,-15904,127,0.009159447,17949.21875,63872
112831,8.137555496,128,-1.030545954,-14289,128,-1.031122927,-14297,63,0.004543663,17968.75,64512
113067,8.154576201,128,-1.01489556,-14072,128,-1.015472533,-14080,399,0.02877653,17988.28125,65152
113117,8.158182282,128,-1.043383603,-14467,128,17.87224446,247807,16380,1.181352279,18007.8125,256
113633,8.195397043,128,-1.002562762,-13901,128,17.72814545,245809,224,0.016155245,18027.34375,896
114074,8.227202681,128,-1.001336694,-13884,128,17.88623606,248001,0,0,18046.875,1536
115283,8.31439773,128,-0.937869661,-13004,128,-1.158850331,-16068,16511,1.190800213,18066.40625,2176
117239,8.455467636,128,-0.905487049,-12555,128,17.72915515,245823,16632,1.19952693,18085.9375,2816
118314,8.532998387,128,-0.857742531,-11893,128,-0.738453357,-10239,16447,1.186184428,18105.46875,3456
117841,8.498884857,128,-0.898347008,-12456,128,-0.881686912,-12225,4067,0.293318664,18125,4096
115876,8.357165856,128,-0.926618687,-12848,128,17.9484049,248863,1726,0.124481931,18144.53125,4736
113695,8.199868584,128,-1.015256168,-14077,128,-1.001553059,-13887,15887,1.145796316,18164.0625,5376
112700,8.128107563,128,-1.024487737,-14205,128,17.73845884,245952,60,0.004327298,18183.59375,6016
112219,8.09341706,128,-1.05074001,-14569,128,-1.162672777,-16121,27,0.001947284,18203.125,6656
112426,8.108346237,128,-1.035378103,-14356,128,-1.061702497,-14721,115,0.008293987,18222.65625,7296
112226,8.093921911,128,-1.054057605,-14615,128,17.79673312,246760,96,0.006923676,18242.1875,7936
112234,8.094498884,128,-1.066174038,-14783,128,-1.144786614,-15873,16367,1.180414698,18261.71875,8576
112245,8.095292222,128,-1.066751011,-14791,128,-1.066534646,-14788,1,7.21E-05,18281.25,9216
112139,8.087647329,128,-1.066462525,-14787,128,17.87210022,247805,16328,1.177601955,18300.78125,9856
112287,8.09832133,128,-1.043816333,-14473,128,-1.145363587,-15881,31,0.00223577,18320.3125,10496
112487,8.112745656,128,-1.055283672,-14632,128,-1.175005576,-16292,503,0.036277179,18339.84375,11136
112474,8.111808075,128,-1.048359996,-14536,128,-1.038839941,-14404,511,0.036854152,18359.375,11776
112337,8.101927412,128,-1.056581862,-14650,128,-1.034079913,-14338,253,0.018246772,18378.90625,12416
112390,8.105749858,128,-1.063721903,-14749,128,17.85392557,247553,256,0.018463137,18398.4375,13056
112083,8.083608518,128,-1.068986782,-14822,128,17.72684726,245791,448,0.03231049,18417.96875,13696
112456,8.110509886,128,-1.04280663,-14459,128,17.8633735,247684,320,0.023078921,18437.5,14336
112291,8.098609817,128,-1.060620673,-14706,128,-1.037541752,-14386,163,0.011755825,18457.03125,14976
112206,8.092479478,128,-1.057735808,-14666,128,17.79139612,246686,78,0.005625487,18476.5625,15616
112396,8.106182588,128,-1.043167239,-14464,128,-1.043167239,-14464,399,0.02877653,18496.09375,16256
112687,8.127169982,128,-1.044393306,-14481,128,-1.035738711,-14361,47,0.003389717,18515.625,16896
113424,8.180323622,128,-1.050018793,-14559,128,-1.1450751,-15877,9,6.49E-04,18535.15625,17536
114099,8.229005722,128,-0.979339597,-13579,128,-0.960732217,-13321,443,0.031949882,18554.6875,18176
112548,8.117145075,128,-1.038190846,-14395,128,-1.025281075,-14216,16383,1.181568644,18574.21875,18816
112395,8.106110466,128,-1.05340851,-14606,128,-1.053552753,-14608,9,6.49E-04,18593.75,19456
111849,8.066732057,128,-1.083988081,-15030,128,17.79846404,246784,252,0.01817465,18613.28125,20096
111916,8.071564206,128,-1.076559553,-14927,128,17.72576543,245776,480,0.034618382,18632.8125,20736
111901,8.070482382,128,-1.073314079,-14882,128,-1.180631063,-16370,271,0.019544961,18652.34375,21376
111021,8.007015348,128,-1.036676292,-14374,128,-1.034512643,-14344,487,0.035123233,18671.875,22016
119860,8.644498425,128,-0.907001603,-12576,128,17.85154555,247520,17460,1.259243638,18691.40625,22656
113142,8.159985323,128,-1.161302467,-16102,128,17.76146564,246271,8188,0.590531896,18710.9375,23296
111343,8.030238513,128,-1.063938268,-14752,128,-1.063938268,-14752,1023,0.073780426,18730.46875,23936
112715,8.129189387,128,-1.048864847,-14543,128,-1.048359996,-14536,3,2.16E-04,18750,24576
112797,8.135103361,128,-1.054418213,-14620,128,-1.054706699,-14624,15,0.001081824,18769.53125,25216
112879,8.141017335,128,-1.057591564,-14664,128,-1.069131025,-14824,127,0.009159447,18789.0625,25856
112888,8.141666429,128,-1.056581862,-14650,128,17.72475573,245762,8,5.77E-04,18808.59375,26496
113228,8.166187783,128,-1.056870348,-14654,128,17.84000609,247360,4,2.88E-04,18828.125,27136
113824,8.209172274,128,-1.031988386,-14309,128,-1.032853846,-14321,1015,0.073203453,18847.65625,27776
114034,8.224317816,128,-1.018645885,-14124,128,-1.173563143,-16272,383,0.027622584,18867.1875,28416
115245,8.311657108,128,-0.991095423,-13742,128,17.89279913,248092,16384,1.181640766,18886.71875,29056
116829,8.425897768,128,-0.92546474,-12832,128,-0.943927877,-13088,16397,1.182578347,18906.25,29696
118031,8.512587966,128,-0.904910076,-12547,128,-0.904982198,-12548,16655,1.201185727,18925.78125,30336
118515,8.547494834,128,-0.884860263,-12269,128,-0.738309114,-10237,16639,1.200031781,18945.3125,30976
116517,8.40339582,128,-0.955900068,-13254,128,17.87195598,247803,1920,0.138473527,18964.84375,31616
113764,8.204844976,128,-1.027372602,-14245,128,17.72634241,245784,16230,1.170534035,18984.375,32256
112836,8.137916105,128,-1.050523645,-14566,128,17.87224446,247807,0,0,19003.90625,32896
112258,8.096229803,128,-1.081103215,-14990,128,-1.061414011,-14717,3,2.16E-04,19023.4375,33536
112210,8.092767965,128,-1.073530444,-14885,128,17.81339321,246991,64,0.004615784,19042.96875,34176
112252,8.095797073,128,-1.074395904,-14897,128,17.83185635,247247,30,0.002163649,19062.5,34816
112022,8.079209099,128,-1.074395904,-14897,128,17.76146564,246271,406,0.029281381,19082.03125,35456
111975,8.075819382,128,-1.089108716,-15101,128,-1.107788218,-15360,63,0.004543663,19101.5625,36096
111961,8.074809679,128,-1.075910458,-14918,128,17.86409472,247694,472,0.034041409,19121.09375,36736
112147,8.088224302,128,-1.067472228,-14801,128,-1.06848193,-14815,3,2.16E-04,19140.625,37376
112037,8.080290923,128,-1.097042095,-15211,128,-1.181280158,-16379,135,0.00973642,19160.15625,38016
112166,8.089594613,128,-1.061558254,-14719,128,17.72468361,245761,0,0,19179.6875,38656
111991,8.076973328,128,-1.075477728,-14912,128,17.76636991,246339,24,0.001730919,19199.21875,39296
112111,8.085627924,128,-1.077569256,-14941,128,-1.16988494,-16221,239,0.017237069,19218.75,39936
112168,8.089738857,128,-1.068770417,-14819,128,17.76377353,246303,56,0.004038811,19238.28125,40576
112393,8.105966223,128,-1.043311482,-14466,128,17.79831979,246782,896,0.064620979,19257.8125,41216
112752,8.131857888,128,-1.074468026,-14898,128,17.87224446,247807,56,0.004038811,19277.34375,41856
113489,8.185011528,128,-1.027156237,-14242,128,-1.174861333,-16290,497,0.03584445,19296.875,42496
113304,8.171669027,128,-1.016193749,-14090,128,-1.015616776,-14082,159,0.011467339,19316.40625,43136
111729,8.058077461,128,-1.079732904,-14971,128,17.78685245,246623,18,0.001298189,19335.9375,43776
111539,8.044374352,128,-1.083483229,-15023,128,17.80069981,246815,496,0.035772328,19355.46875,44416
111401,8.034421567,128,-1.089902054,-15112,128,17.72569331,245775,776,0.055966384,19375,45056
111454,8.038244014,128,-1.072809228,-14875,128,17.7613214,246269,510,0.036782031,19394.53125,45696
111586,8.047764069,128,-1.075766215,-14916,128,-1.145002978,-15876,483,0.034834747,19414.0625,46336
112526,8.1155584,128,-1.004870654,-13933,128,17.72655877,245787,960,0.069236764,19433.59375,46976
123461,8.90420841,128,-1.010207654,-14007,128,-1.000543356,-13873,15879,1.145219343,19453.125,47616
109222,7.877268538,128,-1.116659178,-15483,128,17.75237832,246145,518,0.037359004,19472.65625,48256
111728,8.05800534,128,-1.067400106,-14800,128,17.7800009,246528,126,0.009087325,19492.1875,48896
112047,8.081012139,128,-1.07244862,-14870,128,-1.100864542,-15264,511,0.036854152,19511.71875,49536
112293,8.09875406,128,-1.078867445,-14959,128,17.73391518,245889,0,0,19531.25,50176
112616,8.122049346,128,-1.059971578,-14697,128,-1.069203147,-14825,1007,0.07262648,19550.78125,50816
112771,8.133228199,128,-1.048864847,-14543,128,-1.034152035,-14339,195,0.014063718,19570.3125,51456
112707,8.128612414,128,-1.064298876,-14757,128,-1.142767208,-15845,67,0.004832149,19589.84375,52096
113373,8.176645419,128,-1.026867751,-14238,128,-1.1734189,-16270,991,0.071472534,19609.375,52736
113951,8.218331721,128,-1.044032698,-14476,128,-1.154018182,-16001,463,0.033392314,19628.90625,53376
115296,8.315335311,128,-0.980421422,-13594,128,18.00062096,249587,17248,1.243953853,19648.4375,54016
116706,8.417026808,128,-0.956044311,-13256,128,17.98713422,249400,17376,1.253185422,19667.96875,54656
117906,8.503572762,128,-0.905270684,-12552,128,18.01944471,249848,16624,1.198949957,19687.5,55296
116895,8.430657796,128,-0.954890365,-13240,128,-0.585627626,-8120,16415,1.183876536,19707.03125,55936
114898,8.286630903,128,-1.016698601,-14097,128,17.72569331,245775,66,0.004760027,19726.5625,56576
112446,8.109788669,128,-1.099422109,-15244,128,17.80654166,246896,16382,1.181496523,19746.09375,57216
111818,8.064496286,128,-1.110384597,-15396,128,-1.144786614,-15873,127,0.009159447,19765.625,57856
111651,8.052451974,128,-1.140747802,-15817,128,-1.121707692,-15553,16163,1.165701886,19785.15625,58496
111698,8.055841691,128,-1.108725799,-15373,128,17.76096079,246264,64,0.004615784,19804.6875,59136
111452,8.03809977,128,-1.143199938,-15851,128,17.76153776,246272,76,0.005481244,19824.21875,59776
111442,8.037378554,128,-1.132886545,-15708,128,17.76384565,246304,472,0.034041409,19843.75,60416
111486,8.040551906,128,-1.124376193,-15590,128,17.79831979,246782,510,0.036782031,19863.28125,61056
111824,8.064929016,128,-1.104975474,-15321,128,17.86762868,247743,192,0.013847353,19882.8125,61696
111532,8.043869501,128,-1.147671479,-15913,128,17.73845884,245952,12,8.65E-04,19902.34375,62336
111790,8.062476881,128,-1.122356787,-15562,128,-1.10786034,-15361,255,0.018391015,19921.875,62976
111794,8.062765367,128,-1.126972571,-15626,128,-1.181568644,-16383,205,0.014784934,19941.40625,63616
111913,8.071347841,128,-1.093291771,-15159,128,17.79839191,246783,12,8.65E-04,19960.9375,64256
112460,8.110798372,128,-1.105985177,-15335,128,17.76261959,246287,768,0.055389411,20000,0
113377,8.176933906,128,-1.060692794,-14707,128,-1.070861944,-14848,831,0.059933074,20019.53125,640
112696,8.127819077,128,-1.089469324,-15106,128,17.86301289,247679,368,0.026540759,20039.0625,1280
111688,8.055120475,128,-1.134184734,-15726,128,17.75461409,246176,284,0.020482543,20058.59375,1920
111596,8.048485285,128,-1.115649476,-15469,128,-1.126251355,-15616,927,0.06685675,20078.125,2560
111253,8.023747566,128,-1.155749101,-16025,128,-1.121924057,-15556,15,0.001081824,20097.65625,3200
111456,8.038388257,128,-1.123438611,-15577,128,-1.16721644,-16184,765,0.055173046,20117.1875,3840
111689,8.055192596,128,-1.128054396,-15641,128,17.76045594,246257,960,0.069236764,20136.71875,4480
114043,8.22496691,128,-1.045330887,-14494,128,17.87224446,247807,1912,0.137896554,20156.25,5120
122899,8.863676055,128,-1.098484528,-15231,128,-1.147527235,-15911,8189,0.590604018,20175.78125,5760
109099,7.868397578,128,-1.182506225,-16396,128,-2.09621514,-29065,609,0.043922072,20195.3125,6400
111901,8.070482382,128,-1.130218045,-15671,128,-1.144714492,-15872,33,0.002380014,20214.84375,7040
112221,8.093561303,128,-1.123078003,-15572,128,-1.111322178,-15409,67,0.004832149,20234.375,7680
112426,8.108346237,128,-1.102306974,-15284,128,-1.135482923,-15744,543,0.039162044,20253.90625,8320
112469,8.111447467,128,-1.127044693,-15627,128,17.72684726,245791,384,0.027694705,20273.4375,8960
112984,8.148590106,128,-1.094734203,-15179,128,17.7590135,246237,1022,0.073708305,20292.96875,9600
112982,8.148445862,128,-1.11096157,-15404,128,17.79413674,246724,124,0.008943082,20312.5,10240
113583,8.191790961,128,-1.101369393,-15271,128,-1.144930857,-15875,3,2.16E-04,20332.03125,10880
114131,8.231313614,128,-1.080165634,-14977,128,-1.179909847,-16360,15,0.001081824,20351.5625,11520
115978,8.364522262,128,-1.006096721,-13950,128,-1.109807624,-15388,17153,1.237102298,20371.09375,12160
117318,8.461165245,128,-0.983666895,-13639,128,-1.177601955,-16328,17407,1.255421192,20390.625,12800
118057,8.514463128,128,-0.955900068,-13254,128,17.76139352,246270,16448,1.18625655,20410.15625,13440
116811,8.424599579,128,-1.000903964,-13878,128,-1.126251355,-15616,16447,1.186184428,20429.6875,14080
114775,8.277759943,128,-1.088099013,-15087,128,17.86308502,247680,112,0.008077622,20449.21875,14720
112839,8.138132469,128,-1.114351286,-15451,128,17.72504422,245766,128,0.009231568,20468.75,15360
112233,8.094426762,128,-1.152503628,-15980,128,-1.170173427,-16225,3,2.16E-04,20488.28125,16000
112119,8.086204897,128,-1.163249751,-16129,128,17.7526668,246149,126,0.009087325,20507.8125,16640
112060,8.081949721,128,-1.146878141,-15902,128,-1.181640766,-16384,129,0.00930369,20527.34375,17280
112064,8.082238207,128,-1.16014852,-16086,128,-1.117524638,-15495,193,0.013919474,20546.875,17920
111931,8.072646031,128,-1.162600656,-16120,128,17.76146564,246271,12,8.65E-04,20566.40625,18560
111966,8.075170288,128,-1.159066696,-16071,128,17.756345,246200,126,0.009087325,20585.9375,19200
112001,8.077694545,128,-1.162384291,-16117,128,-1.164259453,-16143,23,0.001658797,20605.46875,19840
112285,8.098177087,128,-1.143488424,-15855,128,-1.163754602,-16136,511,0.036854152,20625,20480
112255,8.096013438,128,-1.166062494,-16168,128,-1.178900144,-16346,16369,1.180558941,20644.53125,21120
112260,8.096374046,128,-1.154595155,-16009,128,17.73182365,245860,86,0.00620246,20664.0625,21760
111982,8.076324234,128,-1.184525631,-16424,128,-1.181063793,-16376,16381,1.181424401,20683.59375,22400
112503,8.113899602,128,-1.137790816,-15776,128,17.72489997,245764,508,0.036637787,20703.125,23040
112358,8.103441966,128,-1.134256856,-15727,128,17.7430025,246015,128,0.009231568,20722.65625,23680
113076,8.155225295,128,-1.165774008,-16164,128,17.75576803,246192,16380,1.181352279,20742.1875,24320
113844,8.210614706,128,-1.0883875,-15091,128,17.85471891,247564,62,0.004471541,20761.71875,24960
113079,8.15544166,128,-1.124015584,-15585,128,-1.117019786,-15488,16383,1.181568644,20781.25,25600
112388,8.105605615,128,-1.158417601,-16062,128,-1.163754602,-16136,16381,1.181424401,20800.78125,26240
111764,8.060601718,128,-1.19245901,-16534,128,-2.072487125,-28736,16383,1.181568644,20820.3125,26880
111703,8.056202299,128,-1.18358805,-16411,128,17.72518846,245768,254,0.018318894,20839.84375,27520
112031,8.079858193,128,-1.181496523,-16382,128,17.72569331,245775,56,0.004038811,20859.375,28160
111896,8.070121773,128,-1.158633966,-16065,128,-2.071621665,-28724,255,0.018391015,20878.90625,28800
111455,8.038316135,128,-1.147527235,-15911,128,-1.163754602,-16136,79,0.005697609,20898.4375,29440
122807,8.857040865,128,-1.152575749,-15981,128,-1.149546641,-15939,15479,1.116370692,20917.96875,30080
110619,7.978022454,128,-1.247055083,-17291,128,16.80195949,232967,0,0,20937.5,30720
112588,8.120029941,128,-1.158129115,-16058,128,16.82042263,233223,1022,0.073708305,20957.03125,31360
112516,8.114837183,128,-1.194478416,-16562,128,16.83376513,233408,0,0,20976.5625,32000
112872,8.140512483,128,-1.177601955,-16328,128,-1.173563143,-16272,99,0.007140041,20996.09375,32640
113020,8.151186484,128,-1.16368248,-16135,128,-2.068808921,-28685,15,0.001081824,21015.625,33280
113277,8.169721743,128,-1.163898845,-16138,128,-2.068159827,-28676,449,0.032382611,21035.15625,33920
113614,8.194026732,128,-1.150556344,-15953,128,-1.181640766,-16384,61,0.004399419,21054.6875,34560
113786,8.206431652,128,-1.162528534,-16119,128,17.72461149,245760,126,0.009087325,21074.21875,35200
114670,8.270187172,128,-1.12646772,-15619,128,-1.181208036,-16378,255,0.018391015,21093.75,35840
115754,8.348367017,128,-1.088243257,-15089,128,17.81598959,247027,16518,1.191305064,21113.28125,36480
117863,8.500471532,128,-1.030041102,-14282,128,-1.035378103,-14356,16911,1.219648864,21132.8125,37120
118800,8.568049499,128,-0.981647489,-13611,128,-1.149330276,-15936,17167,1.238112001,21152.34375,37760
117286,8.458857353,128,-1.041724806,-14444,128,-1.181568644,-16383,16449,1.186328672,21171.875,38400
115096,8.300910986,128,-1.093652379,-15164,128,-1.061702497,-14721,2047,0.147632974,21191.40625,39040
113424,8.180323622,128,-1.167432805,-16187,128,17.73204002,245863,16,0.001153946,21210.9375,39680
112794,8.134886996,128,-1.177313468,-16324,128,-1.18091955,-16374,31,0.00223577,21230.46875,40320
112718,8.129405752,128,-1.162672777,-16121,128,-1.162961264,-16125,71,0.005120636,21250,40960
112470,8.111519588,128,-1.189718388,-16496,128,16.83614514,233441,110,0.007933379,21269.53125,41600
112361,8.103658331,128,-1.190800213,-16511,128,-2.079122314,-28828,255,0.018391015,21289.0625,42240
112430,8.108634723,128,-1.189502023,-16493,128,-1.181496523,-16382,271,0.019544961,21308.59375,42880
112488,8.112817778,128,-1.189429902,-16492,128,-2.104509128,-29180,63,0.004543663,21328.125,43520
112258,8.096229803,128,-1.205440903,-16714,128,17.72461149,245760,64,0.004615784,21347.65625,44160
112393,8.105966223,128,-1.187482618,-16465,128,16.83621726,233442,56,0.004038811,21367.1875,44800
112499,8.113611116,128,-1.18979051,-16497,128,-2.0714053,-28721,3,2.16E-04,21386.71875,45440
112537,8.116351738,128,-1.184597753,-16425,128,-2.070179232,-28704,99,0.007140041,21406.25,46080
112613,8.121832981,128,-1.171976468,-16250,128,17.73261699,245871,18,0.001298189,21425.78125,46720
112545,8.116928711,128,-1.179044387,-16348,128,-2.076021084,-28785,391,0.028199557,21445.3125,47360
112596,8.120606914,128,-1.197579646,-16605,128,16.83823667,233470,16368,1.18048682,21464.84375,48000
112630,8.123059049,128,-1.176736495,-16316,128,-2.074867138,-28769,455,0.032815341,21484.375,48640
112599,8.120823279,128,-1.188275956,-16476,128,-2.07493926,-28770,51,0.003678203,21503.90625,49280
112668,8.125799671,128,-1.184886239,-16429,128,-2.070539841,-28709,31,0.00223577,21523.4375,49920
112643,8.12399663,128,-1.191521429,-16521,128,16.83376513,233408,0,0,21542.96875,50560
113130,8.159119863,128,-1.160509129,-16091,128,-1.181135914,-16377,35,0.002524257,21562.5,51200
113661,8.197416448,128,-1.17471709,-16288,128,16.82806752,233329,60,0.004327298,21582.03125,51840
113678,8.198642516,128,-1.161951561,-16111,128,17.76247534,246285,312,0.022501948,21601.5625,52480
112744,8.131280915,128,-1.19022324,-16503,128,-2.07227076,-28733,59,0.004255176,21621.09375,53120
112365,8.103946817,128,-1.202988768,-16680,128,16.82395659,233272,236,0.017020704,21640.625,53760
111907,8.070915111,128,-1.232270149,-17086,128,-2.086190234,-28926,16355,1.179549239,21660.15625,54400
111963,8.074953923,128,-1.215105202,-16848,128,-2.217812206,-30751,111,0.008005501,21679.6875,55040
112139,8.087647329,128,-1.209768201,-16774,128,-2.082151423,-28870,3,2.16E-04,21699.21875,55680
111650,8.052379853,128,-1.163033386,-16126,128,-2.086406599,-28929,255,0.018391015,21718.75,56320
122534,8.83735166,128,-1.034873251,-14349,128,-1.16368248,-16135,8071,0.582093666,21738.28125,56960
111301,8.027209404,128,-1.277562532,-17714,128,16.8023201,232972,3582,0.258339674,21757.8125,57600
111721,8.057500488,128,-1.200752997,-16649,128,-2.121097102,-29410,795,0.057336695,21777.34375,58240
112843,8.138420956,128,-1.205657268,-16717,128,16.83376513,233408,96,0.006923676,21796.875,58880
112528,8.115702643,128,-1.206378485,-16727,128,-2.075011382,-28771,127,0.009159447,21816.40625,59520
112900,8.142531889,128,-1.186905645,-16457,128,16.83773182,233463,0,0,21835.9375,60160
112879,8.141017335,128,-1.207171822,-16738,128,-2.095566046,-29056,16135,1.16368248,21855.46875,60800
113346,8.174698135,128,-1.180198333,-16364,128,-1.17962136,-16356,227,0.01637161,21875,61440
113591,8.192367934,128,-1.168586751,-16203,128,-1.181568644,-16383,255,0.018391015,21894.53125,62080
114133,8.231457857,128,-1.148536938,-15925,128,-1.181568644,-16383,255,0.018391015,21914.0625,62720
115464,8.327451745,128,-1.120193138,-15532,128,17.79154036,246688,16832,1.213951256,21933.59375,63360
116879,8.42950385,128,-1.080814729,-14986,128,-1.146950262,-15903,16385,1.181712887,21953.125,64000
117997,8.510135831,128,-1.03393567,-14336,128,-1.181640766,-16384,16639,1.200031781,21972.65625,64640
118028,8.512371601,128,-1.030041102,-14282,128,-1.181208036,-16378,16483,1.188780807,21992.1875,65280
116159,8.377576277,128,-1.084492932,-15037,128,-1.149258155,-15935,1983,0.14301719,22011.71875,384
113313,8.172318121,128,-1.168947359,-16208,128,-1.158633966,-16065,16131,1.163393994,22031.25,1024
112760,8.132434861,128,-1.177890441,-16332,128,17.72807333,245808,8,5.77E-04,22050.78125,1664
112218,8.093344938,128,-1.193612956,-16550,128,-2.095638167,-29057,111,0.008005501,22070.3125,2304
111849,8.066732057,128,-1.237030177,-17152,128,-2.104725493,-29183,16381,1.181424401,22089.84375,2944
111978,8.076035747,128,-1.194983267,-16569,128,-1.780827258,-24692,575,0.041469937,22109.375,3584
111998,8.07747818,128,-1.206594849,-16730,128,-2.067943462,-28673,127,0.009159447,22128.90625,4224
111702,8.056130178,128,-1.220009472,-16916,128,16.80138252,232959,94,0.006779433,22148.4375,4864
112112,8.085700045,128,-1.200248146,-16642,128,16.80974863,233075,384,0.027694705,22167.96875,5504
112073,8.082887302,128,-1.186761402,-16455,128,-2.072775611,-28740,449,0.032382611,22187.5,6144
111748,8.059447772,128,-1.22123554,-16933,128,-2.068087705,-28675,249,0.017958286,22207.03125,6784
111830,8.065361746,128,-1.196569943,-16591,128,-2.090733897,-28989,111,0.008005501,22226.5625,7424
111829,8.065289624,128,-1.200392389,-16644,128,-2.068015584,-28674,63,0.004543663,22246.09375,8064
111855,8.067164787,128,-1.193252348,-16545,128,16.68598791,231359,24,0.001730919,22265.625,8704
111637,8.051442272,128,-1.204719687,-16704,128,-2.22019222,-30784,31,0.00223577,22285.15625,9344
111756,8.060024745,128,-1.215321567,-16851,128,-1.786596988,-24772,7,5.05E-04,22304.6875,9984
112048,8.081084261,128,-1.212220336,-16808,128,17.13119473,237532,496,0.035772328,22324.21875,10624
113099,8.156884093,128,-1.145219343,-15879,128,17.72634241,245784,70,0.005048514,22343.75,11264
113028,8.151763457,128,-1.161663075,-16107,128,17.75353226,246161,0,0,22363.28125,11904
111475,8.039758568,128,-1.215970661,-16860,128,-2.22019222,-30784,16335,1.178106806,22382.8125,12544
111250,8.023531201,128,-1.23630896,-17142,128,-1.832466344,-25408,57,0.004110933,22402.34375,13184
111153,8.016535403,128,-1.238833217,-17177,128,16.57975275,229886,16372,1.180775306,22421.875,13824
110919,7.999658942,128,-1.24604538,-17277,128,-2.273490104,-31523,13,9.38E-04,22441.40625,14464
111418,8.035647635,128,-1.222173121,-16946,128,-2.140714185,-29682,63,0.004543663,22460.9375,15104
110732,7.986172198,128,-1.205368782,-16713,128,-2.100542438,-29125,127,0.009159447,22480.46875,15744
122302,8.820619443,128,-1.104831231,-15319,128,-1.177097103,-16321,7615,0.549206203,22500,16384
108932,7.856353266,128,-1.308069981,-18137,128,16.68396851,231331,15904,1.147022384,22519.53125,17024
110548,7.972901818,128,-1.220225837,-16919,128,16.69009884,231416,496,0.035772328,22539.0625,17664
111826,8.065073259,128,-1.219288256,-16906,128,16.79453096,232864,472,0.034041409,22558.59375,18304
111646,8.052091366,128,-1.230394987,-17060,128,16.83405362,233412,128,0.009231568,22578.125,18944
112106,8.085267316,128,-1.206883336,-16734,128,-2.095566046,-29056,127,0.009159447,22597.65625,19584
111944,8.073583612,128,-1.209912444,-16776,128,16.83830879,233471,48,0.003461838,22617.1875,20224
112301,8.099331033,128,-1.205945755,-16721,128,16.81349895,233127,0,0,22636.71875,20864
112779,8.133805172,128,-1.178467414,-16340,128,17.72540483,245771,0,0,22656.25,21504
113471,8.183713339,128,-1.186545037,-16452,128,-1.779529068,-24674,271,0.019544961,22675.78125,22144
114578,8.263551982,128,-1.144498127,-15869,128,-1.173130414,-16266,67,0.004832149,22695.3125,22784
116239,8.383346007,128,-1.066318281,-14785,128,-1.147022384,-15904,17395,1.254555733,22714.84375,23424
117306,8.460299785,128,-1.06047643,-14704,128,17.83863578,247341,16782,1.210345174,22734.375,24064
116929,8.433109931,128,-1.056653983,-14651,128,-1.181640766,-16384,16511,1.190800213,22753.90625,24704
114634,8.267590793,128,-1.130867139,-15680,128,17.72922727,245824,16376,1.181063793,22773.4375,25344
112132,8.087142478,128,-1.19822874,-16614,128,-2.072559246,-28737,16367,1.180414698,22792.96875,25984
111548,8.045023447,128,-1.226861027,-17011,128,16.83470271,233421,16316,1.176736495,22812.5,26624
111272,8.025117877,128,-1.235731987,-17134,128,-2.215720679,-30722,31,0.00223577,22832.03125,27264
111257,8.024036053,128,-1.220370081,-16921,128,16.76705262,232483,192,0.013847353,22851.5625,27904
110938,8.001029253,128,-1.255565435,-17409,128,-2.146339672,-29760,3,2.16E-04,22871.09375,28544
111021,8.007015348,128,-1.250516921,-17339,128,16.83830879,233471,8,5.77E-04,22890.625,29184
110782,7.989778279,128,-1.264147909,-17528,128,-2.294044768,-31808,63,0.004543663,22910.15625,29824
110774,7.989201306,128,-1.256791503,-17426,128,16.54325921,229380,16382,1.181496523,22929.6875,30464
111011,8.006294132,128,-1.254050881,-17388,128,-2.224519518,-30844,1,7.21E-05,22949.21875,31104
111213,8.020862701,128,-1.238112001,-17167,128,16.60780807,230275,96,0.006923676,22968.75,31744
110813,7.99201405,128,-1.261479409,-17491,128,-2.289501105,-31745,15,0.001081824,22988.28125,32384
111165,8.017400863,128,-1.244891434,-17261,128,16.55213017,229503,120,0.008654595,23007.8125,33024
110977,8.003841997,128,-1.252392084,-17365,128,-2.138334172,-29649,16353,1.179404995,23027.34375,33664
111079,8.011198403,128,-1.265734585,-17550,128,-2.290438687,-31758,255,0.018391015,23046.875,34304
111827,8.065145381,128,-1.239121704,-17181,128,16.68858429,231395,152,0.010962488,23066.40625,34944
112235,8.094571006,128,-1.212653066,-16814,128,16.81010924,233080,16376,1.181063793,23085.9375,35584
111301,8.027209404,128,-1.239698677,-17189,128,16.79676673,232895,124,0.008943082,23105.46875,36224
110663,7.981195805,128,-1.279581938,-17742,128,-2.14179601,-29697,16353,1.179404995,23125,36864
110398,7.962083574,128,-1.281745587,-17772,128,-2.095566046,-29056,67,0.004832149,23144.53125,37504
110362,7.959487195,128,-1.281745587,-17772,128,-2.361622734,-32745,283,0.020410421,23164.0625,38144
110563,7.973983642,128,-1.283837114,-17801,128,16.83657787,233447,16,0.001153946,23183.59375,38784
109813,7.919892421,128,-1.27482191,-17676,128,-2.183193825,-30271,241,0.017381313,23203.125,39424
113236,8.166764756,128,-1.169524332,-16216,128,-1.163249751,-16129,7,5.05E-04,23222.65625,40064
114905,8.287135754,128,-1.349395674,-18710,128,16.80145464,232960,7164,0.516679349,23242.1875,40704
107884,7.780769799,128,-1.339082281,-18567,128,-2.326427379,-32257,495,0.035700206,23261.71875,41344
111264,8.024540904,128,-1.313046373,-18206,128,-2.104869736,-29185,63,0.004543663,23281.25,41984
111274,8.02526212,128,-1.294583237,-17950,128,16.55912597,229600,226,0.016299488,23300.78125,42624
111397,8.034133081,128,-1.290616547,-17895,128,-2.08381022,-28893,255,0.018391015,23320.3125,43264
111739,8.058798678,128,-1.263498815,-17519,128,-2.28971747,-31748,63,0.004543663,23339.84375,43904
111826,8.065073259,128,-1.25664726,-17424,128,-2.069025286,-28688,243,0.017525556,23359.375,44544
112088,8.083969126,128,-1.261190922,-17487,128,-2.321883717,-32194,31,0.00223577,23378.90625,45184
112746,8.131425158,128,-1.23320773,-17099,128,-2.122034683,-29423,3,2.16E-04,23398.4375,45824
113634,8.195469164,128,-1.213590647,-16827,128,-2.067943462,-28673,1,7.21E-05,23417.96875,46464
114636,8.267735036,128,-1.215321567,-16851,128,17.11561645,237316,448,0.03231049,23437.5,47104
116504,8.402458239,128,-1.125962868,-15612,128,17.79731009,246768,16896,1.21856704,23457.03125,47744
117209,8.453303987,128,-1.096681487,-15206,128,17.83755396,247326,16888,1.217990067,23476.5625,48384
114821,8.281077538,128,-1.198589349,-16619,128,17.72547695,245772,1660,0.119721904,23496.09375,49024
112843,8.138420956,128,-1.250877529,-17344,128,16.77267811,232561,16012,1.15481152,23515.625,49664
111574,8.046898609,128,-1.279581938,-17742,128,16.73128029,231987,496,0.035772328,23535.15625,50304
111217,8.021151188,128,-1.301146305,-18041,128,17.00591946,235795,16254,1.172264954,23554.6875,50944
111218,8.021223309,128,-1.285712276,-17827,128,16.61444326,230367,126,0.009087325,23574.21875,51584
110943,8.001389861,128,-1.301002061,-18039,128,-2.138911145,-29657,381,0.027478341,23593.75,52224
111013,8.006438375,128,-1.301218426,-18042,128,16.55934233,229603,432,0.031156544,23613.28125,52864
110999,8.005428672,128,-1.314560928,-18227,128,16.98608601,235520,496,0.035772328,23632.8125,53504
110958,8.002471686,128,-1.316724577,-18257,128,-2.346044462,-32529,487,0.035123233,23652.34375,54144
110667,7.981484292,128,-1.307637251,-18131,128,-2.360613031,-32731,1,7.21E-05,23671.875,54784
110819,7.992446779,128,-1.32307128,-18345,128,-2.354626936,-32648,253,0.018246772,23691.40625,55424
111122,8.014299633,128,-1.304391778,-18086,128,-2.068448313,-28680,3,2.16E-04,23710.9375,56064
110810,7.991797685,128,-1.347159904,-18679,128,16.55162532,229496,16352,1.179332874,23730.46875,56704
111021,8.007015348,128,-1.311964549,-18191,128,-2.359747572,-32719,391,0.028199557,23750,57344
110935,8.000812888,128,-1.321773091,-18327,128,16.54499013,229404,394,0.028415922,23769.53125,57984
111098,8.012568714,128,-1.318094888,-18276,128,16.70654258,231644,510,0.036782031,23789.0625,58624
111821,8.064712651,128,-1.303886927,-18079,128,-2.354626936,-32648,135,0.00973642,23808.59375,59264
