Device,Device,Device,Device,Device,Device,Device,Device,Device,Device,Device,Device
ECG Vx-RL,ECG Vx-RL,ECG LA-RA,ECG LA-RA,ExG2 CH1,ExG2 CH1,EXG1 Status,ECG LL-RA,ECG LL-RA,Timestamp,Timestamp,EXG2 Status
RAW,CAL,RAW,CAL,RAW,CAL,RAW,CAL,RAW,CAL,RAW,RAW
No Units,mV,No Units,mV,No Units,mV,No Units,mV,No Units,mSecs,No Units,No Units
17344,1.250877529,49381,3.561438151,788,0.056831843,128,7.045129185,97684,58.59375,1920,128
1871,0.134939567,48739,3.515136065,31228,2.252214223,128,6.890861021,95545,78.125,2560,128
1008,0.072698602,47824,3.449144775,24704,1.781692717,128,6.716903653,93133,97.65625,3200,128
15647,1.128487125,47259,3.408396054,24583,1.772966,128,6.648027497,92178,117.1875,3840,128
14112,1.017780425,46871,3.380412862,24576,1.772461149,128,6.597542357,91478,136.71875,4480,128
13949,1.0060246,46662,3.365339442,24666,1.778952095,128,6.551456636,90839,156.25,5120,128
15903,1.146950262,46533,3.356035752,24576,1.772461149,128,6.555856056,90900,175.78125,5760,128
15872,1.144714492,46648,3.364329739,24607,1.774696919,128,6.543811744,90733,195.3125,6400,128
15600,1.125097409,46726,3.369955226,24590,1.773470852,128,6.543306892,90726,214.84375,7040,128
15872,1.144714492,46718,3.369378253,24640,1.777076933,128,6.536238973,90628,234.375,7680,128
16159,1.165413399,46880,3.381061957,24604,1.774480554,128,6.551312393,90837,253.90625,8320,128
15872,1.144714492,46837,3.377960727,24583,1.772966,128,6.542225068,90711,273.4375,8960,128
15969,1.15171029,46587,3.35993032,16382,1.181496523,128,6.528377715,90519,292.96875,9600,128
16369,1.180558941,46579,3.359353347,24703,1.781620596,128,6.50558728,90203,312.5,10240,128
16248,1.171832224,46562,3.358127279,24577,1.77253327,128,6.506524862,90216,332.03125,10880,128
16369,1.180558941,46671,3.365988537,16634,1.199671173,128,6.492677509,90024,351.5625,11520,128
15544,1.121058598,46543,3.356756968,16423,1.184453509,128,6.479190764,89837,371.09375,12160,128
16125,1.162961264,46671,3.365988537,16399,1.18272259,128,6.478397426,89826,390.625,12800,128
16383,1.181568644,46584,3.359713955,16480,1.188564442,128,6.459285195,89561,410.15625,13440,128
16352,1.179332874,46630,3.36303155,16391,1.182145617,128,6.457265789,89533,429.6875,14080,128
16259,1.172625562,46494,3.353223008,16394,1.182361982,128,6.454453046,89494,449.21875,14720,128
22,0.001586676,46554,3.357550306,8191,0.590748261,128,6.452145154,89462,468.75,15360,128
16128,1.163177629,46716,3.36923401,16583,1.19599297,128,6.449043924,89419,488.28125,16000,128
16368,1.18048682,46678,3.366493388,16432,1.185102604,128,6.437071733,89253,507.8125,16640,128
963,0.069453129,46524,3.355386657,16536,1.192603253,128,6.424883178,89084,527.34375,17280,128
16383,1.181568644,46535,3.356179995,16391,1.182145617,128,6.433105044,89198,546.875,17920,128
16320,1.177024982,46466,3.351203603,16416,1.183948658,128,6.415651609,88956,566.40625,18560,128
16131,1.163393994,46580,3.359425468,16639,1.200031781,128,6.418680718,88998,585.9375,19200,128
16124,1.162889142,46721,3.369594618,16509,1.190655969,128,6.432455949,89189,605.46875,19840,128
227,0.01637161,46723,3.369738861,16639,1.200031781,128,6.420195272,89019,625,20480,128
9,6.49E-04,46438,3.349184197,16391,1.182145617,128,6.398342418,88716,644.53125,21120,128
16320,1.177024982,46641,3.363824888,16416,1.183948658,128,6.414209177,88936,664.0625,21760,128
16379,1.181280158,46483,3.35242967,16509,1.190655969,128,6.399640608,88734,683.59375,22400,128
124,0.008943082,46734,3.370532199,16387,1.181857131,128,6.403463054,88787,703.125,23040,128
15361,1.10786034,46628,3.362887307,16577,1.19556024,128,6.388894485,88585,722.65625,23680,128
15998,1.153801817,46711,3.368873402,16414,1.183804415,128,6.423368624,89063,742.1875,24320,128
95,0.006851555,46786,3.374282524,16521,1.191521429,128,6.446014815,89377,761.71875,24960,128
2,1.44E-04,47227,3.406088162,16834,1.214095499,128,6.461448844,89591,781.25,25600,128
3,2.16E-04,47195,3.40378027,16392,1.182217739,128,6.414209177,88936,800.78125,26240,128
63,0.004543663,46681,3.366709753,8128,0.586204599,128,6.342303913,87939,820.3125,26880,128
15943,1.149835128,46494,3.353223008,16447,1.186184428,128,6.312373437,87524,839.84375,27520,128
16252,1.172120711,46490,3.352934522,16480,1.188564442,128,6.31518618,87563,859.375,28160,128
15423,1.112331881,46554,3.357550306,16510,1.190728091,128,6.30011276,87354,878.90625,28800,128
16128,1.163177629,47099,3.396856594,16510,1.190728091,128,6.368556186,88303,898.4375,29440,128
8110,0.584906409,53064,3.827062109,24591,1.773542973,128,6.790684079,94156,917.96875,30080,128
18176,1.310882725,51009,3.678852162,15233,1.098628771,128,7.007409573,97161,937.5,30720,128
1599,0.115322484,45541,3.284491096,7951,0.57343907,128,6.308550991,87471,957.03125,31360,128
483,0.034834747,46029,3.319686451,16476,1.188275956,128,6.285688434,87154,976.5625,32000,128
16351,1.179260752,46119,3.326177398,16387,1.181857131,128,6.284822975,87142,996.09375,32640,128
13375,0.964626785,46027,3.319542208,16395,1.182434104,128,6.273716244,86988,1015.625,33280,128
305,0.021997097,46000,3.317594924,16568,1.194911146,128,6.269605311,86931,1035.15625,33920,128
16383,1.181568644,45944,3.313556112,16446,1.186112307,128,6.257921607,86769,1054.6875,34560,128
16144,1.164331575,45844,3.30634395,16624,1.198949957,128,6.256046445,86743,1074.21875,35200,128
15,0.001081824,45899,3.310310639,16623,1.198877835,128,6.259580405,86792,1093.75,35840,128
15992,1.153369087,45801,3.30324272,16608,1.197796011,128,6.255036742,86729,1113.28125,36480,128
16008,1.154523033,45646,3.292063867,8188,0.590531896,128,6.256479175,86749,1132.8125,37120,128
15999,1.153873939,45753,3.299780881,16608,1.197796011,128,6.274148974,86994,1152.34375,37760,128
12801,0.92322897,45728,3.297977841,16664,1.201834822,128,6.325499573,87706,1171.875,38400,128
15358,1.107643975,45528,3.283553515,16527,1.191954159,128,6.357016725,88143,1191.40625,39040,128
998,0.071977386,46001,3.317667045,16384,1.181640766,128,6.406924892,88835,1210.9375,39680,128
247,0.017814042,46376,3.344712656,16384,1.181640766,128,6.438153558,89268,1230.46875,40320,128
1791,0.129169837,46749,3.371614024,16455,1.186761402,128,6.430220178,89158,1250,40960,128
1792,0.129241959,46826,3.377167389,16895,1.218494918,128,6.341005724,87921,1269.53125,41600,128
16352,1.179332874,46729,3.370171591,16412,1.183660171,128,6.272273811,86968,1289.0625,42240,128
16128,1.163177629,46195,3.331658641,16387,1.181857131,128,6.177505991,85654,1308.59375,42880,128
15366,1.108220948,46076,3.323076167,16512,1.190872334,128,6.141012447,85148,1328.125,43520,128
13184,0.950851554,45686,3.294948732,16511,1.190800213,128,6.104302538,84639,1347.65625,44160,128
641,0.046229964,45572,3.286726867,16448,1.18625655,128,6.092041861,84469,1367.1875,44800,128
15423,1.112331881,45359,3.27136496,16496,1.189718388,128,6.097595226,84546,1386.71875,45440,128
243,0.017525556,45284,3.265955837,16487,1.189069294,128,6.079492698,84295,1406.25,46080,128
12348,0.890557872,45109,3.253334552,16480,1.188564442,128,6.062904723,84065,1425.78125,46720,128
15503,1.118101611,45240,3.262782486,16447,1.186184428,128,6.061101682,84040,1445.3125,47360,128
14463,1.043095117,45103,3.252901823,16384,1.181640766,128,6.065501102,84101,1464.84375,48000,128
16348,1.179044387,45000,3.245473295,16703,1.204647565,128,6.045162802,83819,1484.375,48640,128
16368,1.18048682,44694,3.223404077,16511,1.190800213,128,6.040763383,83758,1503.90625,49280,128
15887,1.145796316,44686,3.222827103,16639,1.200031781,128,6.026843909,83565,1523.4375,49920,128
15884,1.145579951,44549,3.21294644,16638,1.19995966,128,6.002034068,83221,1542.96875,50560,128
16376,1.181063793,44408,3.202777291,16384,1.181640766,128,6.006505609,83283,1562.5,51200,128
16256,1.172409197,44383,3.20097425,16639,1.200031781,128,5.972536322,82812,1582.03125,51840,128
15734,1.134761707,44406,3.202633047,16447,1.186184428,128,5.96669447,82731,1601.5625,52480,128
16257,1.172481319,44376,3.200469399,16856,1.215682175,128,5.947582239,82466,1621.09375,53120,128
15364,1.108076705,44178,3.186189316,16503,1.19022324,128,5.944913738,82429,1640.625,53760,128
15935,1.149258155,44127,3.182511113,16655,1.201185727,128,5.932076088,82251,1660.15625,54400,128
15377,1.109014286,44383,3.20097425,16499,1.189934753,128,5.922916642,82124,1679.6875,55040,128
15487,1.116947665,44143,3.183665059,16640,1.200103903,128,5.929263345,82212,1699.21875,55680,128
15359,1.107716096,44158,3.184746883,477,0.034402017,128,5.910078992,81946,1718.75,56320,128
15872,1.144714492,44194,3.187343262,16415,1.183876536,128,5.909357775,81936,1738.28125,56960,128
15887,1.145796316,43959,3.170394679,99,0.007140041,128,5.902289856,81838,1757.8125,57600,128
16368,1.18048682,44131,3.1827996,511,0.036854152,128,5.888875233,81652,1777.34375,58240,128
15999,1.153873939,44158,3.184746883,508,0.036637787,128,5.916353573,82033,1796.875,58880,128
15391,1.110023988,43946,3.169457098,272,0.019617083,128,5.877119407,81489,1816.40625,59520,128
15898,1.146589654,44025,3.175154707,774,0.055822141,128,5.883610354,81579,1835.9375,60160,128
14462,1.043022995,43679,3.150200623,4,2.88E-04,128,5.8617575,81276,1855.46875,60800,128
14607,1.053480632,43823,3.160586138,123,0.00887096,128,5.879571543,81523,1875,61440,128
16152,1.164908548,43903,3.166355868,47,0.003389717,128,5.875821218,81471,1894.53125,62080,128
15920,1.14817633,44081,3.179193518,575,0.041469937,128,5.889452206,81660,1914.0625,62720,128
15360,1.107788218,44529,3.211504008,16440,1.185679577,128,5.959265942,82628,1933.59375,63360,128
16319,1.17695286,44878,3.236674456,17407,1.255421192,128,5.998716473,83175,1953.125,64000,128
12316,0.88824998,45703,3.2961748,17184,1.239338069,128,6.042061572,83776,1972.65625,64640,128
14856,1.071438917,45473,3.279586825,16384,1.181640766,128,5.99503827,83124,1992.1875,65280,128
15439,1.113485827,45131,3.254921228,16399,1.18272259,128,5.919454803,82076,2011.71875,384,128
14401,1.038623576,45113,3.253623039,16443,1.185895942,128,5.921041479,82098,2031.25,1024,128
14435,1.041075711,45131,3.254921228,959,0.069164642,128,5.903443802,81854,2050.78125,1664,128
16383,1.181568644,45334,3.269561919,16385,1.181712887,128,5.91620933,82031,2070.3125,2304,128
16148,1.164620061,45844,3.30634395,16511,1.190800213,128,5.952125901,82529,2089.84375,2944,128
16832,1.213951256,52360,3.776288483,20472,1.476473984,128,6.83720253,94801,2109.375,3584,128
1925,0.138834135,44074,3.178688667,13234,0.954457635,128,6.113606228,84768,2128.90625,4224,128
15299,1.103388799,44410,3.202921534,16880,1.217413094,128,5.949529523,82493,2148.4375,4864,128
15887,1.145796316,44801,3.231121091,16632,1.19952693,128,5.940586441,82369,2167.96875,5504,128
16220,1.169812819,44629,3.218716171,16384,1.181640766,128,5.918805709,82067,2187.5,6144,128
16071,1.159066696,44905,3.23862174,16483,1.188780807,128,5.929551831,82216,2207.03125,6784,128
16192,1.167793413,44874,3.23638597,16774,1.209768201,128,5.936187021,82308,2226.5625,7424,128
16257,1.172481319,45043,3.248574525,16620,1.19866147,128,5.930489413,82229,2246.09375,8064,128
16344,1.178755901,45070,3.250521809,16639,1.200031781,128,5.937773697,82330,2265.625,8704,128
16129,1.163249751,44798,3.230904726,16447,1.186184428,128,5.922123304,82113,2285.15625,9344,128
16135,1.16368248,45009,3.24612239,16880,1.217413094,128,5.94851982,82479,2304.6875,9984,128
14360,1.035666589,45136,3.255281836,16770,1.209479715,128,5.967776295,82746,2324.21875,10624,128
12512,0.902385819,45233,3.262277634,16399,1.18272259,128,6.005568028,83270,2343.75,11264,128
12290,0.886374818,45378,3.272735271,16864,1.216259148,128,6.053601033,83936,2363.28125,11904,128
12924,0.93209993,45899,3.310310639,17399,1.254844219,128,6.148801583,85256,2382.8125,12544,128
15971,1.151854533,46187,3.331081668,17407,1.255421192,128,6.202315831,85998,2402.34375,13184,128
1472,0.106163038,46564,3.358271522,16832,1.213951256,128,6.219697144,86239,2421.875,13824,128
336,0.024232867,47216,3.405294824,16638,1.19995966,128,6.22351959,86292,2441.40625,14464,128
16255,1.172337076,46990,3.388995336,16464,1.187410496,128,6.126876608,84952,2460.9375,15104,128
921,0.06642402,46701,3.368152185,16403,1.183011077,128,6.055620439,83964,2480.46875,15744,128
247,0.017814042,46583,3.359641833,16880,1.217413094,128,6.018117192,83444,2500,16384,128
15489,1.117091908,46174,3.330144087,16386,1.181785009,128,5.981623647,82938,2519.53125,17024,128
14591,1.052326685,46045,3.320840397,16578,1.195632362,128,5.955371375,82574,2539.0625,17664,128
13215,0.953087324,45994,3.317162194,16588,1.196353578,128,5.958544726,82618,2558.59375,18304,128
12288,0.886230574,46024,3.319325843,16415,1.183876536,128,5.949673766,82495,2578.125,18944,128
14720,1.061630376,46003,3.317811289,16511,1.190800213,128,5.946428293,82450,2597.65625,19584,128
16268,1.173274657,45794,3.302737868,16508,1.190583848,128,5.950322861,82504,2617.1875,20224,128
16376,1.181063793,46002,3.317739167,16640,1.200103903,128,5.968209024,82752,2636.71875,20864,128
12943,0.933470241,45624,3.290477191,1008,0.072698602,128,5.955515618,82576,2656.25,21504,128
16256,1.172409197,45729,3.298049962,16509,1.190655969,128,5.961645956,82661,2675.78125,22144,128
13207,0.952510351,45566,3.286294137,16636,1.199815416,128,5.94231736,82393,2695.3125,22784,128
16127,1.163105507,45713,3.296896016,16487,1.189069294,128,5.950250739,82503,2714.84375,23424,128
12288,0.886230574,45581,3.287375961,16703,1.204647565,128,5.917651763,82051,2734.375,24064,128
14720,1.061630376,45532,3.283842001,16384,1.181640766,128,5.913180222,81989,2753.90625,24704,128
12795,0.92279624,45514,3.282543812,16387,1.181857131,128,5.913035978,81987,2773.4375,25344,128
12541,0.904477346,45218,3.26119581,510,0.036782031,128,5.886639462,81621,2792.96875,25984,128
15608,1.125674382,45288,3.266244324,439,0.031661395,128,5.893563139,81717,2812.5,26624,128
12531,0.90375613,45228,3.261917026,16,0.001153946,128,5.884259449,81588,2832.03125,27264,128
14564,1.050379401,45253,3.263720067,513,0.036998396,128,5.878417597,81507,2851.5625,27904,128
16382,1.181496523,45069,3.250449687,15,0.001081824,128,5.872070893,81419,2871.09375,28544,128
14364,1.035955076,45268,3.264801891,316,0.022790435,128,5.860603554,81260,2890.625,29184,128
16255,1.172337076,45221,3.261412175,255,0.018391015,128,5.858512027,81231,2910.15625,29824,128
16383,1.181568644,45143,3.255786688,455,0.032815341,128,5.850578648,81121,2929.6875,30464,128
16135,1.16368248,44884,3.237107186,247,0.017814042,128,5.849857432,81111,2949.21875,31104,128
15879,1.145219343,44365,3.199676061,239,0.017237069,128,5.832908849,80876,2968.75,31744,128
15886,1.145724195,43658,3.148686069,79,0.005697609,128,5.830528835,80843,2988.28125,32384,128
8544,0.616207196,43133,3.110822214,11,7.93E-04,128,5.832403997,80869,3007.8125,33024,128
15887,1.145796316,43208,3.116231336,125,0.009015204,128,5.814517834,80621,3027.34375,33664,128
15481,1.116514935,43056,3.105268849,454,0.032743219,128,5.8077384,80527,3046.875,34304,128
10128,0.730447856,42909,3.094666969,0,0,128,5.7997329,80416,3066.40625,34944,128
13118,0.946091526,42856,3.090844523,505,0.036421423,128,5.788842534,80265,3085.9375,35584,128
12799,0.923084727,42953,3.097840321,304,0.021924975,128,5.837452511,80939,3105.46875,36224,128
14335,1.033863549,42780,3.085363279,510,0.036782031,128,5.83161066,80858,3125,36864,128
15360,1.107788218,43491,3.136641757,415,0.029930476,128,5.859089,81239,3144.53125,37504,128
14331,1.033575062,42875,3.092214834,32,0.002307892,128,5.762806626,79904,3164.0625,38144,128
12415,0.895390021,42635,3.074905643,414,0.029858354,128,5.704027498,79089,3183.59375,38784,128
8428,0.607841087,42476,3.063438304,239,0.017237069,128,5.680804334,78767,3203.125,39424,128
10208,0.736217587,42416,3.059111006,383,0.027622584,128,5.666668495,78571,3222.65625,40064,128
12302,0.887240277,42557,3.069280156,516,0.03721476,128,5.664216359,78537,3242.1875,40704,128
12160,0.876999006,43794,3.158494611,384,0.027694705,128,5.788409804,80259,3261.71875,41344,128
17342,1.250733286,49011,3.534753148,18464,1.331653754,128,6.599417519,91504,3281.25,41984,128
7943,0.572862097,40719,2.936720602,13311,0.960011001,128,5.68239101,78789,3300.78125,42624,128
8321,0.600124073,41802,3.014828326,510,0.036782031,128,5.665298184,78552,3320.3125,43264,128
9731,0.70181557,42031,3.031344179,482,0.034762625,128,5.647556263,78306,3339.84375,43904,128
12671,0.913853158,42086,3.035310869,31,0.00223577,128,5.632410721,78096,3359.375,44544,128
9744,0.702753151,42101,3.036392693,1,7.21E-05,128,5.636233167,78149,3378.90625,45184,128
12519,0.902890671,42213,3.044470316,240,0.017309191,128,5.630391315,78068,3398.4375,45824,128
10209,0.736289708,41966,3.026656273,240,0.017309191,128,5.628155545,78037,3417.96875,46464,128
8199,0.591325234,42054,3.033002977,176,0.012693407,128,5.625919774,78006,3437.5,47104,128
12320,0.888538467,42061,3.033507828,32,0.002307892,128,5.633636789,78113,3457.03125,47744,128
10045,0.724461761,42037,3.031776909,195,0.014063718,128,5.626857355,78019,3476.5625,48384,128
9218,0.664817174,42106,3.036753301,64,0.004615784,128,5.668615779,78598,3496.09375,49024,128
9843,0.709893192,42082,3.035022382,255,0.018391015,128,5.698834741,79017,3515.625,49664,128
13342,0.962246771,42173,3.04158545,448,0.03231049,128,5.758046598,79838,3535.15625,50304,128
8223,0.593056153,42488,3.064303763,12,8.65E-04,128,5.819926956,80696,3554.6875,50944,128
9201,0.663591106,42899,3.093945753,60,0.004327298,128,5.856925351,81209,3574.21875,51584,128
12279,0.88558148,43421,3.131593243,769,0.055461533,128,5.864065393,81308,3593.75,52224,128
16128,1.163177629,43878,3.164552827,70,0.005048514,128,5.839255552,80964,3613.28125,52864,128
15376,1.108942164,43881,3.164769192,0,0,128,5.750690192,79736,3632.8125,53504,128
15352,1.107211245,43609,3.145152109,345,0.024881962,128,5.674746117,78683,3652.34375,54144,128
15487,1.116947665,43341,3.125823513,120,0.008654595,128,5.622313693,77956,3671.875,54784,128
11331,0.817210176,43207,3.116159215,1018,0.073419818,128,5.611783935,77810,3691.40625,55424,128
11797,0.850818855,43029,3.103321565,992,0.071544656,128,5.610485746,77792,3710.9375,56064,128
9215,0.664600809,43014,3.10223974,767,0.055317289,128,5.601182056,77663,3730.46875,56704,128
10239,0.738453357,42971,3.09913851,961,0.069308885,128,5.608249975,77761,3750,57344,128
10215,0.736722438,42916,3.095171821,752,0.054235465,128,5.593320798,77554,3769.53125,57984,128
14273,1.029392008,42945,3.097263348,1015,0.073203453,128,5.601759029,77671,3789.0625,58624,128
10316,0.744006722,43025,3.103033078,1010,0.072842845,128,5.607961489,77757,3808.59375,59264,128
16263,1.172914049,43158,3.112625255,903,0.065125831,128,5.605148745,77718,3828.125,59904,128
14383,1.037325387,43119,3.109812511,991,0.071472534,128,5.601182056,77663,3847.65625,60544,128
11519,0.830769042,43202,3.115798606,516,0.03721476,128,5.582502554,77404,3867.1875,61184,128
12225,0.881686912,43465,3.134766595,588,0.042407518,128,5.582214067,77400,3886.71875,61824,128
10311,0.743646114,43259,3.119909539,1,7.21E-05,128,5.556178159,77039,3906.25,62464,128
14336,1.03393567,43176,3.113923444,31,0.00223577,128,5.545071428,76885,3925.78125,63104,128
11328,0.816993811,43333,3.12524654,13,9.38E-04,128,5.541537469,76836,3945.3125,63744,128
16120,1.162600656,43219,3.117024674,908,0.065486439,128,5.521343413,76556,3964.84375,64384,128
11384,0.821032622,43318,3.124164715,1023,0.073780426,128,5.514347615,76459,3984.375,65024,128
8193,0.590892505,43265,3.120342269,904,0.065197952,128,5.502663911,76297,4003.90625,128,128
10295,0.742492168,43575,3.142699974,62,0.004471541,128,5.510525168,76406,4023.4375,768,128
8760,0.631785468,43580,3.143060582,487,0.035123233,128,5.489609896,76116,4042.96875,1408,128
14576,1.051244861,43728,3.153734583,176,0.012693407,128,5.496245086,76208,4062.5,2048,128
8704,0.627746657,43672,3.149695772,0,0,128,5.481460152,76003,4082.03125,2688,128
10748,0.775163266,43341,3.125823513,0,0,128,5.465737637,75785,4101.5625,3328,128
14846,1.070717701,43575,3.142699974,1,7.21E-05,128,5.463862474,75759,4121.09375,3968,128
9119,0.657677133,43551,3.140969055,898,0.064765223,128,5.456001217,75650,4140.625,4608,128
8704,0.627746657,43556,3.141329663,231,0.016660096,128,5.440711432,75438,4160.15625,5248,128
12223,0.881542669,43446,3.133396284,511,0.036854152,128,5.42736893,75253,4179.6875,5888,128
14896,1.074323782,43556,3.141329663,528,0.03808022,128,5.429748944,75286,4199.21875,6528,128
14339,1.034152035,43407,3.13058354,127,0.009159447,128,5.412007023,75040,4218.75,7168,128
9144,0.659480174,43576,3.142772096,255,0.018391015,128,5.409338523,75003,4238.28125,7808,128
14367,1.036171441,43449,3.133612649,63,0.004543663,128,5.384528683,74659,4257.8125,8448,128
8193,0.590892505,43607,3.145007866,3,2.16E-04,128,5.391668724,74758,4277.34375,9088,128
8304,0.598898005,43533,3.139670865,31,0.00223577,128,5.428450755,75268,4296.875,9728,128
14368,1.036243562,43689,3.15092184,792,0.05712033,128,5.45304423,75609,4316.40625,10368,128
11871,0.856155855,43734,3.154167313,831,0.059933074,128,5.455496365,75643,4335.9375,11008,128
11263,0.812305905,43825,3.160730381,574,0.041397815,128,5.407463361,74977,4355.46875,11648,128
14365,1.036027197,43029,3.103321565,256,0.018463137,128,5.335846583,73984,4375,12288,128
9166,0.661066849,42913,3.094955456,398,0.028704408,128,5.29408816,73405,4394.53125,12928,128
9163,0.660850484,42826,3.088680874,3,2.16E-04,128,5.280673537,73219,4414.0625,13568,128
12480,0.900077927,42693,3.079088697,441,0.031805638,128,5.28168324,73233,4433.59375,14208,128
8624,0.621976927,43318,3.124164715,0,0,128,5.317671933,73732,4453.125,14848,128
16323,1.177241347,48970,3.531796161,4194,0.302478111,128,5.702945674,79074,4472.65625,15488,128
9187,0.662581404,42723,3.081252346,14908,1.075189242,128,5.506342114,76348,4492.1875,16128,128
8223,0.593056153,41533,2.995427608,63,0.004543663,128,5.255863697,72875,4511.71875,16768,128
8511,0.613827183,41692,3.006894947,63,0.004543663,128,5.245117574,72726,4531.25,17408,128
8228,0.593416762,41709,3.008121015,7,5.05E-04,128,5.253267318,72839,4550.78125,18048,128
8703,0.627674535,41639,3.003072501,8,5.77E-04,128,5.245694547,72734,4570.3125,18688,128
8239,0.594210099,41519,2.994417905,14,0.001009703,128,5.244540601,72718,4589.84375,19328,128
8640,0.623130873,41338,2.98136389,385,0.027766827,128,5.2338666,72570,4609.375,19968,128
112,0.008077622,41331,2.980859039,992,0.071544656,128,5.242016344,72683,4628.90625,20608,128
12288,0.886230574,41344,2.98179662,35,0.002524257,128,5.25067094,72803,4648.4375,21248,128
12288,0.886230574,41264,2.97602689,127,0.009159447,128,5.25110367,72809,4667.96875,21888,128
97,0.006995798,41155,2.968165632,200,0.014424326,128,5.258099468,72906,4687.5,22528,128
3,2.16E-04,41444,2.989008783,510,0.036782031,128,5.326615015,73856,4707.03125,23168,128
12319,0.888466345,41212,2.972276565,487,0.035123233,128,5.341327827,74060,4726.5625,23808,128
8688,0.626592711,41420,2.987277864,3,2.16E-04,128,5.411285807,75030,4746.09375,24448,128
9219,0.664889296,42023,3.030767206,7,5.05E-04,128,5.479296503,75973,4765.625,25088,128
15626,1.126972571,42330,3.052908546,3,2.16E-04,128,5.492999612,76163,4785.15625,25728,128
14340,1.034224157,43109,3.109091295,461,0.033248071,128,5.489105044,76109,4804.6875,26368,128
14336,1.03393567,43093,3.107937349,0,0,128,5.4189307,75136,4824.21875,27008,128
12543,0.90462159,42719,3.08096386,449,0.032382611,128,5.299208796,73476,4843.75,27648,128
9119,0.657677133,42781,3.085435401,479,0.03454626,128,5.277211699,73171,4863.28125,28288,128
735,0.053009397,42503,3.065385588,41,0.002956987,128,5.234876303,72584,4882.8125,28928,128
9641,0.695324623,42409,3.058606155,504,0.036349301,128,5.226365951,72466,4902.34375,29568,128
1407,0.101475132,42319,3.052115208,249,0.017958286,128,5.219514396,72371,4921.875,30208,128
9470,0.682991825,42392,3.057380087,768,0.055389411,128,5.206604625,72192,4941.40625,30848,128
1144,0.082507143,42232,3.045840626,547,0.039450531,128,5.20992222,72238,4960.9375,31488,128
2040,0.147128123,42512,3.066034683,207,0.014929177,128,5.221533802,72399,4980.46875,32128,128
10236,0.738236992,42393,3.057452209,671,0.048393613,128,5.220379856,72383,5000,32768,128
9825,0.708595003,42657,3.076492319,959,0.069164642,128,5.230549005,72524,5019.53125,33408,128
1988,0.143377798,42708,3.080170522,767,0.055317289,128,5.222471383,72412,5039.0625,34048,128
2047,0.147632974,42903,3.094234239,784,0.056543357,128,5.222543505,72413,5058.59375,34688,128
8446,0.609139277,42706,3.080026278,125,0.009015204,128,5.212734963,72277,5078.125,35328,128
2040,0.147128123,42680,3.078151116,32,0.002307892,128,5.205378557,72175,5097.65625,35968,128
8960,0.646209794,42771,3.084714184,62,0.004471541,128,5.192468785,71996,5117.1875,36608,128
10176,0.733909694,42763,3.084137211,240,0.017309191,128,5.183597825,71873,5136.71875,37248,128
8692,0.626881197,42941,3.096974861,257,0.018535259,128,5.191026353,71976,5156.25,37888,128
10224,0.737371533,42736,3.082189927,6,4.33E-04,128,5.170688053,71694,5175.78125,38528,128
10192,0.73506364,42766,3.084353576,97,0.006995798,128,5.182083271,71852,5195.3125,39168,128
1552,0.111932768,42704,3.079882035,760,0.054812438,128,5.150710362,71417,5214.84375,39808,128
9743,0.702681029,42509,3.065818318,903,0.065125831,128,5.154027957,71463,5234.375,40448,128
10209,0.736289708,42851,3.090483915,961,0.069308885,128,5.165711661,71625,5253.90625,41088,128
252,0.01817465,42744,3.0827669,960,0.069236764,128,5.167226215,71646,5273.4375,41728,128
9728,0.701599205,42631,3.074617156,766,0.055245168,128,5.144003051,71324,5292.96875,42368,128
10180,0.734198181,42628,3.074400791,911,0.065702804,128,5.164990445,71615,5312.5,43008,128
1919,0.138401406,42778,3.085219036,995,0.071761021,128,5.144507902,71331,5332.03125,43648,128
8960,0.646209794,42757,3.083704482,576,0.041542058,128,5.137800591,71238,5351.5625,44288,128
9856,0.710830773,42663,3.076925048,0,0,128,5.120202913,70994,5371.09375,44928,128
9089,0.655513484,42885,3.09293605,384,0.027694705,128,5.123808995,71044,5390.625,45568,128
912,0.065774925,42641,3.075338373,11,7.93E-04,128,5.11962594,70986,5410.15625,46208,128
10238,0.738381235,42734,3.082045684,192,0.013847353,128,5.124169603,71049,5429.6875,46848,128
218,0.015722515,42714,3.080603252,927,0.06685675,128,5.164413472,71607,5449.21875,47488,128
8323,0.600268316,42630,3.074545035,254,0.018318894,128,5.186843298,71918,5468.75,48128,128
14342,1.0343684,43206,3.116087093,24,0.001730919,128,5.210138584,72241,5488.28125,48768,128
1022,0.073708305,42546,3.068486818,31,0.00223577,128,5.074766287,70364,5507.8125,49408,128
9275,0.668928107,42298,3.050600654,60,0.004327298,128,5.052552826,70056,5527.34375,50048,128
9343,0.673832378,42354,3.054639465,7,5.05E-04,128,5.036325459,69831,5546.875,50688,128
8323,0.600268316,42371,3.055865533,0,0,128,5.037551527,69848,5566.40625,51328,128
8447,0.609211398,42479,3.063654669,63,0.004543663,128,5.03106058,69758,5585.9375,51968,128
16382,1.181496523,47050,3.393322634,899,0.064837344,128,5.385105656,74667,5605.46875,52608,128
14356,1.035378103,47637,3.43565803,256,0.018463137,128,5.931354872,82241,5625,53248,128
4046,0.29180411,40771,2.940470927,4384,0.316181221,128,5.001707077,69351,5644.53125,53888,128
8192,0.590820383,42000,3.029108409,98,0.00706792,128,5.047504312,69986,5664.0625,54528,128
1536,0.110778822,42081,3.034950261,912,0.065774925,128,5.00004828,69328,5683.59375,55168,128
9986,0.720206585,42274,3.048869735,799,0.057625181,128,4.989302157,69179,5703.125,55808,128
497,0.03584445,42341,3.053701884,103,0.007428528,128,4.972137209,68941,5722.65625,56448,128
8783,0.633444266,42591,3.071732291,240,0.017309191,128,4.981873629,69076,5742.1875,57088,128
9832,0.709099854,42600,3.072381386,129,0.00930369,128,4.979782102,69047,5761.71875,57728,128
1,7.21E-05,42627,3.07432867,15,0.001081824,128,4.967593547,68878,5781.25,58368,128
1543,0.111283673,42669,3.077357778,12,8.65E-04,128,4.968675371,68893,5800.78125,59008,128
9744,0.702753151,42679,3.078078995,32,0.002307892,128,4.973723885,68963,5820.3125,59648,128
10238,0.738381235,42686,3.078583846,639,0.046085721,128,4.993917941,69243,5839.84375,60288,128
1932,0.139338987,42797,3.086589347,0,0,128,5.032935742,69784,5859.375,60928,128
48,0.003461838,43106,3.10887493,37,0.0026685,128,5.099071276,70701,5878.90625,61568,128
8320,0.600051951,43145,3.111687674,466,0.033608679,128,5.129722968,71126,5898.4375,62208,128
8407,0.606326533,43735,3.154239435,272,0.019617083,128,5.18958392,71956,5917.96875,62848,128
8703,0.627674535,43999,3.173279545,120,0.008654595,128,5.178332946,71800,5937.5,63488,128
15919,1.148104208,44653,3.22044709,512,0.036926274,128,5.134771482,71196,5957.03125,64128,128
8239,0.594210099,44203,3.187992357,486,0.035051112,128,5.057457096,70124,5976.5625,64768,128
11264,0.812378027,44040,3.176236531,819,0.059067614,128,5.012092592,69495,5996.09375,65408,128
2304,0.166168233,43856,3.162966152,224,0.016155245,128,4.96463656,68837,6015.625,512,128
10304,0.743141263,43588,3.143637555,416,0.030002598,128,4.932109705,68386,6035.15625,1152,128
10291,0.742203682,43635,3.147027272,640,0.046157842,128,4.924536934,68281,6054.6875,1792,128
14,0.001009703,43294,3.122433796,23,0.001658797,128,4.917324772,68181,6074.21875,2432,128
8440,0.608706547,43163,3.112985863,1,7.21E-05,128,4.917901745,68189,6093.75,3072,128
4095,0.29533807,43231,3.117890134,240,0.017309191,128,4.926195732,68304,6113.28125,3712,128
3994,0.288053785,43363,3.127410189,536,0.038657193,128,4.926051489,68302,6132.8125,4352,128
10767,0.776533577,43563,3.141834514,1023,0.073780426,128,4.931316368,68375,6152.34375,4992,128
8687,0.626520589,43371,3.127987162,607,0.043777829,128,4.926628462,68310,6171.875,5632,128
8287,0.597671938,43348,3.126328364,0,0,128,4.913502325,68128,6191.40625,6272,128
8192,0.590820383,43064,3.105845822,511,0.036854152,128,4.871743902,67549,6210.9375,6912,128
8448,0.60928352,43272,3.12084712,779,0.056182749,128,4.85659836,67339,6230.46875,7552,128
2160,0.155782718,43124,3.110173119,518,0.037359004,128,4.837630372,67076,6250,8192,128
8192,0.590820383,43008,3.10180701,240,0.017309191,128,4.816570856,66784,6269.53125,8832,128
1799,0.12974681,42871,3.091926347,241,0.017381313,128,4.816642978,66785,6289.0625,9472,128
3099,0.223504928,43162,3.112913741,127,0.009159447,128,4.823999384,66887,6308.59375,10112,128
9197,0.66330262,42861,3.091205131,127,0.009159447,128,4.807699896,66661,6328.125,10752,128
30,0.002163649,42968,3.098922145,194,0.013991596,128,4.810368396,66698,6347.65625,11392,128
993,0.071616777,42825,3.088608752,127,0.009159447,128,4.807988382,66665,6367.1875,12032,128
2044,0.147416609,42929,3.096109402,24,0.001730919,128,4.801713801,66578,6386.71875,12672,128
903,0.065125831,42773,3.084858428,990,0.071400412,128,4.792770719,66454,6406.25,13312,128
1847,0.133208648,42854,3.09070028,896,0.064620979,128,4.793780421,66468,6425.78125,13952,128
9972,0.719196882,42755,3.083560238,247,0.017814042,128,4.780365799,66282,6445.3125,14592,128
940,0.067794331,42668,3.077285657,768,0.055389411,128,4.782168839,66307,6464.84375,15232,128
514,0.037070517,42578,3.07079471,248,0.017886164,128,4.779860947,66275,6484.375,15872,128
9728,0.701599205,42533,3.067549237,560,0.040388112,128,4.767095419,66098,6503.90625,16512,128
8951,0.645560699,42676,3.07786263,519,0.037431125,128,4.763922067,66054,6523.4375,17152,128
9987,0.720278707,42762,3.08406509,248,0.017886164,128,4.774523947,66201,6542.96875,17792,128
1789,0.129025594,42685,3.078511724,63,0.004543663,128,4.758657188,65981,6562.5,18432,128
8447,0.609211398,42924,3.095748794,536,0.038657193,128,4.769836041,66136,6582.03125,19072,128
1919,0.138401406,42865,3.091493617,240,0.017309191,128,4.761469932,66020,6601.5625,19712,128
2022,0.145829933,42894,3.093585145,13,9.38E-04,128,4.747983187,65833,6621.09375,20352,128
8247,0.594787073,43060,3.105557335,12,8.65E-04,128,4.814046599,66749,6640.625,20992,128
8655,0.624212697,42955,3.097984564,24,0.001730919,128,4.811378099,66712,6660.15625,21632,128
9118,0.657605011,43678,3.150128502,295,0.02127588,128,4.82161937,66854,6679.6875,22272,128
3,2.16E-04,43011,3.102023375,2,1.44E-04,128,4.748055309,65834,6699.21875,22912,128
1920,0.138473527,42734,3.082045684,32767,2.36320941,128,4.697137439,65128,6718.75,23552,128
255,0.018391015,42673,3.077646265,32710,2.359098477,128,4.701032007,65182,6738.28125,24192,128
0,0,42673,3.077646265,0,0,128,4.701032007,65182,6757.8125,24832,128
766,0.055245168,42799,3.08673359,32702,2.358521504,128,4.696416223,65118,6777.34375,25472,128
988,0.071256169,43597,3.14428665,32575,2.349362057,128,4.795583462,66493,6796.875,26112,128
15,0.001081824,50004,3.606369925,12,8.65E-04,128,5.627867058,78033,6816.40625,26752,128
7688,0.554471082,41436,2.98843181,6396,0.461289938,128,4.742213457,65753,6835.9375,27392,128
1152,0.083084116,42191,3.04288364,240,0.017309191,128,4.713364805,65353,6855.46875,28032,128
16,0.001153946,42310,3.051466114,32225,2.324119487,128,4.689420425,65021,6875,28672,128
1848,0.13328077,42284,3.049590951,32647,2.354554815,128,4.699156845,65156,6894.53125,29312,128
2039,0.147056001,42284,3.049590951,32513,2.344890516,128,4.694036209,65085,6914.0625,29952,128
460,0.033175949,42354,3.054639465,32704,2.358665747,128,4.696271979,65116,6933.59375,30592,128
2024,0.145974177,42174,3.041657572,32260,2.326643744,128,4.687977992,65001,6953.125,31232,128
1255,0.090512644,42261,3.047932154,31902,2.300824201,128,4.69187256,65055,6972.65625,31872,128
74,0.005337001,41903,3.022112611,32257,2.326427379,128,4.687040411,64988,6992.1875,32512,128
1539,0.110995187,42207,3.044037586,32575,2.349362057,128,4.713509049,65355,7011.71875,33152,128
127,0.009159447,42018,3.030406598,32694,2.357944531,128,4.727212158,65545,7031.25,33792,128
2041,0.147200244,42044,3.03228176,255,0.018391015,128,4.75166139,65884,7050.78125,34432,128
2,1.44E-04,41990,3.028387192,3,2.16E-04,128,4.801785922,66579,7070.3125,35072,128
0,0,42352,3.054495222,200,0.014424326,128,4.86943601,67517,7089.84375,35712,128
8641,0.623202994,42539,3.067981966,193,0.013919474,128,4.910401095,68085,7109.375,36352,128
8702,0.627602414,43260,3.119981661,1007,0.07262648,128,4.934778206,68423,7128.90625,36992,128
8696,0.627169684,43556,3.141329663,640,0.046157842,128,4.900159824,67943,7148.4375,37632,128
8317,0.599835587,43536,3.13988723,229,0.016515853,128,4.806401707,66643,7167.96875,38272,128
3615,0.260719688,43138,3.111182822,39,0.002812744,128,4.738679497,65704,7187.5,38912,128
2147,0.154845137,42878,3.092431199,32444,2.339914124,128,4.673048815,64794,7207.03125,39552,128
2047,0.147632974,42934,3.09647001,31839,2.296280539,128,4.670668801,64761,7226.5625,40192,128
1648,0.118856444,42613,3.073318967,30780,2.219903734,128,4.642685609,64373,7246.09375,40832,128
476,0.034329895,42424,3.059687979,30735,2.21665826,128,4.634247379,64256,7265.625,41472,128
79,0.005697609,42256,3.047571546,30720,2.215576436,128,4.624510959,64121,7285.15625,42112,128
1327,0.095705401,42391,3.057307965,30751,2.217812206,128,4.633237676,64242,7304.6875,42752,128
384,0.027694705,42190,3.042811518,30744,2.217307355,128,4.618020012,64031,7324.21875,43392,128
2043,0.147344488,42501,3.065241345,30854,2.225240734,128,4.635257081,64270,7343.75,44032,128
449,0.032382611,42368,3.055649168,30727,2.216081287,128,4.617154553,64019,7363.28125,44672,128
765,0.055173046,42717,3.080819616,30988,2.234905033,128,4.636266784,64284,7382.8125,45312,128
1537,0.110850943,42733,3.081973562,30753,2.21795645,128,4.615135147,63991,7402.34375,45952,128
1646,0.118712201,42696,3.079305062,31075,2.241179614,128,4.602081132,63810,7421.875,46592,128
1569,0.113158836,42856,3.090844523,30735,2.21665826,128,4.587945293,63614,7441.40625,47232,128
1855,0.133785621,42681,3.078223238,30788,2.220480707,128,4.57186217,63391,7460.9375,47872,128
1760,0.126934067,42629,3.074472913,28735,2.072415003,128,4.555851168,63169,7480.46875,48512,128
1806,0.130251662,42543,3.068270453,28927,2.086262356,128,4.567606994,63332,7500,49152,128
2040,0.147128123,42764,3.084209333,28799,2.077030787,128,4.559240885,63216,7519.53125,49792,128
880,0.063467033,42471,3.063077696,28687,2.068953165,128,4.545537775,63026,7539.0625,50432,128
6,4.33E-04,42534,3.067621358,28926,2.086190234,128,4.53601772,62894,7558.59375,51072,128
511,0.036854152,42308,3.05132187,28675,2.068087705,128,4.525920692,62754,7578.125,51712,128
1511,0.108975781,42338,3.053485519,28832,2.079410801,128,4.536378328,62899,7597.65625,52352,128
112,0.008077622,42382,3.056658871,28684,2.0687368,128,4.53601772,62894,7617.1875,52992,128
7,5.05E-04,42349,3.054278857,28672,2.06787134,128,4.539695923,62945,7636.71875,53632,128
2015,0.145325082,42362,3.055216438,28673,2.067943462,128,4.531978909,62838,7656.25,54272,128
1020,0.073564061,42349,3.054278857,28675,2.068087705,128,4.548566884,63068,7675.78125,54912,128
1920,0.138473527,42402,3.058101303,28696,2.069602259,128,4.524694625,62737,7695.3125,55552,128
487,0.035123233,42376,3.056226141,28799,2.077030787,128,4.519862475,62670,7714.84375,56192,128
499,0.035988693,42645,3.075626859,29118,2.100037587,128,4.55282206,63127,7734.375,56832,128
1,7.21E-05,42609,3.073030481,28697,2.069674381,128,4.534503166,62873,7753.90625,57472,128
993,0.071616777,42716,3.080747495,28675,2.068087705,128,4.548206275,63063,7773.4375,58112,128
1539,0.110995187,42663,3.076925048,29181,2.104581249,128,4.547340816,63051,7792.96875,58752,128
895,0.064548858,42908,3.094594848,29447,2.123765603,128,4.587873171,63613,7812.5,59392,128
259,0.018679502,42868,3.091709982,31215,2.251276642,128,4.627972797,64169,7832.03125,60032,128
1006,0.072554359,43128,3.110461606,31104,2.243271141,128,4.65646084,64564,7851.5625,60672,128
483,0.034834747,43427,3.132025973,31079,2.241468101,128,4.641603785,64358,7871.09375,61312,128
384,0.027694705,42734,3.082045684,28927,2.086262356,128,4.534575288,62874,7890.625,61952,128
1921,0.138545649,42867,3.091637861,29175,2.10414852,128,4.529454652,62803,7910.15625,62592,128
1023,0.073780426,42536,3.067765602,28735,2.072415003,128,4.531041328,62825,7929.6875,63232,128
992,0.071544656,42804,3.087094198,28803,2.077319274,128,4.53645045,62900,7949.21875,63872,128
0,0,43615,3.145584839,28849,2.080636869,128,4.602730227,63819,7968.75,64512,128
14082,1.015616776,49832,3.593965005,992,0.071544656,128,5.133040563,71172,7988.28125,65152,128
4056,0.292525326,45016,3.246627241,4559,0.328802506,128,5.124602333,71055,8007.8125,256,128
7734,0.557788677,41856,3.018722894,28734,2.072342881,128,4.572367021,63398,8027.34375,896,128
384,0.027694705,42408,3.058534033,30840,2.224231031,128,4.587728928,63611,8046.875,1536,128
1248,0.090007793,42513,3.066106804,29055,2.095493924,128,4.567390629,63329,8066.40625,2176,128
1072,0.077314386,42444,3.061130412,28928,2.086334477,128,4.557365722,63190,8085.9375,2816,128
1989,0.14344992,42523,3.06682802,28919,2.085685383,128,4.566669412,63319,8105.46875,3456,128
508,0.036637787,42514,3.066178926,29056,2.095566046,128,4.575468251,63441,8125,4096,128
1,7.21E-05,42299,3.050672776,28920,2.085757504,128,4.565299102,63300,8144.53125,4736,128
255,0.018391015,42404,3.058245547,29136,2.101335776,128,4.567606994,63332,8164.0625,5376,128
414,0.029858354,42426,3.059832222,28897,2.084098707,128,4.572006413,63393,8183.59375,6016,128
295,0.02127588,42324,3.052475816,29087,2.097801816,128,4.597970199,63753,8203.125,6656,128
1262,0.091017496,42376,3.056226141,31231,2.252430588,128,4.623429134,64106,8222.65625,7296,128
480,0.034618382,42573,3.070434102,31864,2.298083579,128,4.682352505,64923,8242.1875,7936,128
1536,0.110778822,42620,3.073823818,32740,2.361262126,128,4.737525551,65688,8261.71875,8576,128
1008,0.072698602,42833,3.089185725,1,7.21E-05,128,4.783034299,66319,8281.25,9216,128
8291,0.597960424,43306,3.123299256,1,7.21E-05,128,4.804021693,66610,8300.78125,9856,128
3907,0.281779204,43586,3.143493312,497,0.03584445,128,4.783467029,66325,8320.3125,10496,128
3601,0.259709985,43687,3.150777596,255,0.018391015,128,4.715167846,65378,8339.84375,11136,128
127,0.009159447,43367,3.127698675,30783,2.220120099,128,4.620183661,64061,8359.375,11776,128
12,8.65E-04,42854,3.09070028,28720,2.071333178,128,4.538181369,62924,8378.90625,12416,128
264,0.01904011,42634,3.074833521,28771,2.075011382,128,4.512145461,62563,8398.4375,13056,128
247,0.017814042,42504,3.065457709,29152,2.102489722,128,4.491013824,62270,8417.96875,13696,128
1563,0.112726106,42450,3.061563142,28989,2.090733897,128,4.499091446,62382,8437.5,14336,128
63,0.004543663,42303,3.050961262,28702,2.070034989,128,4.488128959,62230,8457.03125,14976,128
2047,0.147632974,42179,3.04201818,28927,2.086262356,128,4.474642214,62043,8476.5625,15616,128
457,0.032959584,42313,3.051682478,29183,2.104725493,128,4.495341122,62330,8496.09375,16256,128
131,0.009447933,42269,3.048509127,28679,2.068376192,128,4.513804259,62586,8515.625,16896,128
1250,0.090152036,42159,3.040575748,28687,2.068953165,128,4.500678122,62404,8535.15625,17536,128
1807,0.130323783,42014,3.030118111,29031,2.093763005,128,4.484018026,62173,8554.6875,18176,128
1008,0.072698602,41895,3.021535638,28919,2.085685383,128,4.466131862,61925,8574.21875,18816,128
30,0.002163649,41778,3.013097407,29171,2.103860033,128,4.455818469,61782,8593.75,19456,128
256,0.018463137,41809,3.015333177,29159,2.102994573,128,4.456251199,61788,8613.28125,20096,128
254,0.018318894,41662,3.004731298,28721,2.0714053,128,4.442764454,61601,8632.8125,20736,128
640,0.046157842,41666,3.005019785,24960,1.800155854,128,4.433605007,61474,8652.34375,21376,128
119,0.008582474,41461,2.990234851,24775,1.786813353,128,4.408506681,61126,8671.875,22016,128
504,0.036349301,41636,3.002856136,25568,1.844005805,128,4.41644006,61236,8691.40625,22656,128
480,0.034618382,41268,2.976315376,24700,1.781404231,128,4.399491477,61001,8710.9375,23296,128
59,0.004255176,41338,2.98136389,25104,1.810541369,128,4.398121166,60982,8730.46875,23936,128
128,0.009231568,41169,2.969175335,24583,1.772966,128,4.387086557,60829,8750,24576,128
2,1.44E-04,41266,2.976171133,25063,1.807584382,128,4.392423557,60903,8769.53125,25216,128
0,0,41279,2.977108714,24582,1.772893879,128,4.383119867,60774,8789.0625,25856,128
57,0.004110933,41067,2.961818929,24961,1.800227976,128,4.375835583,60673,8808.59375,26496,128
3,2.16E-04,41105,2.964559551,24829,1.790707921,128,4.359031243,60440,8828.125,27136,128
7,5.05E-04,41199,2.971338984,24688,1.780538771,128,4.363070054,60496,8847.65625,27776,128
67,0.004832149,41141,2.967155929,25025,1.80484376,128,4.343885701,60230,8867.1875,28416,128
1,7.21E-05,41034,2.959438915,24705,1.781764839,128,4.340423863,60182,8886.71875,29056,128
4089,0.29490534,40916,2.950928563,24707,1.781909082,128,4.326432267,59988,8906.25,29696,128
4088,0.294833218,41011,2.957780118,24697,1.781187866,128,4.333932916,60092,8925.78125,30336,128
8144,0.587358545,40912,2.950640076,25088,1.809387423,128,4.325855294,59980,8945.3125,30976,128
7986,0.575963327,40883,2.948548549,25055,1.807007409,128,4.331264416,60055,8964.84375,31616,128
3,2.16E-04,40991,2.956337685,25597,1.846097332,128,4.356795473,60409,8984.375,32256,128
4095,0.29533807,40956,2.953813428,24639,1.777004811,128,4.368551298,60572,9003.90625,32896,128
126,0.009087325,41163,2.968742605,25079,1.808738328,128,4.34648208,60266,9023.4375,33536,128
4094,0.295265948,40536,2.923522344,24588,1.773326608,128,4.242338448,58822,9042.96875,34176,128
3644,0.262811215,40394,2.913281073,24627,1.776139352,128,4.213417675,58421,9062.5,34816,128
3596,0.259349377,40616,2.929292074,25087,1.809315301,128,4.209378863,58365,9082.03125,35456,128
3523,0.254084498,40526,2.922801128,25200,1.817465045,128,4.186732672,58051,9101.5625,36096,128
4095,0.29533807,40549,2.924459925,25280,1.823234775,128,4.186516307,58048,9121.09375,36736,128
1264,0.091161739,46162,3.329278628,27678,1.996182441,128,4.612755133,63958,9140.625,37376,128
243,0.017525556,45207,3.260402472,1728,0.124626175,128,4.994639158,69253,9160.15625,38016,128
4223,0.304569638,39178,2.825581172,14822,1.068986782,128,4.18175628,57982,9179.6875,38656,128
7939,0.572573611,39843,2.873542055,25539,1.841914277,128,4.181251428,57975,9199.21875,39296,128
3071,0.221485522,39895,2.87729238,24584,1.773038122,128,4.160768886,57691,9218.75,39936,128
3719,0.268220337,39864,2.87505661,25087,1.809315301,128,4.152691263,57579,9238.28125,40576,128
1913,0.137968676,40059,2.889120327,24576,1.772461149,128,4.164591332,57744,9257.8125,41216,128
1,7.21E-05,39848,2.873902663,24803,1.788832759,128,4.152474898,57576,9277.34375,41856,128
191,0.013775231,39867,2.875272974,24591,1.773542973,128,4.145839709,57484,9296.875,42496,128
6919,0.499009549,39759,2.867483838,24582,1.772893879,128,4.133002059,57306,9316.40625,43136,128
3044,0.219538238,39588,2.85515104,17295,1.24734357,128,4.127448693,57229,9335.9375,43776,128
8064,0.581588814,39544,2.851977688,17281,1.246333867,128,4.130189315,57267,9355.46875,44416,128
2055,0.148209947,39800,2.870440825,17392,1.254339368,128,4.140430586,57409,9375,45056,128
65439,4.719567265,39606,2.856449229,24591,1.773542973,128,4.165673156,57759,9394.53125,45696,128
3727,0.26879731,39679,2.861714108,25479,1.83758698,128,4.223370459,58559,9414.0625,46336,128
3073,0.221629765,40247,2.902679193,25585,1.845231872,128,4.273134383,59249,9433.59375,46976,128
4095,0.29533807,40661,2.932537548,24832,1.790924286,128,4.315614023,59838,9453.125,47616,128
8166,0.588945221,40814,2.943572157,24579,1.772677514,128,4.297439372,59586,9472.65625,48256,128
63,0.004543663,41495,2.992686986,25401,1.831961493,128,4.248108178,58902,9492.1875,48896,128
96,0.006923676,41023,2.958645577,24639,1.777004811,128,4.155287642,57615,9511.71875,49536,128
4081,0.294328367,40801,2.942634576,16625,1.199022078,128,4.090810906,56721,9531.25,50176,128
65535,4.726490942,40389,2.912920465,16880,1.217413094,128,4.033690576,55929,9550.78125,50816,128
2044,0.147416609,40429,2.91580533,16396,1.182506225,128,4.002822519,55501,9570.3125,51456,128
7179,0.517761173,40221,2.900804031,16888,1.217990067,128,3.991499423,55344,9589.84375,52096,128
3327,0.239948659,40126,2.893952476,17155,1.237246542,128,3.973252651,55091,9609.375,52736,128
2047,0.147632974,39969,2.882629381,17183,1.239265947,128,3.967482921,55011,9628.90625,53376,128
241,0.017381313,39921,2.879167542,16385,1.181712887,128,3.952337379,54801,9648.4375,54016,128
131,0.009447933,40004,2.885153638,16632,1.19952693,128,3.962073798,54936,9667.96875,54656,128
2353,0.169702193,39863,2.874984488,16753,1.208253647,128,3.951760406,54793,9687.5,55296,128
2336,0.168476125,39717,2.86445473,16643,1.200320268,128,3.938634269,54611,9707.03125,55936,128
2048,0.147705096,39604,2.856304986,16638,1.19995966,128,3.930340282,54496,9726.5625,56576,128
124,0.008943082,39544,2.851977688,16448,1.18625655,128,3.920243254,54356,9746.09375,57216,128
31,0.00223577,39621,2.857531054,16844,1.214816715,128,3.897020089,54034,9765.625,57856,128
910,0.065630682,39580,2.854574067,16512,1.190872334,128,3.887139426,53897,9785.15625,58496,128
287,0.020698907,39515,2.849886161,16418,1.184092901,128,3.872859344,53699,9804.6875,59136,128
4087,0.294761097,39494,2.848371607,16824,1.213374283,128,3.84083734,53255,9824.21875,59776,128
2144,0.154628772,39529,2.850895864,16876,1.217124607,128,3.832038502,53133,9843.75,60416,128
743,0.05358637,39886,2.876643285,17279,1.246189624,128,3.845381003,53318,9863.28125,61056,128
126,0.009087325,39644,2.859189851,17245,1.243737488,128,3.827999691,53077,9882.8125,61696,128
63712,4.595013213,39686,2.86221896,16416,1.183948658,128,3.796698904,52643,9902.34375,62336,128
254,0.018318894,39588,2.85515104,16888,1.217990067,128,3.793597674,52600,9921.875,62976,128
1020,0.073564061,39581,2.854646189,16447,1.186184428,128,3.780327294,52416,9941.40625,63616,128
64511,4.652638394,39653,2.859838946,16448,1.18625655,128,3.771672698,52296,9960.9375,64256,128
64,0.004615784,39544,2.851977688,16416,1.183948658,128,3.756455035,52085,9980.46875,64896,128
3836,0.276658568,39554,2.852698905,17006,1.226500419,128,3.751118034,52011,10000,0,128
65140,4.698002898,39653,2.859838946,17095,1.232919244,128,3.739290087,51847,10019.53125,640,128
992,0.071544656,39578,2.854429824,16835,1.21416762,128,3.71815845,51554,10039.0625,1280,128
65036,4.690502249,39564,2.853420121,16680,1.202988768,128,3.713975395,51496,10058.59375,1920,128
1016,0.073275575,39733,2.865608676,16703,1.204647565,128,3.708205665,51416,10078.125,2560,128
524,0.037791733,39628,2.858035905,16634,1.199671173,128,3.707195962,51402,10097.65625,3200,128
974,0.070246466,39768,2.868132933,16454,1.18668928,128,3.699334705,51293,10117.1875,3840,128
65532,4.726274577,39700,2.863228662,16785,1.210561539,128,3.687218271,51125,10136.71875,4480,128
64383,4.643406825,39798,2.870296582,16456,1.186833523,128,3.699190462,51291,10156.25,5120,128
3067,0.221197035,39880,2.876210556,16896,1.21856704,128,3.741958587,51884,10175.78125,5760,128
3196,0.230500726,40177,2.897630679,16896,1.21856704,128,3.740516155,51864,10195.3125,6400,128
1536,0.110778822,40373,2.911766519,16832,1.213951256,128,3.71505722,51511,10214.84375,7040,128
508,0.036637787,39925,2.879456029,16444,1.185968064,128,3.640122848,50472,10234.375,7680,128
497,0.03584445,39679,2.861714108,16384,1.181640766,128,3.621803954,50218,10253.90625,8320,128
255,0.018391015,39674,2.8613535,17406,1.25534907,128,3.613437845,50102,10273.4375,8960,128
828,0.059716709,39655,2.859983189,17399,1.254844219,128,3.613293602,50100,10292.96875,9600,128
63519,4.581093738,39933,2.880033002,17344,1.250877529,128,3.62209244,50222,10312.5,10240,128
115,0.008293987,43223,3.117313161,16507,1.190511726,128,3.875744209,53739,10332.03125,10880,128
8191,0.590748261,43144,3.111615552,29179,2.104437006,128,4.228418973,58629,10351.5625,11520,128
64127,4.624943689,37631,2.714009012,0,0,128,3.582137058,49668,10371.09375,12160,128
65039,4.690718614,39433,2.843972188,16511,1.190800213,128,3.611923291,50081,10390.625,12800,128
384,0.027694705,39205,2.827528456,16831,1.213879134,128,3.603124452,49959,10410.15625,13440,128
507,0.036565666,39240,2.830052713,16387,1.181857131,128,3.583435247,49686,10429.6875,14080,128
63873,4.606624795,39351,2.838058214,16888,1.217990067,128,3.614736034,50120,10449.21875,14720,128
63488,4.578857968,39428,2.843611579,16832,1.213951256,128,3.605071736,49986,10468.75,15360,128
63539,4.582536171,39488,2.847938877,16440,1.185679577,128,3.588772248,49760,10488.28125,16000,128
65535,4.726490942,39419,2.842962485,16767,1.20926335,128,3.608245088,50030,10507.8125,16640,128
525,0.037863855,39479,2.847289782,16835,1.21416762,128,3.596561384,49868,10527.34375,17280,128
65506,4.724399415,39306,2.834812741,16765,1.209119106,128,3.609326912,50045,10546.875,17920,128
64039,4.618596985,39389,2.840798836,16763,1.208974863,128,3.659162958,50736,10566.40625,18560,128
12,8.65E-04,39532,2.851112229,16892,1.218278553,128,3.680799446,51036,10585.9375,19200,128
3120,0.225019482,39328,2.836399416,16511,1.190800213,128,3.737342803,51820,10605.46875,19840,128
434,0.031300787,39858,2.87462388,17016,1.227221635,128,3.808094121,52801,10625,20480,128
1033,0.074501643,40139,2.894890057,17167,1.238112001,128,3.827422718,53069,10644.53125,21120,128
3968,0.286178623,40883,2.948548549,17280,1.246261745,128,3.83773611,53212,10664.0625,21760,128
238,0.017164948,41164,2.968814727,16391,1.182145617,128,3.78811643,52524,10683.59375,22400,128
63900,4.608572079,40906,2.950207347,16864,1.216259148,128,3.68584796,51106,10703.125,23040,128
63,0.004543663,40381,2.912343492,16399,1.18272259,128,3.621010616,50207,10722.65625,23680,128
0,0,40238,2.902030099,16399,1.18272259,128,3.590503167,49784,10742.1875,24320,128
65055,4.69187256,40126,2.893952476,16504,1.190295361,128,3.553649015,49273,10761.71875,24960,128
2163,0.155999083,39926,2.879528151,376,0.027117732,128,3.532805864,48984,10781.25,25600,128
18,0.001298189,39734,2.865680798,16384,1.181640766,128,3.52422339,48865,10800.78125,26240,128
1022,0.073708305,39814,2.871450528,255,0.018391015,128,3.526098552,48891,10820.3125,26880,128
64400,4.644632893,39774,2.868565663,15,0.001081824,128,3.523069444,48849,10839.84375,27520,128
960,0.069236764,39896,2.877364502,768,0.055389411,128,3.528478566,48924,10859.375,28160,128
64527,4.65379234,40074,2.890202152,799,0.057625181,128,3.54102773,49098,10878.90625,28800,128
81,0.005841852,40021,2.886379705,866,0.062457331,128,3.531219188,48962,10898.4375,29440,128
65155,4.699084723,40067,2.8896973,910,0.065630682,128,3.536700432,49038,10917.96875,30080,128
65152,4.698868358,40075,2.890274273,516,0.03721476,128,3.516362133,48756,10937.5,30720,128
2051,0.147921461,39879,2.876138434,6,4.33E-04,128,3.501360834,48548,10957.03125,31360,128
65025,4.689708911,40099,2.892005192,482,0.034762625,128,3.510376037,48673,10976.5625,32000,128
1151,0.083011995,40022,2.886451827,514,0.037070517,128,3.509871186,48666,10996.09375,32640,128
3327,0.239948659,39864,2.87505661,0,0,128,3.487946211,48362,11015.625,33280,128
65024,4.68963679,39946,2.880970583,62,0.004471541,128,3.479003129,48238,11035.15625,33920,128
1023,0.073780426,39686,2.86221896,30,0.002163649,128,3.467607912,48080,11054.6875,34560,128
64448,4.648094731,39686,2.86221896,1,7.21E-05,128,3.473161277,48157,11074.21875,35200,128
65533,4.726346699,39889,2.87685965,127,0.009159447,128,3.480229197,48255,11093.75,35840,128
65343,4.712643589,39844,2.873614177,31,0.00223577,128,3.47727221,48214,11113.28125,36480,128
65280,4.708099926,39747,2.866618379,796,0.057408817,128,3.45866483,47956,11132.8125,37120,128
65272,4.707522953,39713,2.864166244,995,0.071761021,128,3.454626018,47900,11152.34375,37760,128
385,0.027766827,39699,2.863156541,899,0.064837344,128,3.454553897,47899,11171.875,38400,128
65040,4.690790736,39596,2.855728013,915,0.06599129,128,3.442437463,47731,11191.40625,39040,128
65287,4.708604778,39702,2.863372906,911,0.065702804,128,3.444456869,47759,11210.9375,39680,128
3,2.16E-04,39979,2.883350597,607,0.043777829,128,3.440995031,47711,11230.46875,40320,128
895,0.064548858,39795,2.870080217,830,0.059860952,128,3.442076855,47726,11250,40960,128
65055,4.69187256,40031,2.887100922,880,0.063467033,128,3.441355639,47716,11269.53125,41600,128
65535,4.726490942,39999,2.884793029,832,0.060005195,128,3.453472072,47884,11289.0625,42240,128
64448,4.648094731,39876,2.875922069,4,2.88E-04,128,3.472512182,48148,11308.59375,42880,128
65281,4.708172048,40010,2.885586367,14,0.001009703,128,3.48881167,48374,11328.125,43520,128
63,0.004543663,40556,2.924964777,611,0.044066315,128,3.515136065,48739,11347.65625,44160,128
65408,4.717331495,40124,2.893808233,384,0.027694705,128,3.420512488,47427,11367.1875,44800,128
65478,4.722380009,39942,2.880682097,768,0.055389411,128,3.379331038,46856,11386.71875,45440,128
65508,4.724543658,39845,2.873686299,540,0.03894568,128,3.366637631,46680,11406.25,46080,128
992,0.071544656,39808,2.871017798,534,0.03851295,128,3.366349145,46676,11425.78125,46720,128
64632,4.661365111,40003,2.885081516,967,0.069741615,128,3.384379552,46926,11445.3125,47360,128
65475,4.722163644,41730,3.009635569,121,0.008726717,128,3.534536783,49008,11464.84375,48000,128
4607,0.332264344,47039,3.392529296,24703,1.781620596,128,4.190987848,58110,11484.375,48640,128
65151,4.698796236,37626,2.713648404,832,0.060005195,128,3.362887307,46628,11503.90625,49280,128
63519,4.581093738,39029,2.814835049,1015,0.073203453,128,3.394115972,47061,11523.4375,49920,128
63502,4.579867671,39208,2.827744821,751,0.054163343,128,3.377167389,46826,11542.96875,50560,128
63613,4.587873171,39149,2.823489645,24,0.001730919,128,3.361516996,46609,11562.5,51200,128
64900,4.680693708,39349,2.837913971,64,0.004615784,128,3.355891509,46531,11582.03125,51840,128
65281,4.708172048,39226,2.82904301,511,0.036854152,128,3.342693251,46348,11601.5625,52480,128
63488,4.578857968,39184,2.826013902,239,0.017237069,128,3.335985939,46255,11621.09375,53120,128
63991,4.615135147,39274,2.832504849,15,0.001081824,128,3.332307736,46204,11640.625,53760,128
224,0.016155245,39082,2.818657496,103,0.007428528,128,3.330793182,46183,11660.15625,54400,128
63499,4.579651306,39115,2.82103751,19,0.001370311,128,3.336562912,46263,11679.6875,55040,128
63488,4.578857968,39298,2.834235768,511,0.036854152,128,3.351924819,46476,11699.21875,55680,128
65018,4.68920406,39298,2.834235768,481,0.034690503,128,3.378826187,46849,11718.75,56320,128
65534,4.72641882,39398,2.841447931,495,0.035700206,128,3.432917408,47599,11738.28125,56960,128
64393,4.644128042,39563,2.853347999,1022,0.073708305,128,3.469194587,48102,11757.8125,57600,128
64516,4.652999002,40232,2.901597369,896,0.064620979,128,3.548816866,49206,11777.34375,58240,128
65283,4.708316291,40558,2.92510902,16409,1.183443807,128,3.564755746,49427,11796.875,58880,128
16,0.001153946,41052,2.960737105,16384,1.181640766,128,3.530209485,48948,11816.40625,59520,128
65026,4.689781033,40978,2.955400104,1020,0.073564061,128,3.46133333,47993,11835.9375,60160,128
65535,4.726490942,40893,2.949269766,967,0.069741615,128,3.390221404,47007,11855.46875,60800,128
65535,4.726490942,40592,2.927561155,7,5.05E-04,128,3.331225912,46189,11875,61440,128
65472,4.721947279,40265,2.903977383,636,0.045869356,128,3.300574219,45764,11894.53125,62080,128
65415,4.717836346,40373,2.911766519,512,0.036926274,128,3.299420273,45748,11914.0625,62720,128
64527,4.65379234,40031,2.887100922,15,0.001081824,128,3.268840703,45324,11933.59375,63360,128
64519,4.653215367,40055,2.888831841,115,0.008293987,128,3.264441283,45263,11953.125,64000,128
8,5.77E-04,39688,2.862363203,3,2.16E-04,128,3.250593931,45071,11972.65625,64640,128
63556,4.583762238,39516,2.849958283,93,0.006707311,128,3.274682555,45405,11992.1875,65280,128
63751,4.597825956,39693,2.862723811,31,0.00223577,128,3.270211014,45343,12011.71875,384,128
65271,4.707450832,39669,2.860992892,294,0.021203759,128,3.270715865,45350,12031.25,1024,128
63743,4.597248983,39591,2.855367405,0,0,128,3.249872714,45061,12050.78125,1664,128
1011,0.072914967,39794,2.870008096,0,0,128,3.265234621,45274,12070.3125,2304,128
65164,4.699733818,39666,2.860776527,811,0.058490641,128,3.231481699,44806,12089.84375,2944,128
65251,4.706008399,39595,2.855655891,992,0.071544656,128,3.238261132,44900,12109.375,3584,128
65472,4.721947279,39759,2.867483838,568,0.040965085,128,3.227298644,44748,12128.90625,4224,128
963,0.069453129,39647,2.859406216,543,0.039162044,128,3.219076779,44634,12148.4375,4864,128
65027,4.689853154,39519,2.850174648,511,0.036854152,128,3.204436088,44431,12167.96875,5504,128
64510,4.652566272,39708,2.863805635,63,0.004543663,128,3.202705169,44407,12187.5,6144,128
65412,4.717619981,39684,2.862074716,415,0.029930476,128,3.196358466,44319,12207.03125,6784,128
64256,4.634247379,39704,2.863517149,61,0.004399419,128,3.184386275,44153,12226.5625,7424,128
64064,4.620400026,39620,2.857458932,256,0.018463137,128,3.194699668,44296,12246.09375,8064,128
65039,4.690718614,39785,2.869359001,1009,0.072770723,128,3.186982654,44189,12265.625,8704,128
65038,4.690646492,39580,2.854574067,504,0.036349301,128,3.162966152,43856,12285.15625,9344,128
63536,4.582319806,39731,2.865464433,0,0,128,3.175659558,44032,12304.6875,9984,128
64451,4.648311096,39643,2.85911773,831,0.059933074,128,3.160946746,43828,12324.21875,10624,128
65520,4.725409117,39729,2.86532019,895,0.064548858,128,3.163398881,43862,12343.75,11264,128
1016,0.073275575,39656,2.860055311,766,0.055245168,128,3.150416988,43682,12363.28125,11904,128
65535,4.726490942,39838,2.873181447,783,0.056471235,128,3.160441895,43821,12382.8125,12544,128
65435,4.719278779,39733,2.865608676,574,0.041397815,128,3.153229732,43721,12402.34375,13184,128
65534,4.72641882,39854,2.874335393,583,0.04204691,128,3.143709677,43589,12421.875,13824,128
65532,4.726274577,40025,2.886668192,511,0.036854152,128,3.138516919,43517,12441.40625,14464,128
64408,4.645209866,39824,2.872171744,0,0,128,3.135343568,43473,12460.9375,15104,128
64448,4.648094731,39872,2.875633583,55,0.00396669,128,3.133396284,43446,12480.46875,15744,128
64369,4.642397123,39777,2.868782028,224,0.016155245,128,3.113923444,43176,12500,16384,128
65280,4.708099926,40051,2.888543354,147,0.010601879,128,3.112625255,43158,12519.53125,17024,128
65023,4.689564668,40269,2.904265869,800,0.057697303,128,3.160009165,43815,12539.0625,17664,128
65475,4.722163644,40270,2.904337991,1001,0.07219375,128,3.174145004,44011,12558.59375,18304,128
65535,4.726490942,40653,2.931960575,31,0.00223577,128,3.192319655,44263,12578.125,18944,128
65472,4.721947279,40657,2.932249061,512,0.036926274,128,3.139526622,43531,12597.65625,19584,128
65491,4.72331759,40339,2.909314383,0,0,128,3.103249443,43028,12617.1875,20224,128
64707,4.666774233,40074,2.890202152,545,0.039306288,128,3.077502021,42671,12636.71875,20864,128
65152,4.698868358,40066,2.889625179,128,0.009231568,128,3.057163722,42389,12656.25,21504,128
65223,4.703988994,40143,2.895178544,783,0.056471235,128,3.072669872,42604,12675.78125,22144,128
65008,4.688482843,40278,2.904914964,487,0.035123233,128,3.063654669,42479,12695.3125,22784,128
64732,4.668577274,47325,3.413156082,16399,1.18272259,128,3.630170063,50334,12714.84375,23424,128
896,0.064620979,43916,3.167293449,56,0.004038811,128,3.673587283,50936,12734.375,24064,128
64639,4.661869962,38366,2.76701841,15936,1.149330276,128,3.041801815,42176,12753.90625,24704,128
63497,4.579507062,39673,2.861281378,252,0.01817465,128,3.046129113,42236,12773.4375,25344,128
65502,4.724110928,39824,2.872171744,12,8.65E-04,128,3.058534033,42408,12792.96875,25984,128
65343,4.712643589,39801,2.870512947,240,0.017309191,128,3.045335775,42225,12812.5,26624,128
64526,4.653720218,39950,2.88125907,224,0.016155245,128,3.03978241,42148,12832.03125,27264,128
65279,4.708027805,39671,2.861137135,232,0.016732218,128,3.058534033,42408,12851.5625,27904,128
64061,4.620183661,39533,2.85118435,76,0.005481244,128,3.033507828,42061,12871.09375,28544,128
65535,4.726490942,39563,2.853347999,144,0.010385515,128,3.036032085,42096,12890.625,29184,128
65024,4.68963679,39600,2.8560165,0,0,128,3.032930855,42053,12910.15625,29824,128
64510,4.652566272,39516,2.849958283,1,7.21E-05,128,3.057163722,42389,12929.6875,30464,128
65131,4.697353804,39659,2.860271676,519,0.037431125,128,3.075122008,42638,12949.21875,31104,128
63695,4.593787145,39583,2.854790432,246,0.017741921,128,3.118250742,43236,12968.75,31744,128
64496,4.65155657,39760,2.86755596,10,7.21E-04,128,3.192536019,44266,12988.28125,32384,128
64761,4.670668801,40139,2.894890057,964,0.06952525,128,3.240641146,44933,13007.8125,33024,128
65505,4.724327293,40653,2.931960575,496,0.035772328,128,3.273744973,45392,13027.34375,33664,128
65529,4.726058212,40953,2.953597063,960,0.069236764,128,3.246915727,45020,13046.875,34304,128
63743,4.597248983,41429,2.987926959,959,0.069164642,128,3.235304145,44859,13066.40625,34944,128
64773,4.671534261,41277,2.976964471,56,0.004038811,128,3.132530824,43434,13085.9375,35584,128
61504,4.435768656,41028,2.959006185,0,0,128,3.062717088,42466,13105.46875,36224,128
65049,4.69143983,40697,2.935133926,1017,0.073347696,128,3.025285962,41947,13125,36864,128
65524,4.725697604,40564,2.92554175,249,0.017958286,128,3.006822825,41691,13144.53125,37504,128
65504,4.724255171,40392,2.91313683,1,7.21E-05,128,2.99153304,41479,13164.0625,38144,128
65520,4.725409117,40294,2.90606891,511,0.036854152,128,2.987349986,41421,13183.59375,38784,128
65429,4.718846049,40415,2.914795627,513,0.036998396,128,3.001918555,41623,13203.125,39424,128
64768,4.671173653,40192,2.898712504,448,0.03231049,128,2.978118417,41293,13222.65625,40064,128
65023,4.689564668,40343,2.90960287,126,0.009087325,128,2.98799908,41430,13242.1875,40704,128
640,0.046157842,40608,2.928715101,512,0.036926274,128,2.997158527,41557,13261.71875,41344,128
65284,4.708388413,40764,2.939966075,576,0.041542058,128,2.995643973,41536,13281.25,41984,128
65500,4.723966685,40665,2.932826034,0,0,128,2.979055998,41306,13300.78125,42624,128
65335,4.712066616,40742,2.9383794,7,5.05E-04,128,2.976531741,41271,13320.3125,43264,128
65343,4.712643589,40807,2.943067305,967,0.069741615,128,2.949990982,40903,13339.84375,43904,128
65293,4.709037508,40777,2.940903657,1002,0.072265872,128,2.952515239,40938,13359.375,44544,128
65025,4.689708911,40633,2.930518142,231,0.016660096,128,2.926912061,40583,13378.90625,45184,128
781,0.056326992,40541,2.923882952,520,0.037503247,128,2.917752614,40456,13398.4375,45824,128
64919,4.682064018,40374,2.91183864,387,0.02791107,128,2.901525247,40231,13417.96875,46464,128
65424,4.718485441,40370,2.911550154,14,0.001009703,128,2.888831841,40055,13437.5,47104,128
64738,4.669010004,40430,2.915877451,0,0,128,2.896693098,40164,13457.03125,47744,128
0,0,-4194304,-302.5000361,512,0.036926274,1,2.923161736,40531,13476.5625,48384,0
65272,4.707522953,40241,2.902246464,3,2.16E-04,128,2.865248068,39728,13496.09375,49024,128
65475,4.722163644,40564,2.92554175,959,0.069164642,128,2.867700203,39762,13515.625,49664,128
65503,4.72418305,40333,2.908881653,60,0.004327298,128,2.851689202,39540,13535.15625,50304,128
65472,4.721947279,40325,2.90830468,248,0.017886164,128,2.856809837,39611,13554.6875,50944,128
65476,4.722235766,40141,2.895034301,31,0.00223577,128,2.845054012,39448,13574.21875,51584,128
65392,4.716177549,40258,2.903472531,113,0.008149744,128,2.863156541,39699,13593.75,52224,128
64527,4.65379234,39918,2.878951177,33,0.002380014,128,2.853924972,39571,13613.28125,52864,128
65528,4.72598609,39983,2.883639083,513,0.036998396,128,2.839717011,39374,13632.8125,53504,128
63488,4.578857968,39680,2.86178623,48,0.003461838,128,2.843827944,39431,13652.34375,54144,128
64388,4.643767434,39789,2.869647487,543,0.039162044,128,2.838202457,39353,13671.875,54784,128
65025,4.689708911,39388,2.840726714,511,0.036854152,128,2.815267779,39035,13691.40625,55424,128
65535,4.726490942,39538,2.851544959,97,0.006995798,128,2.868277176,39770,13710.9375,56064,128
65535,4.726490942,39649,2.859550459,59,0.004255176,128,2.901020396,40224,13730.46875,56704,128
65272,4.707522953,39991,2.884216056,0,0,128,2.923522344,40536,13750,57344,128
64528,4.653864462,39868,2.875345096,385,0.027766827,128,2.862002595,39683,13769.53125,57984,128
63488,4.578857968,39062,2.817215063,31,0.00223577,128,2.776826951,38502,13789.0625,58624,128
63488,4.578857968,39116,2.821109631,15,0.001081824,128,2.774951789,38476,13808.59375,59264,128
63999,4.61571212,39276,2.832649092,144,0.010385515,128,2.780000303,38546,13828.125,59904,128
64759,4.670524558,38899,2.805459238,386,0.027838949,128,2.748338908,38107,13847.65625,60544,128
63939,4.611384822,39641,2.858973486,540,0.03894568,128,2.779279087,38536,13867.1875,61184,128
65375,4.714951481,46190,3.331298033,2032,0.14655115,128,3.488090454,48364,13886.71875,61824,128
65528,4.72598609,39784,2.869286879,1472,0.106163038,128,3.151066083,43691,13906.25,62464,128
64896,4.680405221,38237,2.757714719,3,2.16E-04,128,2.785409425,38621,13925.78125,63104,128
65420,4.718196955,38546,2.780000303,575,0.041469937,128,2.749348611,38121,13945.3125,63744,128
65277,4.707883562,38581,2.78252456,12,8.65E-04,128,2.729443041,37845,13964.84375,64384,128
63487,4.578785846,38639,2.786707614,899,0.064837344,128,2.733698217,37904,13984.375,65024,128
65473,4.722019401,38513,2.777620289,1,7.21E-05,128,2.717975702,37686,14003.90625,128,128
63475,4.577920387,38418,2.770768734,240,0.017309191,128,2.709176863,37564,14023.4375,768,128
65127,4.697065317,38478,2.775096032,241,0.017381313,128,2.701892579,37463,14042.96875,1408,128
64767,4.671101531,38401,2.769542667,504,0.036349301,128,2.688982807,37284,14062.5,2048,128
65055,4.69187256,38226,2.756921382,463,0.033392314,128,2.688910686,37283,14082.03125,2688,128
65409,4.717403617,38379,2.767955991,511,0.036854152,128,2.704561079,37500,14101.5625,3328,128
63472,4.577704022,38464,2.774086329,117,0.008438231,128,2.714874472,37643,14121.09375,3968,128
62976,4.541931694,38473,2.774735424,3,2.16E-04,128,2.753531665,38179,14140.625,4608,128
63487,4.578785846,38586,2.782885168,830,0.059860952,128,2.815844752,39043,14160.15625,5248,128
65287,4.708604778,38823,2.799977994,15,0.001081824,128,2.8613535,39674,14179.6875,5888,128
63550,4.583329509,39400,2.841592174,1014,0.073131332,128,2.880249367,39936,14199.21875,6528,128
65487,4.723029104,39752,2.866978987,14,0.001009703,128,2.8843603,39993,14218.75,7168,128
63948,4.612033917,39934,2.880105124,252,0.01817465,128,2.778629992,38527,14238.28125,7808,128
64431,4.646868664,39557,2.852915269,193,0.013919474,128,2.708022917,37548,14257.8125,8448,128
64029,4.617875769,39173,2.825220564,255,0.018391015,128,2.639002519,36591,14277.34375,9088,128
63615,4.588017415,38984,2.811589576,401,0.028920773,128,2.605465961,36126,14296.875,9728,128
65408,4.717331495,38788,2.797453737,127,0.009159447,128,2.592844676,35951,14316.40625,10368,128
63486,4.578713724,38243,2.758147449,399,0.02877653,128,2.575896093,35716,14335.9375,11008,128
62461,4.504789055,37956,2.737448542,120,0.008654595,128,2.5655827,35573,14355.46875,11648,128
61656,4.446731144,37793,2.725692716,448,0.03231049,128,2.570631214,35643,14375,12288,128
61472,4.433460764,37699,2.718913283,256,0.018463137,128,2.561688132,35519,14394.53125,12928,128
61920,4.465771254,37696,2.718696918,28,0.002019406,128,2.570991823,35648,14414.0625,13568,128
65055,4.69187256,37919,2.734780042,190,0.013703109,128,2.554187483,35415,14433.59375,14208,128
63543,4.582824657,37878,2.731823055,504,0.036349301,128,2.546758955,35312,14453.125,14848,128
61451,4.43194621,37879,2.731895176,496,0.035772328,128,2.523968521,34996,14472.65625,15488,128
56864,4.101124299,37774,2.724322405,15,0.001081824,128,2.503341735,34710,14492.1875,16128,128
62462,4.504861177,37929,2.735501258,504,0.036349301,128,2.496850788,34620,14511.71875,16768,128
56348,4.063909538,37815,2.727279392,32,0.002307892,128,2.472762164,34286,14531.25,17408,128
61576,4.440961413,37688,2.718119945,478,0.034474139,128,2.449683243,33966,14550.78125,18048,128
57295,4.132208721,37818,2.727495757,158,0.011395217,128,2.450188094,33973,14570.3125,18688,128
62334,4.495629608,37754,2.722879973,8,5.77E-04,128,2.444634729,33896,14589.84375,19328,128
61443,4.431369237,37698,2.718841162,770,0.055533654,128,2.424152186,33612,14609.375,19968,128
57336,4.135165707,37816,2.727351514,224,0.016155245,128,2.416435172,33505,14628.90625,20608,128
61543,4.4385814,37658,2.715956296,129,0.00930369,128,2.403669644,33328,14648.4375,21248,128
61440,4.431152872,37770,2.724033919,563,0.040604477,128,2.400352049,33282,14667.96875,21888,128
62463,4.504933298,37596,2.711484755,484,0.034906868,128,2.387442277,33103,14687.5,22528,128
62439,4.503202379,37889,2.732616393,4,2.88E-04,128,2.398116278,33251,14707.03125,23168,128
57211,4.126150504,37549,2.708095039,70,0.005048514,128,2.380302236,33004,14726.5625,23808,128
55320,3.989768504,37893,2.732904879,127,0.009159447,128,2.37337856,32908,14746.09375,24448,128
55553,4.006572843,37683,2.717759337,13,9.38E-04,128,2.373450681,32909,14765.625,25088,128
57281,4.131199018,37644,2.714946594,32707,2.358882112,128,2.361478491,32743,14785.15625,25728,128
61446,4.431585602,37718,2.720283594,32704,2.358665747,128,2.355203909,32656,14804.6875,26368,128
61688,4.449039036,37759,2.723240581,32315,2.330610434,128,2.340923827,32458,14824.21875,27008,128
57119,4.119515314,37545,2.707806552,32648,2.354626936,128,2.330466191,32313,14843.75,27648,128
56199,4.053163416,37723,2.720644202,32259,2.326571623,128,2.31935946,32159,14863.28125,28288,128
57337,4.135237829,37500,2.704561079,32241,2.325273433,128,2.307964242,32001,14882.8125,28928,128
57311,4.133362667,37398,2.697204673,31741,2.289212619,128,2.289212619,31741,14902.34375,29568,128
57315,4.133651153,37606,2.712205972,31859,2.297722971,128,2.291159903,31768,14921.875,30208,128
55555,4.006717087,37650,2.715379323,32643,2.354266328,128,2.317917027,32139,14941.40625,30848,128
61711,4.450697833,37748,2.722447243,32384,2.335586826,128,2.361334248,32741,14960.9375,31488,128
56304,4.060736187,37755,2.722952094,32767,2.36320941,128,2.346332949,32533,14980.46875,32128,128
62775,4.527435246,37971,2.738530366,32764,2.362993045,128,2.317340054,32131,15000,32768,128
57343,4.135670559,37458,2.701531971,30837,2.224014667,128,2.240674763,31068,15019.53125,33408,128
55420,3.996980667,37401,2.697421038,30723,2.215792801,128,2.224663761,30846,15039.0625,34048,128
55680,4.01573229,37029,2.670591792,30751,2.217812206,128,2.21398976,30698,15058.59375,34688,128
55584,4.008808614,37152,2.679462752,30721,2.215648558,128,2.219110396,30769,15078.125,35328,128
57312,4.133434788,37691,2.71833631,29469,2.125352278,128,2.234760789,30986,15097.65625,35968,128
63664,4.591551374,43440,3.132963554,4064,0.293102299,128,2.657249291,36844,15117.1875,36608,128
57471,4.144902127,36899,2.66121598,8071,0.582093666,128,2.393284129,33184,15136.71875,37248,128
52231,3.766984793,36197,2.610586597,15810,1.140242951,128,2.224519518,30844,15156.25,37888,128
53055,3.826413015,36461,2.629626707,28903,2.084531437,128,2.173168918,30132,15175.78125,38528,128
52862,3.81249354,36776,2.65234502,28760,2.074218044,128,2.190694474,30375,15195.3125,39168,128
53120,3.831100921,36736,2.649460155,29183,2.104725493,128,2.17367377,30139,15214.84375,39808,128
53247,3.840260367,36871,2.659196575,29135,2.101263654,128,2.182688973,30264,15234.375,40448,128
53151,3.833336691,36796,2.653787452,28679,2.068376192,128,2.165235539,30022,15253.90625,41088,128
53123,3.831317285,36839,2.656888682,28784,2.075948963,128,2.175404689,30163,15273.4375,41728,128
53215,3.837952475,36603,2.639867978,28720,2.071333178,128,2.158744593,29932,15292.96875,42368,128
57344,4.135742681,36592,2.63907464,28931,2.086550842,128,2.168913742,30073,15312.5,43008,128
53240,3.839755516,36578,2.638064937,28672,2.06787134,128,2.188386582,30343,15332.03125,43648,128
52959,3.819489338,36461,2.629626707,28673,2.067943462,128,2.223149207,30825,15351.5625,44288,128
52761,3.805209256,36774,2.652200777,30720,2.215576436,128,2.269162806,31463,15371.09375,44928,128
57597,4.153989453,36821,2.655590493,32009,2.308541215,128,2.308541215,32009,15390.625,45568,128
56895,4.103360069,37206,2.68335732,15,0.001081824,128,2.380230114,33003,15410.15625,46208,128
62193,4.485460458,37573,2.709825958,569,0.041037207,128,2.403886009,33331,15429.6875,46848,128
61516,4.436634116,38161,2.752233476,573,0.041325693,128,2.400640535,33286,15449.21875,47488,128
61696,4.449616009,38363,2.766802045,1,7.21E-05,128,2.343159597,32489,15468.75,48128,128
61443,4.431369237,38262,2.75951776,30818,2.222644356,128,2.261662157,31359,15488.28125,48768,128
56883,4.10249461,37795,2.72583696,30736,2.216730382,128,2.196392083,30454,15507.8125,49408,128
57319,4.13393964,37486,2.703551376,28800,2.077102909,128,2.150955457,29824,15527.34375,50048,128
57151,4.121823206,37307,2.690641605,16320,1.177024982,128,2.132925049,29574,15546.875,50688,128
56791,4.09585942,37335,2.69266101,28865,2.081790815,128,2.137468712,29637,15566.40625,51328,128
57119,4.119515314,37283,2.688910686,28799,2.077030787,128,2.137685077,29640,15585.9375,51968,128
53479,3.856992585,37101,2.675784549,28699,2.069818624,128,2.124631062,29459,15605.46875,52608,128
55774,4.022511723,37241,2.685881577,28927,2.086262356,128,2.136459009,29623,15625,53248,128
53444,3.854468328,37186,2.681914888,28728,2.071910151,128,2.137180226,29633,15644.53125,53888,128
55775,4.022583845,37341,2.69309374,28740,2.072775611,128,2.146628159,29764,15664.0625,54528,128
56313,4.061385281,37426,2.699224079,28702,2.070034989,128,2.141219037,29689,15683.59375,55168,128
55920,4.033041481,37617,2.71299931,28799,2.077030787,128,2.149152416,29799,15703.125,55808,128
61952,4.468079146,37571,2.709681715,29183,2.104725493,128,2.135954158,29616,15722.65625,56448,128
56976,4.109201921,37522,2.706147755,28672,2.06787134,128,2.11922194,29384,15742.1875,57088,128
57284,4.131415383,37510,2.705282295,28688,2.069025286,128,2.099388492,29109,15761.71875,57728,128
62457,4.504500568,37663,2.716316905,28689,2.069097408,128,2.112226142,29287,15781.25,58368,128
57264,4.12997295,37794,2.725764838,28926,2.086190234,128,2.116048588,29340,15800.78125,59008,128
57311,4.133362667,37550,2.708167161,28775,2.075299868,128,2.101335776,29136,15820.3125,59648,128
56064,4.043426996,37670,2.716821756,29127,2.100686681,128,2.101768506,29142,15839.84375,60288,128
54259,3.913247456,37492,2.703984106,29054,2.095421802,128,2.085973869,28923,15859.375,60928,128
53632,3.868027195,37769,2.723961797,28686,2.068881043,128,2.110423101,29262,15878.90625,61568,128
61440,4.431152872,37619,2.713143553,28790,2.076381692,128,2.098018181,29090,15898.4375,62208,128
57169,4.123121395,37713,2.719922986,28722,2.071477422,128,2.099172127,29106,15917.96875,62848,128
57343,4.135670559,37790,2.725476351,28931,2.086550842,128,2.093618762,29029,15937.5,63488,128
61468,4.433172278,37632,2.714081134,28912,2.085180531,128,2.093258154,29024,15957.03125,64128,128
53248,3.840332489,37659,2.716028418,28929,2.086406599,128,2.092176329,29009,15976.5625,64768,128
57144,4.121318355,37758,2.723168459,28993,2.091022383,128,2.084459315,28902,15996.09375,65408,128
56304,4.060736187,37681,2.717615094,28796,2.076814422,128,2.101119411,29133,16015.625,512,128
61552,4.439230494,37733,2.721365419,28935,2.086839329,128,2.089075099,28966,16035.15625,1152,128
61450,4.431874088,37722,2.720572081,28797,2.076886544,128,2.093041789,29021,16054.6875,1792,128
54271,3.914112915,37753,2.722807851,28720,2.071333178,128,2.103787911,29170,16074.21875,2432,128
61503,4.435696535,37623,2.713432039,28675,2.068087705,128,2.087849031,28949,16093.75,3072,128
57343,4.135670559,37834,2.728649703,29168,2.103643668,128,2.155426998,29886,16113.28125,3712,128
61455,4.432234696,37816,2.727351514,28913,2.085252653,128,2.176775,30182,16132.8125,4352,128
56447,4.07104958,38212,2.755911679,29443,2.123477116,128,2.2051188,30575,16152.34375,4992,128
56704,4.089584838,37936,2.736006109,28704,2.070179232,128,2.109629763,29251,16171.875,5632,128
55316,3.989480017,37653,2.715595688,28679,2.068376192,128,2.069962867,28701,16191.40625,6272,128
56286,4.059437997,37616,2.712927188,25024,1.804771638,128,2.041835432,28311,16210.9375,6912,128
57264,4.12997295,37666,2.716533269,25346,1.827994803,128,2.057341582,28526,16230.46875,7552,128
55359,3.992581247,37846,2.729515163,25596,1.84602521,128,2.067005881,28660,16250,8192,128
56880,4.102278245,39364,2.838995795,28924,2.086045991,128,2.200503016,30511,16269.53125,8832,128
58304,4.204979444,44940,3.241145997,14,0.001009703,128,2.850102526,39518,16289.0625,9472,128
61468,4.433172278,35498,2.560173578,903,0.065125831,128,2.083449612,28888,16308.59375,10112,128
53251,3.840548854,36995,2.668139657,29120,2.10018183,128,2.091599356,29001,16328.125,10752,128
53696,3.872642979,37386,2.696339213,28926,2.086190234,128,2.071188935,28718,16347.65625,11392,128
61475,4.433677129,37551,2.708239282,28791,2.076453814,128,2.073929557,28756,16367.1875,12032,128
61464,4.432883791,37567,2.709393228,28687,2.068953165,128,2.075660476,28780,16386.71875,12672,128
54269,3.913968672,37421,2.69886347,25073,1.808305598,128,2.066789516,28657,16406.25,13312,128
54243,3.91209351,37401,2.697421038,24824,1.790347313,128,2.062390096,28596,16425.78125,13952,128
56067,4.043643361,37445,2.70059439,24832,1.790924286,128,2.055754907,28504,16445.3125,14592,128
54057,3.898678887,37419,2.698719227,24960,1.800155854,128,2.061019786,28577,16464.84375,15232,128
55823,4.026045683,37351,2.693814956,28792,2.076525936,128,2.066356786,28651,16484.375,15872,128
53310,3.84480403,37494,2.704128349,28927,2.086262356,128,2.083954463,28895,16503.90625,16512,128
55423,3.997197032,37709,2.7196345,29184,2.104797614,128,2.122251048,29426,16523.4375,17152,128
54271,3.914112915,37755,2.722952094,29119,2.100109708,128,2.172231337,30119,16542.96875,17792,128
56399,4.067587741,37758,2.723168459,30847,2.224735883,128,2.239160209,31047,16562.5,18432,128
62520,4.509044231,38363,2.766802045,31232,2.25250271,128,2.282361064,31646,16582.03125,19072,128
57308,4.133146302,38740,2.793991899,31714,2.287265335,128,2.287842308,31722,16601.5625,19712,128
57340,4.135454194,39083,2.818729617,30791,2.220697072,128,2.242477804,31093,16621.09375,20352,128
56819,4.097878825,39266,2.831927876,28672,2.06787134,128,2.183698676,30278,16640.625,20992,128
63487,4.578785846,38695,2.790746425,28679,2.068376192,128,2.071982273,28729,16660.15625,21632,128
55289,3.987532733,38579,2.782380317,24831,1.790852164,128,2.04659546,28377,16679.6875,22272,128
54780,3.950822824,38274,2.76038322,24647,1.777581784,128,1.997696995,27699,16699.21875,22912,128
55294,3.987893342,37958,2.737592785,24701,1.781476352,128,1.972454425,27349,16718.75,23552,128
54335,3.9187287,38070,2.745670407,24830,1.790780043,128,1.975411412,27390,16738.28125,24192,128
56387,4.066722282,38028,2.742641299,24608,1.774769041,128,1.965025898,27246,16757.8125,24832,128
56381,4.066289552,38013,2.741559475,25027,1.804988003,128,1.953774924,27090,16777.34375,25472,128
55043,3.969790813,38183,2.753820152,25072,1.808233477,128,1.956443424,27127,16796.875,26112,128
56513,4.075809607,38341,2.765215369,25081,1.808882571,128,1.956010694,27121,16816.40625,26752,128
53639,3.868532046,38383,2.768244477,24968,1.800732827,128,1.934518449,26823,16835.9375,27392,128
53311,3.844876152,38262,2.75951776,24700,1.781404231,128,1.926801434,26716,16855.46875,28032,128
55215,3.982195733,38266,2.759806247,24735,1.783928488,128,1.923700204,26673,16875,28672,128
54840,3.955150122,38505,2.777043316,25407,1.832394222,128,1.904515851,26407,16894.53125,29312,128
56320,4.061890133,38308,2.762835355,24991,1.802391625,128,1.875739321,26008,16914.0625,29952,128
51192,3.69205042,38346,2.765575977,24928,1.797847962,128,1.84335671,25559,16933.59375,30592,128
56955,4.107687367,38138,2.750574678,24831,1.790852164,128,1.801814652,24983,16953.125,31232,128
54287,3.915266861,38468,2.774374816,24817,1.789842461,128,1.795900678,24901,16972.65625,31872,128
56832,4.098816407,38449,2.773004505,24579,1.772677514,128,1.772966,24583,16992.1875,32512,128
54333,3.918584456,38363,2.766802045,16523,1.191665672,128,1.74772343,24233,17011.71875,33152,128
54096,3.90149163,38480,2.775240275,16607,1.197723889,128,1.747002214,24223,17031.25,33792,128
57215,4.12643899,38263,2.759589882,16384,1.181640766,128,1.735679118,24066,17050.78125,34432,128
54140,3.904664982,38406,2.769903275,16864,1.216259148,128,1.725005117,23918,17070.3125,35072,128
55235,3.983638165,38291,2.761609287,16414,1.183804415,128,1.71231171,23742,17089.84375,35712,128
55288,3.987460612,38373,2.767523261,16390,1.182073496,128,1.714980211,23779,17109.375,36352,128
54271,3.914112915,38599,2.783822749,16480,1.188564442,128,1.715268697,23783,17128.90625,36992,128
54784,3.951111311,38561,2.781082127,16576,1.195488119,128,1.711157764,23726,17148.4375,37632,128
54259,3.913247456,38579,2.782380317,16639,1.200031781,128,1.709931697,23709,17167.96875,38272,128
51195,3.692266785,38598,2.783750627,16387,1.181857131,128,1.698392236,23549,17187.5,38912,128
51103,3.685631595,38673,2.78915975,8144,0.587358545,128,1.695146763,23504,17207.03125,39552,128
57279,4.131054775,38831,2.800554967,16384,1.181640766,128,1.668606003,23136,17226.5625,40192,128
53503,3.858723504,38564,2.781298492,16515,1.191088699,128,1.646031934,22823,17246.09375,40832,128
55169,3.978878138,38803,2.798535561,16433,1.185174726,128,1.637810068,22709,17265.625,41472,128
53758,3.87711452,38944,2.808704711,16671,1.202339673,128,1.663990219,23072,17285.15625,42112,128
55300,3.988326071,38981,2.811373211,16773,1.209696079,128,1.689737641,23429,17304.6875,42752,128
55264,3.985729693,39264,2.831783632,16480,1.188564442,128,1.70921048,23699,17324.21875,43392,128
55687,4.016237142,39308,2.834956984,16542,1.193035983,128,1.656922299,22974,17343.75,44032,128
53311,3.844876152,38829,2.800410724,8191,0.590748261,128,1.580906103,21920,17363.28125,44672,128
50159,3.617548778,38541,2.779639695,16392,1.182217739,128,1.542393153,21386,17382.8125,45312,128
51073,3.683467946,38693,2.790602182,16637,1.199887538,128,1.527031246,21173,17402.34375,45952,128
54208,3.909569253,38676,2.789376115,16444,1.185968064,128,1.524579111,21139,17421.875,46592,128
51354,3.703734124,39098,2.819811442,16419,1.184165023,128,1.567563601,21735,17441.40625,47232,128
64574,4.657182057,46424,3.348174494,28416,2.049408203,128,2.344241422,32504,17460.9375,47872,128
57328,4.134588734,39281,2.8330097,12344,0.890269386,128,1.793953394,24874,17480.46875,48512,128
53249,3.840404611,38225,2.75684926,8185,0.590315532,128,1.537561004,21319,17500,49152,128
53375,3.849491936,38395,2.769109937,16665,1.201906944,128,1.504240811,20857,17519.53125,49792,128
49309,3.556245393,38301,2.762330504,16500,1.190006875,128,1.484335242,20581,17539.0625,50432,128
53823,3.881802426,38409,2.77011964,16697,1.204214836,128,1.495946824,20742,17558.59375,51072,128
53753,3.876753912,38393,2.768965694,16639,1.200031781,128,1.495153486,20731,17578.125,51712,128
49153,3.544994419,38351,2.765936585,16632,1.19952693,128,1.480152187,20523,17597.65625,52352,128
54780,3.950822824,38212,2.755911679,16510,1.190728091,128,1.458299334,20220,17617.1875,52992,128
55280,3.986883639,38414,2.770480248,16388,1.181929252,128,1.476762471,20476,17636.71875,53632,128
49650,3.580838869,38374,2.767595383,16384,1.181640766,128,1.484767972,20587,17656.25,54272,128
50719,3.65793689,38491,2.776033613,16647,1.200608754,128,1.500562608,20806,17675.78125,54912,128
49649,3.580766747,38245,2.758291693,16640,1.200103903,128,1.532800976,21253,17695.3125,55552,128
51001,3.678275189,38249,2.758580179,16701,1.204503322,128,1.572035142,21797,17714.84375,56192,128
49423,3.564467259,38459,2.773725721,16873,1.216908242,128,1.657355029,22980,17734.375,56832,128
57088,4.117279544,38520,2.77812514,16766,1.209191228,128,1.689088546,23420,17753.90625,57472,128
56575,4.080281148,39144,2.823129037,16392,1.182217739,128,1.731712429,24011,17773.4375,58112,128
55809,4.02503598,39633,2.858396513,16438,1.185535334,128,1.72558209,23926,17792.96875,58752,128
55807,4.024891737,39791,2.869791731,16399,1.18272259,128,1.667235692,23117,17812.5,59392,128
56879,4.102206123,39466,2.846352201,16572,1.195199632,128,1.564462371,21692,17832.03125,60032,128
57119,4.119515314,39258,2.831350902,16639,1.200031781,128,1.529988233,21214,17851.5625,60672,128
55298,3.988181828,38841,2.801276183,16480,1.188564442,128,1.488518296,20639,17871.09375,61312,128
49936,3.601465655,38709,2.791756128,16894,1.218422797,128,1.474166092,20440,17890.625,61952,128
54848,3.955727095,38567,2.781514857,16895,1.218494918,128,1.472795781,20421,17910.15625,62592,128
54268,3.91389655,38649,2.787428831,17394,1.254483611,128,1.474021849,20438,17929.6875,63232,128
53882,3.886057602,38667,2.78872702,16894,1.218422797,128,1.494215905,20718,17949.21875,63872,128
49392,3.562231488,38531,2.778918478,16432,1.185102604,128,1.48072916,20531,17968.75,64512,128
55295,3.987965463,38645,2.787140344,16440,1.185679577,128,1.489744364,20656,17988.28125,65152,128
49391,3.562159367,38635,2.786419128,16525,1.191809916,128,1.48693162,20617,18007.8125,256,128
54209,3.909641374,38861,2.802718616,16892,1.218278553,128,1.495802581,20740,18027.34375,896,128
51215,3.693709218,38911,2.806324697,16639,1.200031781,128,1.494937121,20728,18046.875,1536,128
51181,3.691257082,38893,2.805026508,16806,1.212076093,128,1.470560011,20390,18066.40625,2176,128
51214,3.693637096,38964,2.810147144,16384,1.181640766,128,1.479791579,20518,18085.9375,2816,128
56320,4.061890133,38925,2.8073344,17405,1.255276949,128,1.475103673,20453,18105.46875,3456,128
56322,4.062034376,39030,2.814907171,16384,1.181640766,128,1.479719458,20517,18125,4096,128
51200,3.692627393,38920,2.806973792,16888,1.217990067,128,1.471281227,20400,18144.53125,4736,128
56380,4.06621743,38973,2.810796238,17359,1.251959354,128,1.465078767,20314,18164.0625,5376,128
55408,3.996115207,39096,2.819667199,17371,1.252824813,128,1.475175795,20454,18183.59375,6016,128
51271,3.697748029,39109,2.82060478,16911,1.219648864,128,1.458515699,20223,18203.125,6656,128
49215,3.54946596,38975,2.810940482,16655,1.201185727,128,1.463564213,20293,18222.65625,7296,128
55495,4.002389789,39110,2.820676901,16895,1.218494918,128,1.466593321,20335,18242.1875,7936,128
55416,3.99669218,39146,2.82327328,16865,1.216331269,128,1.471930322,20409,18261.71875,8576,128
51326,3.701714719,39018,2.814041712,16654,1.201113606,128,1.460751469,20254,18281.25,9216,128
49551,3.573698827,39359,2.838635187,16892,1.218278553,128,1.476185498,20468,18300.78125,9856,128
51584,3.720322099,39334,2.836832146,16647,1.200608754,128,1.461833294,20269,18320.3125,10496,128
51436,3.709648098,39373,2.83964489,17167,1.238112001,128,1.463131483,20287,18339.84375,11136,128
53247,3.840260367,39284,2.833226065,16589,1.1964257,128,1.460535104,20251,18359.375,11776,128
49167,3.546004122,39199,2.827095726,16512,1.190872334,128,1.449500495,20098,18378.90625,12416,128
49160,3.545499271,39335,2.836904268,16387,1.181857131,128,1.461256321,20261,18398.4375,13056,128
57340,4.135454194,39404,2.84188066,16439,1.185607455,128,1.498326838,20775,18417.96875,13696,128
51231,3.694863164,39709,2.863877757,16959,1.223110702,128,1.525949422,21158,18437.5,14336,128
56076,4.044292455,39788,2.869575366,16391,1.182145617,128,1.557105965,21590,18457.03125,14976,128
56089,4.045230036,39707,2.863733514,16880,1.217413094,128,1.507053555,20896,18476.5625,15616,128
49160,3.545499271,39193,2.826662997,16392,1.182217739,128,1.413079073,19593,18496.09375,16256,128
57098,4.11800076,39258,2.831350902,16632,1.19952693,128,1.415314843,19624,18515.625,16896,128
49663,3.58177645,39331,2.836615781,16638,1.19995966,128,1.414665748,19615,18535.15625,17536,128
51407,3.70755657,39134,2.822407821,16851,1.215321567,128,1.39526503,19346,18554.6875,18176,128
57244,4.128530518,41439,2.988648175,17407,1.255421192,128,1.607446862,22288,18574.21875,18816,128
65376,4.715023603,47456,3.422604015,31219,2.251565129,128,2.24233356,31091,18593.75,19456,128
57335,4.135093586,39605,2.856377108,6159,0.444197112,128,1.665937503,23099,18613.28125,20096,128
51184,3.691473447,38835,2.800843454,16384,1.181640766,128,1.445822292,20047,18632.8125,20736,128
57328,4.134588734,38901,2.805603481,16508,1.190583848,128,1.410699059,19560,18652.34375,21376,128
55303,3.988542436,38991,2.812094428,16883,1.217629459,128,1.397933531,19383,18671.875,22016,128
55264,3.985729693,38894,2.80509863,16410,1.183515928,128,1.388341354,19250,18691.40625,22656,128
49500,3.570020624,39186,2.826158145,16889,1.218062188,128,1.406660248,19504,18710.9375,23296,128
56856,4.100547326,39059,2.816998698,16384,1.181640766,128,1.376801893,19090,18730.46875,23936,128
55357,3.992437004,38961,2.809930779,16451,1.186472915,128,1.372763082,19034,18750,24576,128
53193,3.836365799,39243,2.830269078,16640,1.200103903,128,1.387620138,19240,18769.53125,25216,128
49640,3.580117652,39240,2.830052713,16512,1.190872334,128,1.378460691,19113,18789.0625,25856,128
57287,4.131631748,39246,2.830485443,16387,1.181857131,128,1.413800289,19603,18808.59375,26496,128
56839,4.099321258,39495,2.848443728,16384,1.181640766,128,1.431181601,19844,18828.125,27136,128
52205,3.76510963,39553,2.852626783,16415,1.183876536,128,1.498759568,20781,18847.65625,27776,128
57328,4.134588734,39824,2.872171744,17286,1.246694475,128,1.544412559,21414,18867.1875,28416,128
53245,3.840116124,40349,2.910035599,17138,1.236020474,128,1.605283213,22258,18886.71875,29056,128
57137,4.120813503,40753,2.939172737,16384,1.181640766,128,1.630237297,22604,18906.25,29696,128
63519,4.581093738,41311,2.979416606,17119,1.234650163,128,1.603263808,22230,18925.78125,30336,128
57598,4.154061574,41452,2.989585756,16639,1.200031781,128,1.524867597,21143,18945.3125,30976,128
57839,4.171442887,41357,2.982734201,16387,1.181857131,128,1.445461684,20042,18964.84375,31616,128
57347,4.135959045,41003,2.957203145,16895,1.218494918,128,1.392524408,19308,18984.375,32256,128
57089,4.117351665,40771,2.940470927,16635,1.199743295,128,1.360141797,18859,19003.90625,32896,128
50753,3.660389025,40651,2.931816331,16632,1.19952693,128,1.327254334,18403,19023.4375,33536,128
56832,4.098816407,40649,2.931672088,16579,1.195704483,128,1.324946442,18371,19042.96875,34176,128
57300,4.132569329,40789,2.941769116,16503,1.19022324,128,1.337928335,18551,19062.5,34816,128
57103,4.118361368,40715,2.936432116,16447,1.186184428,128,1.333528916,18490,19082.03125,35456,128
50080,3.611851169,40738,2.938090913,16799,1.211571242,128,1.358699365,18839,19101.5625,36096,128
57151,4.121823206,40759,2.939605467,16488,1.189141415,128,1.336846511,18536,19121.09375,36736,128
53169,3.83463488,40887,2.948837036,16417,1.18402078,128,1.341967147,18607,19140.625,37376,128
51193,3.692122542,41059,2.961241956,16448,1.18625655,128,1.352136296,18748,19160.15625,38016,128
61634,4.445144468,41114,2.965208645,16415,1.183876536,128,1.331148902,18457,19179.6875,38656,128
53151,3.833336691,40863,2.947106117,16881,1.217485215,128,1.320186415,18305,19199.21875,39296,128
61451,4.43194621,40986,2.955977077,16843,1.214744593,128,1.316291847,18251,19218.75,39936,128
61441,4.431224994,40971,2.954895253,16696,1.204142714,128,1.313911833,18218,19238.28125,40576,128
57281,4.131199018,40897,2.949558252,16641,1.200176024,128,1.315859117,18245,19257.8125,41216,128
50950,3.674596986,40806,2.942995184,16889,1.218062188,128,1.291914736,17913,19277.34375,41856,128
51101,3.685487352,40761,2.939749711,16505,1.190367483,128,1.301146305,18041,19296.875,42496,128
53041,3.825403312,40755,2.939316981,16390,1.182073496,128,1.299199021,18014,19316.40625,43136,128
53067,3.827278474,40734,2.937802427,16766,1.209191228,128,1.299199021,18014,19335.9375,43776,128
57342,4.135598437,40830,2.944726103,16799,1.211571242,128,1.28765956,17854,19355.46875,44416,128
51102,3.685559474,40862,2.947033995,16845,1.214888837,128,1.288741385,17869,19375,45056,128
57107,4.118649854,40819,2.943932765,16657,1.201329971,128,1.275182518,17681,19394.53125,45696,128
57392,4.139204519,40993,2.956481928,16400,1.182794712,128,1.293789899,17939,19414.0625,46336,128
57343,4.135670559,40811,2.943355792,16576,1.195488119,128,1.269701275,17605,19433.59375,46976,128
50171,3.618414237,40826,2.944437616,16385,1.181712887,128,1.283837114,17801,19453.125,47616,128
57336,4.135165707,40815,2.943644278,16488,1.189141415,128,1.264580639,17534,19472.65625,48256,128
61440,4.431152872,40989,2.956193442,16391,1.182145617,128,1.272081288,17638,19492.1875,48896,128
57312,4.133434788,40879,2.948260063,16509,1.190655969,128,1.264508517,17533,19511.71875,49536,128
61452,4.432018332,41036,2.959583158,16624,1.198949957,128,1.303959048,18080,19531.25,50176,128
61457,4.43237894,41041,2.959943767,16487,1.189069294,128,1.309079684,18151,19550.78125,50816,128
61459,4.432523183,41111,2.964992281,16511,1.190800213,128,1.352929634,18759,19570.3125,51456,128
58048,4.186516307,41666,3.005019785,17376,1.253185422,128,1.399159598,19400,19589.84375,52096,128
61440,4.431152872,41040,2.959871645,16399,1.18272259,128,1.2841256,17805,19609.375,52736,128
57345,4.135814802,40963,2.95431828,16783,1.210417296,128,1.247271448,17294,19628.90625,53376,128
40799,2.942490332,40774,2.940687292,16510,1.190728091,128,1.245973259,17276,19648.4375,54016,128
57166,4.122905031,40798,2.942418211,16511,1.190800213,128,1.246189624,17279,19667.96875,54656,128
57407,4.140286343,41078,2.962612267,16511,1.190800213,128,1.264508517,17533,19687.5,55296,128
61283,4.419829776,44399,3.202128196,16864,1.216259148,128,1.511957826,20964,19707.03125,55936,128
65535,4.726490942,47103,3.39714508,30208,2.178650162,128,2.184492014,30289,19726.5625,56576,128
55327,3.990273355,38938,2.808271981,839,0.060510047,128,1.242727785,17231,19746.09375,57216,128
53216,3.838024597,40484,2.919772019,17089,1.232486514,128,1.307637251,18131,19765.625,57856,128
53246,3.840188246,40914,2.95078432,16895,1.218494918,128,1.283909235,17802,19785.15625,58496,128
57347,4.135959045,41071,2.962107415,16391,1.182145617,128,1.294078385,17943,19804.6875,59136,128
53236,3.83946703,40917,2.951000685,16632,1.19952693,128,1.270494613,17616,19824.21875,59776,128
56833,4.098888528,40643,2.931239358,16511,1.190800213,128,1.272441896,17643,19843.75,60416,128
50079,3.611779047,40893,2.949269766,16646,1.200536633,128,1.280158911,17750,19863.28125,61056,128
51166,3.690175258,40670,2.933186642,16511,1.190800213,128,1.273812207,17662,19882.8125,61696,128
53127,3.831605772,40847,2.945952171,16655,1.201185727,128,1.275038275,17679,19902.34375,62336,128
57340,4.135454194,40944,2.952947969,16632,1.19952693,128,1.291842615,17912,19921.875,62976,128
51199,3.692555272,40691,2.934701197,2023,0.145902055,128,1.299848115,18023,19941.40625,63616,128
53232,3.839178543,40946,2.953092212,16400,1.182794712,128,1.342039268,18608,19960.9375,64256,128
57553,4.150816101,41171,2.969319578,16512,1.190872334,128,1.41560333,19628,19980.46875,64896,128
57348,4.136031167,41261,2.975810525,16398,1.182650469,128,1.443153792,20010,20000,0,128
57584,4.153051871,41617,3.001485825,16803,1.211859728,128,1.507846893,20907,20019.53125,640,128
65315,4.710624183,41827,3.016631367,16770,1.209479715,128,1.496235311,20746,20039.0625,1280,128
58431,4.214138891,42431,3.060192831,16616,1.198372984,128,1.457001145,20202,20058.59375,1920,128
59284,4.27565864,42421,3.059471614,16608,1.197796011,128,1.398654747,19393,20078.125,2560,128
57570,4.152042169,41958,3.0260793,16398,1.182650469,128,1.306988157,18122,20097.65625,3200,128
48900,3.526747647,41540,2.995932459,2047,0.147632974,128,1.269268545,17599,20117.1875,3840,128
58364,4.209306742,41503,2.993263959,16412,1.183660171,128,1.246405989,17282,20136.71875,4480,128
57368,4.1374736,41243,2.974512336,16415,1.183876536,128,1.222461608,16950,20156.25,5120,128
61951,4.468007024,41357,2.982734201,16443,1.185895942,128,1.225995568,16999,20195.3125,6400,128
57351,4.136247532,41311,2.979416606,16481,1.188636564,128,1.212508823,16812,20214.84375,7040,128
57471,4.144902127,41669,3.005236149,16623,1.198877835,128,1.228664068,17036,20234.375,7680,128
58264,4.202094579,41558,2.997230649,16636,1.199815416,128,1.209912444,16776,20253.90625,8320,128
57863,4.173173806,41869,3.019660475,16879,1.217340972,128,1.222173121,16946,20273.4375,8960,128
57842,4.171659252,41821,3.016198637,16447,1.186184428,128,1.19556024,16577,20292.96875,9600,128
58355,4.208657647,41860,3.019011381,16504,1.190295361,128,1.187626861,16467,20312.5,10240,128
58305,4.205051566,41828,3.016703488,16385,1.181712887,128,1.179477117,16354,20332.03125,10880,128
61599,4.442620211,41821,3.016198637,48,0.003461838,128,1.160437007,16090,20351.5625,11520,128
59192,4.26902345,41832,3.016991975,91,0.006563068,128,1.143199938,15851,20371.09375,12160,128
57747,4.164807697,41805,3.015044691,255,0.018391015,128,1.147166627,15906,20390.625,12800,128
58224,4.199209714,41786,3.01367438,256,0.018463137,128,1.137285964,15769,20410.15625,13440,128
57347,4.135959045,42021,3.030622963,174,0.012549163,128,1.132814423,15707,20429.6875,14080,128
58383,4.210677053,41938,3.024636868,3,2.16E-04,128,1.127044693,15627,20449.21875,14720,128
57662,4.158677358,41716,3.008625866,30,0.002163649,128,1.105119718,15323,20468.75,15360,128
57596,4.153917331,41649,3.003793717,461,0.033248071,128,1.099277866,15242,20488.28125,16000,128
58208,4.198055768,41815,3.015765907,415,0.029930476,128,1.093508135,15162,20507.8125,16640,128
57350,4.13617541,41817,3.015910151,288,0.020771029,128,1.088243257,15089,20527.34375,17280,128
57497,4.14677729,41854,3.018578651,258,0.01860738,128,1.074612269,14900,20546.875,17920,128
58126,4.192141794,41973,3.027161125,15,0.001081824,128,1.080598364,14983,20566.40625,18560,128
58243,4.200580025,41906,3.022328975,424,0.030579571,128,1.064587362,14761,20585.9375,19200,128
58304,4.204979444,41692,3.006894947,12,8.65E-04,128,1.03393567,14336,20605.46875,19840,128
58140,4.193151497,41844,3.017857434,244,0.017597677,128,1.044249063,14479,20625,20480,128
58367,4.209523107,41853,3.018506529,159,0.011467339,128,1.025281075,14216,20644.53125,21120,128
57731,4.163653751,41779,3.013169529,102,0.007356406,128,1.018790128,14126,20664.0625,21760,128
57359,4.136824505,41909,3.02254534,254,0.018318894,128,1.022107723,14172,20683.59375,22400,128
57344,4.135742681,41772,3.012664677,56,0.004038811,128,1.017491939,14108,20703.125,23040,128
59268,4.274504694,42191,3.04288364,388,0.027983192,128,1.071943768,14863,20722.65625,23680,128
57826,4.170505306,41968,3.026800516,244,0.017597677,128,1.085646878,15053,20742.1875,24320,128
59315,4.277894411,42308,3.05132187,229,0.016515853,128,1.098989379,15238,20761.71875,24960,128
59329,4.278904114,41896,3.021607759,72,0.005192757,128,1.004870654,13933,20781.25,25600,128
57592,4.153628844,41602,3.000404,56,0.004038811,128,0.966213461,13397,20800.78125,26240,128
58263,4.202022457,41576,2.998528838,79,0.005697609,128,0.94847154,13151,20820.3125,26880,128
57368,4.1374736,41574,2.998384595,272,0.019617083,128,0.953520054,13221,20839.84375,27520,128
58359,4.208946134,41888,3.021030786,991,0.071472534,128,0.960732217,13321,20859.375,28160,128
57592,4.153628844,44385,3.201118493,2045,0.147488731,128,1.197507524,16604,20878.90625,28800,128
49152,3.544922298,49410,3.563529678,15422,1.112259759,128,1.850496751,25658,20898.4375,29440,128
49276,3.55386538,39531,2.851040107,15864,1.144137519,128,0.898274886,12455,20917.96875,30080,128
53242,3.839899759,41179,2.969896551,3,2.16E-04,128,0.960660095,13320,20937.5,30720,128
57392,4.139204519,41129,2.96629047,248,0.017886164,128,0.930441133,12901,20957.03125,31360,128
57359,4.136824505,41071,2.962107415,122,0.008798839,128,0.924310794,12816,20976.5625,32000,128
57728,4.163437386,41241,2.974368092,11,7.93E-04,128,0.919478645,12749,20996.09375,32640,128
57392,4.139204519,41203,2.97162747,39,0.002812744,128,0.925248376,12829,21015.625,33280,128
57409,4.140430586,41281,2.977252957,7,5.05E-04,128,0.925825349,12837,21035.15625,33920,128
57599,4.154133696,41163,2.968742605,209,0.01507342,128,0.911040415,12632,21054.6875,34560,128
57375,4.137978451,41162,2.968670484,1,7.21E-05,128,0.920704713,12766,21074.21875,35200,128
57592,4.153628844,41109,2.964848037,16374,1.18091955,128,0.915944685,12700,21093.75,35840,128
57531,4.149229425,41274,2.976748106,127,0.009159447,128,0.942485445,13068,21113.28125,36480,128
48257,3.48037344,41258,2.97559416,237,0.017092826,128,0.987994193,13699,21132.8125,37120,128
57703,4.161634345,41308,2.979200241,252,0.01817465,128,1.032204751,14312,21152.34375,37760,128
58353,4.208513404,41956,3.025935057,248,0.017886164,128,1.114134921,15448,21171.875,38400,128
57470,4.144830006,42374,3.056081898,497,0.03584445,128,1.149546641,15939,21191.40625,39040,128
62016,4.47269493,42688,3.078728089,160,0.011539461,128,1.156398196,16034,21210.9375,39680,128
60927,4.394154476,43475,3.135487811,48,0.003461838,128,1.123510733,15578,21230.46875,40320,128
59907,4.320590415,43631,3.146738785,370,0.026685003,128,1.06624616,14784,21250,40960,128
57407,4.140286343,43399,3.130006567,249,0.017958286,128,0.969747421,13446,21269.53125,41600,128
59447,4.287414466,43023,3.102888835,12,8.65E-04,128,0.93209993,12924,21289.0625,42240,128
59366,4.281572614,43125,3.110245241,127,0.009159447,128,0.908876766,12602,21308.59375,42880,128
58351,4.208369161,42896,3.093729388,0,0,128,0.877792344,12171,21328.125,43520,128
59264,4.274216208,42924,3.095748794,128,0.009231568,128,0.861709221,11948,21347.65625,44160,128
59312,4.277678046,42817,3.088031779,256,0.018463137,128,0.855651004,11864,21367.1875,44800,128
59388,4.28315929,42884,3.092863928,31,0.00223577,128,0.856155855,11871,21386.71875,45440,128
59363,4.281356249,42876,3.092286955,188,0.013558866,128,0.865315302,11998,21406.25,46080,128
57344,4.135742681,42979,3.099715483,0,0,128,0.85593949,11868,21425.78125,46720,128
59260,4.273927721,43170,3.113490714,399,0.02877653,128,0.85060249,11794,21445.3125,47360,128
57344,4.135742681,43259,3.119909539,125,0.009015204,128,0.847573381,11752,21464.84375,48000,128
57376,4.138050573,43233,3.118034377,4,2.88E-04,128,0.826369623,11458,21484.375,48640,128
57534,4.14944579,43281,3.121496215,255,0.018391015,128,0.823340514,11416,21503.90625,49280,128
57728,4.163437386,43278,3.12127985,0,0,128,0.802136755,11122,21523.4375,49920,128
59799,4.312801279,43348,3.126328364,224,0.016155245,128,0.798891282,11077,21542.96875,50560,128
57347,4.135959045,43270,3.120702877,7,5.05E-04,128,0.786991213,10912,21562.5,51200,128
57368,4.1374736,43084,3.107288254,16320,1.177024982,128,0.762541981,10573,21582.03125,51840,128
57806,4.169062873,43557,3.141401785,1,7.21E-05,128,0.789154862,10942,21601.5625,52480,128
57976,4.18132355,43376,3.12834777,192,0.013847353,128,0.779995415,10815,21621.09375,53120,128
57344,4.135742681,43317,3.124092594,319,0.0230068,128,0.762614103,10574,21640.625,53760,128
57848,4.172091981,43448,3.133540527,488,0.035195355,128,0.764561387,10601,21660.15625,54400,128
57392,4.139204519,43349,3.126400486,305,0.021997097,128,0.760017724,10538,21679.6875,55040,128
57792,4.16805317,43473,3.135343568,15,0.001081824,128,0.75807044,10511,21699.21875,55680,128
57359,4.136824505,43451,3.133756892,145,0.010457636,128,0.745304912,10334,21718.75,56320,128
57358,4.136752383,43440,3.132963554,14,0.001009703,128,0.734919397,10190,21738.28125,56960,128
57393,4.13927664,43364,3.12748231,176,0.012693407,128,0.747612804,10366,21757.8125,57600,128
57535,4.149517912,43260,3.119981661,121,0.008726717,128,0.723163572,10027,21777.34375,58240,128
57469,4.144757884,43402,3.130222932,257,0.018535259,128,0.736433951,10211,21796.875,58880,128
58096,4.189978145,43485,3.136209027,172,0.01240492,128,0.744150966,10318,21816.40625,59520,128
57351,4.136247532,43567,3.142123001,503,0.036277179,128,0.735568492,10199,21835.9375,60160,128
57352,4.136319654,43627,3.146450299,0,0,128,0.737515776,10226,21855.46875,60800,128
59423,4.285683547,43763,3.15625884,446,0.032166246,128,0.759729238,10534,21875,61440,128
57344,4.135742681,43919,3.167509814,503,0.036277179,128,0.808339215,11208,21894.53125,62080,128
57911,4.176635644,43726,3.15359034,511,0.036854152,128,0.821321108,11388,21914.0625,62720,128
60416,4.357300324,44319,3.196358466,511,0.036854152,128,0.814325311,11291,21933.59375,63360,128
58360,4.209018255,43771,3.156835813,127,0.009159447,128,0.742708533,10298,21953.125,64000,128
58336,4.207287336,43589,3.143709677,255,0.018391015,128,0.713499273,9893,21972.65625,64640,128
59615,4.299530899,43728,3.153734583,63,0.004543663,128,0.705205286,9778,21992.1875,65280,128
49048,3.537421648,43674,3.149840015,63,0.004543663,128,0.703979218,9761,22011.71875,384,128
57388,4.138916032,43997,3.173135301,63,0.004543663,128,0.716744747,9938,22031.25,1024,128
61447,4.431657723,48843,3.522636714,4095,0.29533807,128,1.06624616,14784,22050.78125,1664,128
65533,4.726346699,44213,3.188713573,5375,0.387653755,128,1.060260065,14701,22070.3125,2304,128
57406,4.140214222,42077,3.034661774,16352,1.179332874,128,0.695829474,9648,22089.84375,2944,128
59423,4.285683547,43199,3.115582241,124,0.008943082,128,0.755546183,10476,22109.375,3584,128
49143,3.544273203,43233,3.118034377,194,0.013991596,128,0.735568492,10199,22128.90625,4224,128
57356,4.13660814,43144,3.111615552,271,0.019544961,128,0.724533883,10046,22148.4375,4864,128
57457,4.143892425,43331,3.125102296,482,0.034762625,128,0.741915195,10287,22167.96875,5504,128
57459,4.144036668,43106,3.10887493,496,0.035772328,128,0.724678126,10048,22187.5,6144,128
59391,4.283375655,43144,3.111615552,392,0.028271678,128,0.729438153,10114,22207.03125,6784,128
57404,4.140069978,43165,3.113130106,268,0.019328597,128,0.734486667,10184,22226.5625,7424,128
57374,4.137906329,43232,3.117962255,1,7.21E-05,128,0.754031629,10455,22246.09375,8064,128
57471,4.144902127,43284,3.12171258,191,0.013775231,128,0.765498968,10614,22265.625,8704,128
47359,3.415608217,43191,3.115005268,633,0.045652991,128,0.784322713,10875,22285.15625,9344,128
57600,4.154205817,43342,3.125895634,134,0.009664298,128,0.853126747,11829,22304.6875,9984,128
57591,4.153556723,43429,3.132170216,244,0.017597677,128,0.90152036,12500,22324.21875,10624,128
58343,4.207792188,43627,3.146450299,511,0.036854152,128,0.974291083,13509,22343.75,11264,128
61215,4.414925506,43978,3.17176499,192,0.013847353,128,0.988715409,13709,22363.28125,11904,128
58780,4.239309339,44508,3.209989454,519,0.037431125,128,0.986912368,13684,22382.8125,12544,128
61176,4.412112762,44649,3.220158603,78,0.005625487,128,0.948760027,13155,22402.34375,13184,128
58319,4.206061269,44623,3.218283441,0,0,128,0.889331804,12331,22421.875,13824,128
60472,4.361339135,44330,3.197151804,448,0.03231049,128,0.815551378,11308,22441.40625,14464,128
58352,4.208441282,43888,3.165274044,126,0.009087325,128,0.784250591,10874,22460.9375,15104,128
49021,3.535474364,43623,3.146161812,259,0.018679502,128,0.751723737,10423,22480.46875,15744,128
59919,4.321455875,43726,3.15359034,49,0.00353396,128,0.769754144,10673,22500,16384,128
58111,4.19105997,43726,3.15359034,498,0.035916571,128,0.760378332,10543,22519.53125,17024,128
59520,4.292679345,43527,3.139238136,287,0.020698907,128,0.753310413,10445,22539.0625,17664,128
48643,3.508212389,43814,3.159937043,15,0.001081824,128,0.766869279,10633,22558.59375,18304,128
61312,4.421921304,43791,3.158278246,509,0.036709909,128,0.766148062,10623,22578.125,18944,128
49031,3.536195581,43908,3.166716476,384,0.027694705,128,0.766292306,10625,22597.65625,19584,128
58367,4.209523107,44001,3.173423788,399,0.02877653,128,0.750858277,10411,22617.1875,20224,128
57791,4.167981049,43959,3.170394679,6,4.33E-04,128,0.744727939,10326,22636.71875,20864,128
57344,4.135742681,43933,3.168519517,476,0.034329895,128,0.724894491,10051,22656.25,21504,128
58431,4.214138891,44071,3.178472302,483,0.034834747,128,0.734126059,10179,22675.78125,22144,128
58265,4.202166701,43872,3.164120098,7,5.05E-04,128,0.709388341,9836,22695.3125,22784,128
48127,3.470997628,44053,3.177174112,7,5.05E-04,128,0.720134463,9985,22714.84375,23424,128
57357,4.136680262,44045,3.176597139,255,0.018391015,128,0.700373137,9711,22734.375,24064,128
57853,4.17245259,43880,3.164697071,487,0.035123233,128,0.702608908,9742,22753.90625,24704,128
48064,3.466453965,43976,3.171620747,1,7.21E-05,128,0.702248299,9737,22773.4375,25344,128
49137,3.543840473,43992,3.172774693,463,0.033392314,128,0.702104056,9735,22792.96875,25984,128
57351,4.136247532,43879,3.164624949,509,0.036709909,128,0.692151271,9597,22812.5,26624,128
58336,4.207287336,43880,3.164697071,280,0.020194056,128,0.685371838,9503,22832.03125,27264,128
58343,4.207792188,44078,3.178977153,384,0.027694705,128,0.680323324,9433,22851.5625,27904,128
58362,4.209162499,43966,3.170899531,254,0.018318894,128,0.67484208,9357,22871.09375,28544,128
47116,3.398082661,44061,3.177751085,120,0.008654595,128,0.670226296,9293,22890.625,29184,128
57417,4.141007559,44105,3.180924437,24,0.001730919,128,0.673399648,9337,22910.15625,29824,128
48113,3.469987925,43866,3.163687368,495,0.035700206,128,0.650969821,9026,22929.6875,30464,128
48066,3.466598209,43970,3.171188017,406,0.029281381,128,0.657028038,9110,22949.21875,31104,128
48641,3.508068145,43869,3.163903733,508,0.036637787,128,0.643036442,8916,22968.75,31744,128
57347,4.135959045,44035,3.175875923,240,0.017309191,128,0.643901902,8928,22988.28125,32384,128
48967,3.531579796,44006,3.173784396,609,0.043922072,128,0.638925509,8859,23007.8125,33024,128
48125,3.470853385,43797,3.158710975,71,0.005120636,128,0.61945267,8589,23027.34375,33664,128
49015,3.535041634,43876,3.164408584,483,0.034834747,128,0.62565513,8675,23046.875,34304,128
48168,3.473954615,44018,3.174649855,140,0.010097028,128,0.680323324,9433,23066.40625,34944,128
48864,3.524151269,44161,3.184963248,127,0.009159447,128,0.710758652,9855,23085.9375,35584,128
58291,4.204041863,44654,3.220519211,511,0.036854152,128,0.72395691,10038,23105.46875,36224,128
48911,3.527540985,44299,3.194916033,16356,1.17962136,128,0.65580197,9093,23125,36864,128
49016,3.535113756,44009,3.174000761,31,0.00223577,128,0.594570708,8244,23144.53125,37504,128
47470,3.423613718,43901,3.166211625,28,0.002019406,128,0.575386354,7978,23164.0625,38144,128
47172,3.402121473,43845,3.162172814,6,4.33E-04,128,0.574520895,7966,23183.59375,38784,128
48126,3.470925506,44014,3.174361369,126,0.009087325,128,0.57697303,8000,23203.125,39424,128
63488,4.578857968,45193,3.259392769,1536,0.110778822,128,0.701599205,9728,23222.65625,40064,128
50172,3.618486359,51031,3.680438838,16384,1.181640766,128,1.486282526,20608,23242.1875,40704,128
49120,3.542614405,42476,3.063438304,12291,0.886446939,128,0.600845289,8331,23261.71875,41344,128
59903,4.320301929,43516,3.138444798,15,0.001081824,128,0.585339139,8116,23281.25,41984,128
47617,3.434215597,43691,3.151066083,139,0.010024906,128,0.563919015,7819,23300.78125,42624,128
48904,3.527036134,43791,3.158278246,127,0.009159447,128,0.559158988,7753,23320.3125,43264,128
47260,3.408468176,43689,3.15092184,143,0.010313393,128,0.556057758,7710,23339.84375,43904,128
47871,3.452534491,43743,3.154816408,120,0.008654595,128,0.552740163,7664,23359.375,44544,128
57357,4.136680262,43708,3.152292151,31,0.00223577,128,0.546537703,7578,23378.90625,45184,128
57440,4.142666357,43628,3.14652242,127,0.009159447,128,0.5428595,7527,23398.4375,45824,128
48119,3.470420655,43574,3.142627852,15,0.001081824,128,0.532185499,7379,23417.96875,46464,128
48892,3.526170674,43748,3.155177016,3,2.16E-04,128,0.54949469,7619,23437.5,47104,128
48796,3.519246998,43643,3.147604245,62,0.004471541,128,0.56810207,7877,23457.03125,47744,128
48880,3.525305215,43700,3.151715178,0,0,128,0.592190694,8211,23476.5625,48384,128
59426,4.285899912,43746,3.155032772,239,0.017237069,128,0.626087859,8681,23496.09375,49024,128
49150,3.544778054,44113,3.18150141,120,0.008654595,128,0.722081747,10012,23515.625,49664,128
48143,3.472151574,44297,3.19477179,127,0.009159447,128,0.783457253,10863,23535.15625,50304,128
57857,4.172741076,44866,3.235808997,455,0.032815341,128,0.789443349,10946,23554.6875,50944,128
61518,4.436778359,45148,3.256147296,496,0.035772328,128,0.768960806,10662,23574.21875,51584,128
48640,3.507996024,45178,3.258310945,95,0.006851555,128,0.667557796,9256,23593.75,52224,128
61679,4.448389941,45229,3.261989148,62,0.004471541,128,0.617649629,8564,23613.28125,52864,128
61376,4.426537088,44936,3.240857511,0,0,128,0.56060142,7773,23632.8125,53504,128
59391,4.283375655,44816,3.232202915,34,0.002452135,128,0.551081365,7641,23652.34375,54144,128
58884,4.246809989,44588,3.215759184,62,0.004471541,128,0.52605516,7294,23671.875,54784,128
49020,3.535402243,44551,3.213090684,1,7.21E-05,128,0.526848498,7305,23691.40625,55424,128
48560,3.502226293,44451,3.205878521,194,0.013991596,128,0.53269035,7386,23710.9375,56064,128
57536,4.149590033,44533,3.211792494,0,0,128,0.526704255,7303,23730.46875,56704,128
61187,4.4129061,44555,3.21337917,120,0.008654595,128,0.523891511,7264,23750,57344,128
65088,4.694252574,44803,3.231265334,2,1.44E-04,128,0.523458782,7258,23769.53125,57984,128
49151,3.544850176,44767,3.228668955,64,0.004615784,128,0.521655741,7233,23789.0625,58624,128
48896,3.526459161,44844,3.234222321,396,0.028560165,128,0.537522499,7453,23808.59375,59264,128
57351,4.136247532,44814,3.232058672,3,2.16E-04,128,0.525838795,7291,23828.125,59904,128
49060,3.538287108,44716,3.224990752,254,0.018318894,128,0.530526701,7356,23847.65625,60544,128
59007,4.255680949,44880,3.236818699,511,0.036854152,128,0.527425471,7313,23867.1875,61184,128
59135,4.264912518,44782,3.22975078,352,0.025386813,128,0.506077469,7017,23886.71875,61824,128
59279,4.275298032,44840,3.233933834,62,0.004471541,128,0.516246619,7158,23906.25,62464,128
58891,4.24731484,44699,3.223764685,15,0.001081824,128,0.522376957,7243,23925.78125,63104,128
48911,3.527540985,44741,3.226793793,56,0.004038811,128,0.53579158,7429,23945.3125,63744,128
49049,3.53749377,44721,3.22535136,31,0.00223577,128,0.532401864,7382,23964.84375,64384,128
49135,3.54369623,44941,3.241218119,273,0.019689205,128,0.536801283,7443,23984.375,65024,128
48644,3.50828451,44764,3.228452591,311,0.022429827,128,0.535719459,7428,24003.90625,128,128
48926,3.528622809,44824,3.232779888,32,0.002307892,128,0.538315837,7464,24023.4375,768,128
49027,3.535907094,44807,3.231553821,448,0.03231049,128,0.542571013,7523,24042.96875,1408,128
48671,3.510231794,44759,3.228091982,143,0.010313393,128,0.546609824,7579,24062.5,2048,128
49118,3.542470162,44799,3.230976848,190,0.013703109,128,0.544446176,7549,24082.03125,2688,128
59328,4.278831992,44869,3.236025362,508,0.036637787,128,0.552451676,7660,24101.5625,3328,128
59391,4.283375655,44789,3.230255631,408,0.029425625,128,0.548340744,7603,24121.09375,3968,128
61447,4.431657723,44912,3.239126592,159,0.011467339,128,0.559519596,7758,24140.625,4608,128
49151,3.544850176,44799,3.230976848,359,0.025891665,128,0.542643135,7524,24160.15625,5248,128
49151,3.544850176,45084,3.251531512,463,0.033392314,128,0.553317136,7672,24179.6875,5888,128
57735,4.163942237,44951,3.241939335,25,0.001803041,128,0.553389258,7673,24199.21875,6528,128
49006,3.53439254,45006,3.245906025,384,0.027694705,128,0.551802582,7651,24218.75,7168,128
59329,4.278904114,44995,3.245112687,56,0.004038811,128,0.570049354,7904,24238.28125,7808,128
47117,3.398154783,45101,3.252757579,3,2.16E-04,128,0.59558041,8258,24257.8125,8448,128
61568,4.44038444,45184,3.258743675,7,5.05E-04,128,0.628251508,8711,24277.34375,9088,128
61923,4.465987619,45415,3.275403771,895,0.064548858,128,0.655152876,9084,24296.875,9728,128
47310,3.412074257,45380,3.272879514,463,0.033392314,128,0.587647031,8148,24316.40625,10368,128
61432,4.430575899,44984,3.244319349,1,7.21E-05,128,0.519924822,7209,24335.9375,11008,128
49087,3.540234392,44853,3.234871415,1,7.21E-05,128,0.50167805,6956,24355.46875,11648,128
48688,3.511457862,45169,3.25766185,31,0.00223577,128,0.490931927,6807,24375,12288,128
61424,4.429998926,45199,3.259825499,57,0.004110933,128,0.528940025,7334,24394.53125,12928,128
62991,4.543013518,46735,3.370604321,1020,0.073564061,128,0.657460768,9116,24414.0625,13568,128
53240,3.839755516,53177,3.835211853,17392,1.254339368,128,1.238544731,17173,24433.59375,14208,128
62588,4.513948502,43214,3.116664066,12532,0.903828252,128,0.521367254,7229,24453.125,14848,128
49149,3.544705933,44517,3.210638548,0,0,128,0.544734662,7553,24472.65625,15488,128
49136,3.543768352,44716,3.224990752,321,0.023151043,128,0.513433875,7119,24492.1875,16128,128
61424,4.429998926,44913,3.239198713,985,0.071039804,128,0.514299335,7131,24511.71875,16768,128
49103,3.541388338,44793,3.230544118,280,0.020194056,128,0.498071968,6906,24531.25,17408,128
48855,3.523502174,44759,3.228091982,464,0.033464436,128,0.508890213,7056,24550.78125,18048,128
57392,4.139204519,44836,3.233645348,240,0.017309191,128,0.495114982,6865,24570.3125,18688,128
61064,4.40403514,44729,3.225928334,510,0.036782031,128,0.507592023,7038,24589.84375,19328,128
61312,4.421921304,44711,3.224630144,384,0.027694705,128,0.510909618,7084,24609.375,19968,128
61436,4.430864385,44720,3.225279239,8,5.77E-04,128,0.525983039,7293,24628.90625,20608,128
48900,3.526747647,44868,3.23595324,511,0.036854152,128,0.553821987,7679,24648.4375,21248,128
49007,3.534464661,45114,3.253695161,4,2.88E-04,128,0.575602719,7981,24667.96875,21888,128
61443,4.431369237,45059,3.249728471,46,0.003317595,128,0.64029582,8878,24687.5,22528,128
63613,4.587873171,45392,3.273744973,113,0.008149744,128,0.706287111,9793,24707.03125,23168,128
64367,4.642252879,45679,3.294443881,0,0,128,0.744295209,10320,24726.5625,23808,128
63741,4.59710474,45961,3.31478218,505,0.036421423,128,0.736289708,10209,24746.09375,24448,128
