Device,Device,Device,Device,Device,Device,Device,Device,Device,Device,Device,Device
ECG Vx-RL,ECG Vx-RL,ECG LA-RA,ECG LA-RA,ExG2 CH1,ExG2 CH1,EXG1 Status,ECG LL-RA,ECG LL-RA,Timestamp,Timestamp,EXG2 Status
RAW,CAL,CAL,RAW,CAL,RAW,RAW,CAL,RAW,CAL,RAW,RAW
No Units,mV,mV,No Units,mV,No Units,No Units,mV,No Units,mSecs,No Units,No Units
-10047,-0.724606004,6.400794554,88750,0.001803041,25,128,-16.37658612,-227069,58.59375,1920,128
-1276,-0.092027198,7.212667729,100007,0.455880815,6321,128,-15.46258872,-214396,78.125,2560,128
-3264,-0.235404996,6.117789283,84826,0.13061227,1811,128,-15.75742194,-218484,97.65625,3200,128
18207,1.313118495,6.122332945,84889,0.366954847,5088,128,-16.17096736,-224218,117.1875,3840,128
-60304,-4.349222702,6.322831073,87669,1.038479333,14399,128,-15.9006555,-220470,136.71875,4480,128
-59647,-4.301838792,6.340140264,87909,1.10786034,15361,128,-15.85262249,-219804,156.25,5120,128
-65526,-4.725841847,6.360190077,88187,1.145796316,15887,128,-15.8246393,-219416,175.78125,5760,128
-46855,-3.379258916,6.360045834,88185,1.172481319,16257,128,-15.79600701,-219019,195.3125,6400,128
-41345,-2.981868742,6.383052633,88504,1.047855144,14529,128,-15.7802845,-218801,214.84375,7040,128
-34752,-2.506370843,6.390769647,88611,1.036315684,14369,128,-15.75900862,-218506,234.375,7680,128
98288,7.088690649,6.159908314,85410,1.038407211,14398,128,-15.74206003,-218271,253.90625,8320,128
65031,4.690141641,4.709758724,65303,1.126539841,15620,128,-15.69712826,-217648,273.4375,8960,128
-8,-5.77E-04,4.717403617,65409,1.173491022,16271,128,-15.65616317,-217080,292.96875,9600,128
-32520,-2.345395368,4.744016498,65778,1.037613873,14387,128,-15.61736174,-216542,312.5,10240,128
-32257,-2.326427379,4.741564362,65744,0.95553946,13249,128,-15.60163922,-216324,332.03125,10880,128
114690,8.271629604,4.703412021,65215,0.952870959,13212,128,-15.63185819,-216743,351.5625,11520,128
64382,4.643334704,4.61261089,63956,1.16058125,16092,128,-15.71321138,-217871,371.09375,12160,128
63559,4.583978603,4.575973103,63448,1.18048682,16368,128,-15.74566612,-218321,390.625,12800,128
-388,-0.027983192,4.548206275,63063,1.180991671,16375,128,-15.76275894,-218558,410.15625,13440,128
65410,4.717475738,4.562702723,63264,1.050090915,14560,128,-15.76052317,-218527,429.6875,14080,128
-770,-0.055533654,4.555346317,63162,1.045691496,14499,128,-15.75424859,-218440,449.21875,14720,128
65410,4.717475738,4.561476655,63247,1.034224157,14340,128,-15.75085887,-218393,468.75,15360,128
263,0.018967988,4.563784547,63279,1.03393567,14336,128,-15.74299762,-218284,488.28125,16000,128
65283,4.708316291,4.577992508,63476,1.052398807,14592,128,-15.72777995,-218073,507.8125,16640,128
1792,0.129241959,4.568183967,63340,1.03393567,14336,128,-15.74674794,-218336,527.34375,17280,128
65327,4.711489643,4.576261589,63452,1.0343684,14342,128,-15.74501702,-218312,546.875,17920,128
2047,0.147632974,4.561332412,63245,1.040859346,14432,128,-15.75215706,-218411,566.40625,18560,128
1551,0.111860646,4.552605695,63124,1.047566658,14525,128,-15.75590739,-218463,585.9375,19200,128
1987,0.143305676,4.55635602,63176,1.048864847,14543,128,-15.75590739,-218463,605.46875,19840,128
-19,-0.001370311,4.561332412,63245,1.036027197,14365,128,-15.75446495,-218443,625,20480,128
124,0.008943082,4.551379627,63107,1.034945373,14350,128,-15.75922498,-218509,644.53125,21120,128
1022,0.073708305,4.559385128,63218,1.040787225,14431,128,-15.75648436,-218471,664.0625,21760,128
1536,0.110778822,4.558303304,63203,1.035161738,14353,128,-15.74869522,-218363,683.59375,22400,128
31,0.00223577,4.563207574,63271,1.036171441,14367,128,-15.75302252,-218423,703.125,23040,128
62,0.004471541,4.558808155,63210,1.061774619,14722,128,-15.74970493,-218377,722.65625,23680,128
2047,0.147632974,4.548999613,63074,1.108004583,15363,128,-15.72150537,-217986,742.1875,24320,128
1935,0.139555352,4.578857968,63488,1.144714492,15872,128,-15.68263181,-217447,761.71875,24960,128
6204,0.447442585,4.617010309,64017,1.172409197,16256,128,-15.63784428,-216826,781.25,25600,128
3192,0.230212239,4.605038119,63851,1.172337076,16255,128,-15.68472334,-217476,800.78125,26240,128
1968,0.141935365,4.551668114,63111,1.047855144,14529,128,-15.75244555,-218415,820.3125,26880,128
126,0.009087325,4.55549056,63164,1.05030728,14563,128,-15.75763831,-218487,839.84375,27520,128
1984,0.143089311,4.553326911,63134,1.070934066,14849,128,-15.76232621,-218552,859.375,28160,128
520,0.037503247,4.503202379,62439,1.052326685,14591,128,-15.80559919,-219152,878.90625,28800,128
8179,0.589882802,5.208984638,72225,0,0,128,-15.26331666,-211633,898.4375,29440,128
14368,1.036243562,5.378758952,74579,1.177024982,16320,128,-14.80512796,-205280,917.96875,30080,128
126,0.009087325,4.198632741,58216,1.043022995,14462,128,-15.79535792,-219010,937.5,30720,128
56,0.004038811,4.517266097,62634,1.180631063,16370,128,-15.7956464,-219014,957.03125,31360,128
65408,4.717331495,4.548711127,63070,1.099566352,15246,128,-15.74898371,-218367,976.5625,32000,128
2015,0.145325082,4.588233779,63618,1.10346092,15300,128,-15.72301992,-218007,996.09375,32640,128
-997,-0.071905264,4.597465348,63746,1.163249751,16129,128,-15.71321138,-217871,1015.625,33280,128
2048,0.147705096,4.608499957,63899,1.15877821,16067,128,-15.7176108,-217932,1035.15625,33920,128
-530,-0.038224463,4.620327904,64063,1.16368248,16135,128,-15.70087858,-217700,1054.6875,34560,128
2674,0.192853235,4.641964393,64363,1.16721644,16184,128,-15.68948337,-217542,1074.21875,35200,128
65520,4.725409117,4.674491247,64814,1.145868438,15888,128,-15.66027411,-217137,1093.75,35840,128
4045,0.291731988,4.700959885,65181,1.109519137,15384,128,-15.62017448,-216581,1113.28125,36480,128
0,0,4.733126132,65627,1.107211245,15352,128,-15.57264633,-215922,1132.8125,37120,128
252,0.01817465,4.766590567,66091,1.181568644,16383,128,-15.53261882,-215367,1152.34375,37760,128
207,0.014929177,4.710263575,65310,1.163393994,16131,128,-15.54906256,-215595,1171.875,38400,128
0,0,4.668000301,64724,1.107788218,15360,128,-15.60337014,-216348,1191.40625,39040,128
783,0.056471235,4.597609591,63748,1.165413399,16159,128,-15.67166932,-217295,1210.9375,39680,128
112,0.008077622,4.570708224,63375,1.149546641,15939,128,-15.70152768,-217709,1230.46875,40320,128
12,8.65E-04,4.581814954,63529,1.144786614,15873,128,-15.68984398,-217547,1250,40960,128
2020,0.14568569,4.587584685,63609,1.179332874,16352,128,-15.69251248,-217584,1269.53125,41600,128
504,0.036349301,4.577127049,63464,1.178323171,16338,128,-15.69236823,-217582,1289.0625,42240,128
1920,0.138473527,4.586647104,63596,1.175871036,16304,128,-15.68010756,-217412,1308.59375,42880,128
3741,0.269807013,4.589892577,63641,1.170101305,16224,128,-15.66986628,-217270,1328.125,43520,128
2288,0.165014287,4.584916185,63572,1.165485521,16160,128,-15.6662602,-217220,1347.65625,44160,128
3161,0.227976469,4.596599888,63734,1.181208036,16378,128,-15.6695778,-217266,1367.1875,44800,128
2053,0.148065704,4.584988306,63573,1.177024982,16320,128,-15.66972204,-217268,1386.71875,45440,128
2063,0.14878692,4.592849564,63682,1.179693482,16357,128,-15.67289539,-217312,1406.25,46080,128
211,0.015217664,4.589459847,63635,1.181568644,16383,128,-15.66835173,-217249,1425.78125,46720,128
3326,0.239876537,4.586574982,63595,1.172841927,16262,128,-15.68522819,-217483,1445.3125,47360,128
6144,0.443115287,4.59400351,63698,1.172409197,16256,128,-15.67830451,-217387,1464.84375,48000,128
2056,0.148282069,4.587224077,63604,1.181568644,16383,128,-15.68349727,-217459,1484.375,48640,128
7399,0.533627931,4.599701118,63777,1.145724195,15886,128,-15.67174145,-217296,1503.90625,49280,128
6144,0.443115287,4.583617995,63554,1.180558941,16369,128,-15.67347237,-217320,1523.4375,49920,128
6198,0.447009855,4.599556875,63775,1.107788218,15360,128,-15.63863762,-216837,1542.96875,50560,128
7168,0.516967835,4.61174543,63944,1.164836426,16151,128,-15.6112314,-216457,1562.5,51200,128
7680,0.553894109,4.63871892,64318,1.107788218,15360,128,-15.57718999,-215985,1582.03125,51840,128
8189,0.590604018,4.64758988,64441,1.105985177,15335,128,-15.5888737,-216147,1601.5625,52480,128
7814,0.563558407,4.59270532,63680,1.165341278,16158,128,-15.67376085,-217324,1621.09375,53120,128
7809,0.563197799,4.586647104,63596,1.179549239,16355,128,-15.67902573,-217397,1640.625,53760,128
7168,0.516967835,4.59003682,63643,1.146950262,15903,128,-15.68840154,-217527,1660.15625,54400,128
8079,0.582670639,4.565587588,63304,1.181568644,16383,128,-15.71991869,-217964,1679.6875,55040,128
7175,0.517472686,4.654152948,64532,0.214561846,2975,128,-15.74739704,-218345,1699.21875,55680,128
310,0.022357705,5.592599582,77544,1.460895712,20256,128,-14.67458781,-203470,1718.75,56320,128
79,0.005697609,4.289145385,59471,1.111827029,15416,128,-15.63409396,-216774,1738.28125,56960,128
1827,0.131766216,4.52714676,62771,1.181568644,16383,128,-15.77768812,-218765,1757.8125,57600,128
6232,0.449461991,4.603595686,63831,1.177024982,16320,128,-15.67945846,-217403,1777.34375,58240,128
7041,0.507808388,4.624510959,64121,1.17471709,16288,128,-15.66835173,-217249,1796.875,58880,128
7161,0.516462984,4.644128042,64393,1.113341583,15437,128,-15.64866253,-216976,1816.40625,59520,128
8064,0.581588814,4.664177855,64671,1.18048682,16368,128,-15.63849338,-216835,1835.9375,60160,128
8185,0.590315532,4.664177855,64671,1.067327984,14799,128,-15.63870974,-216838,1855.46875,60800,128
8061,0.58137245,4.679323397,64881,1.109951867,15390,128,-15.63611336,-216802,1875,61440,128
8177,0.589738558,4.711129035,65322,1.124448314,15591,128,-15.6069041,-216397,1894.53125,62080,128
65,0.004687906,4.74192497,65749,1.179837725,16359,128,-15.58714278,-216123,1914.0625,62720,128
448,0.03231049,4.801064706,66569,1.151782412,15970,128,-15.52958972,-215325,1933.59375,63360,128
1799,0.12974681,4.814262964,66752,1.181568644,16383,128,-15.48999494,-214776,1953.125,64000,128
143,0.010313393,4.784260366,66336,1.054273969,14618,128,-15.5095399,-215047,1972.65625,64640,128
237,0.017092826,4.715456333,65382,1.177024982,16320,128,-15.56276567,-215785,1992.1875,65280,128
7235,0.521799984,4.677159748,64851,1.071799525,14861,128,-15.61772235,-216547,2011.71875,384,128
6254,0.451048666,4.630424932,64203,1.039777522,14417,128,-15.64527281,-216929,2031.25,1024,128
6375,0.459775383,4.627828554,64167,1.035017495,14351,128,-15.65565832,-217073,2050.78125,1664,128
2795,0.201579952,4.637204365,64297,1.107788218,15360,128,-15.64368613,-216907,2070.3125,2304,128
7936,0.572357246,4.621121242,64074,1.180558941,16369,128,-15.65753349,-217099,2089.84375,2944,128
7158,0.516246619,4.632444338,64231,1.112331881,15423,128,-15.6475807,-216961,2109.375,3584,128
3976,0.286755596,4.649537164,64468,1.121635571,15552,128,-15.62601633,-216662,2128.90625,4224,128
6351,0.458044464,4.640017109,64336,1.119183435,15518,128,-15.62854059,-216697,2148.4375,4864,128
6968,0.502543509,4.638069825,64309,1.116370692,15479,128,-15.62861271,-216698,2167.96875,5504,128
7168,0.516967835,4.657903273,64584,1.145796316,15887,128,-15.61887629,-216563,2187.5,6144,128
2432,0.175399801,4.653648097,64525,1.109014286,15377,128,-15.62796362,-216689,2207.03125,6784,128
6272,0.452346856,4.643478947,64384,1.107788218,15360,128,-15.63770004,-216824,2226.5625,7424,128
3847,0.277451906,4.637060122,64295,1.052326685,14591,128,-15.64599402,-216939,2246.09375,8064,128
14798,1.067255863,4.650763232,64485,1.110023988,15391,128,-15.63553639,-216794,2265.625,8704,128
7132,0.514371456,4.646363812,64424,1.12560226,15607,128,-15.64080127,-216867,2285.15625,9344,128
8191,0.590748261,4.635689811,64276,1.1167313,15484,128,-15.64476796,-216922,2304.6875,9984,128
4093,0.295193827,4.649897772,64473,1.109230651,15380,128,-15.64145036,-216876,2324.21875,10624,128
7992,0.576396057,4.641748028,64360,1.112187637,15421,128,-15.60748108,-216405,2343.75,11264,128
8127,0.586132477,4.646580177,64427,1.179332874,16352,128,-15.58519549,-216096,2363.28125,11904,128
15872,1.144714492,4.678169451,64865,1.142695086,15844,128,-15.55057711,-215616,2382.8125,12544,128
8177,0.589738558,4.70471021,65233,1.116370692,15479,128,-15.558222,-215722,2402.34375,13184,128
8188,0.590531896,4.648238975,64450,1.067327984,14799,128,-15.63777216,-216825,2421.875,13824,128
16383,1.181568644,4.641603785,64358,1.123871341,15583,128,-15.64815767,-216969,2441.40625,14464,128
6196,0.446865612,4.63828619,64312,1.112043394,15419,128,-15.66200503,-217161,2460.9375,15104,128
16175,1.166567345,4.630064324,64198,1.177024982,16320,128,-15.67549177,-217348,2480.46875,15744,128
7422,0.535286729,4.670885166,64764,0.138473527,1920,128,-15.70910045,-217814,2500,16384,128
511,0.036854152,5.708066309,79145,1.720822063,23860,128,-14.5405137,-201611,2519.53125,17024,128
2844,0.205113912,4.347780269,60284,1.172841927,16262,128,-15.515526,-215130,2539.0625,17664,128
13303,0.959434028,4.578208873,63479,1.163105507,16127,128,-15.7332612,-218149,2558.59375,18304,128
7683,0.554110474,4.653215367,64519,1.162889142,16124,128,-15.64137824,-216875,2578.125,18944,128
15612,1.125962868,4.682785235,64929,1.135410802,15743,128,-15.6138999,-216494,2597.65625,19584,128
8160,0.588512491,4.689997398,65029,1.145724195,15886,128,-15.60971685,-216436,2617.1875,20224,128
15968,1.151638168,4.697498047,65133,1.165269156,16157,128,-15.5995477,-216295,2636.71875,20864,128
16383,1.181568644,4.717187252,65406,1.172409197,16256,128,-15.59074886,-216173,2656.25,21504,128
16376,1.181063793,4.72598609,65528,1.116659178,15483,128,-15.57632453,-215973,2675.78125,22144,128
3,2.16E-04,4.758440823,65978,1.130506531,15675,128,-15.54538435,-215544,2695.3125,22784,128
1539,0.110995187,4.804670787,66619,1.112259759,15422,128,-15.50600594,-214998,2714.84375,23424,128
7,5.05E-04,4.841813426,67134,1.144714492,15872,128,-15.45003956,-214222,2734.375,24064,128
2023,0.145902055,4.851694089,67271,1.179549239,16355,128,-15.43071096,-213954,2753.90625,24704,128
2031,0.146479028,4.835971574,67053,1.112259759,15422,128,-15.41253631,-213702,2773.4375,25344,128
1023,0.073780426,4.766013594,66083,1.106634272,15344,128,-15.48126822,-214655,2792.96875,25984,128
16318,1.176880738,4.703339899,65214,1.179837725,16359,128,-15.52937335,-215322,2812.5,26624,128
7171,0.5171842,4.65775903,64582,1.164259453,16143,128,-15.56211657,-215776,2832.03125,27264,128
16383,1.181568644,4.651412326,64494,1.116442813,15480,128,-15.574233,-215944,2851.5625,27904,128
8191,0.590748261,4.640738325,64346,1.108581556,15371,128,-15.57632453,-215973,2871.09375,28544,128
15457,1.114784016,4.659706314,64609,1.112331881,15423,128,-15.5608905,-215759,2890.625,29184,128
7171,0.5171842,4.665476044,64689,1.125097409,15600,128,-15.54495162,-215538,2910.15625,29824,128
7196,0.518987241,4.659634192,64608,1.125890747,15611,128,-15.54718739,-215569,2929.6875,30464,128
7279,0.524973336,4.660716016,64623,1.153369087,15992,128,-15.5378837,-215440,2949.21875,31104,128
7180,0.517833295,4.666918476,64709,1.145579951,15884,128,-15.54459101,-215533,2968.75,31744,128
16096,1.160869737,4.664826949,64680,1.117236151,15491,128,-15.55497653,-215677,2988.28125,32384,128
3183,0.229563144,4.661509354,64634,1.120986476,15543,128,-15.55079348,-215619,3007.8125,33024,128
16011,1.154739398,4.665043314,64683,1.114423408,15452,128,-15.55778927,-215716,3027.34375,33664,128
8160,0.588512491,4.651772934,64499,1.11009611,15392,128,-15.56766994,-215853,3046.875,34304,128
15487,1.116947665,4.666557868,64704,1.116947665,15487,128,-15.56125111,-215764,3066.40625,34944,128
7936,0.572357246,4.636915879,64293,1.116514935,15481,128,-15.56709296,-215845,3085.9375,35584,128
7223,0.520934525,4.659201462,64602,1.107788218,15360,128,-15.56572265,-215826,3105.46875,36224,128
7039,0.507664145,4.64052196,64343,1.11586584,15472,128,-15.5769015,-215981,3125,36864,128
14336,1.03393567,4.638791041,64319,1.110023988,15391,128,-15.57358391,-215935,3144.53125,37504,128
8095,0.583824585,4.627251581,64159,1.177674076,16329,128,-15.5855561,-216101,3164.0625,38144,128
6403,0.461794789,4.637925582,64307,1.178106806,16335,128,-15.58577246,-216104,3183.59375,38784,128
6351,0.458044464,4.630352811,64202,1.116947665,15487,128,-15.54718739,-215569,3203.125,39424,128
8174,0.589522194,4.651051718,64489,1.167504927,16188,128,-15.52129573,-215210,3222.65625,40064,128
7683,0.554110474,4.674851856,64819,1.117524638,15495,128,-15.4865331,-214728,3242.1875,40704,128
7183,0.518049659,4.656100232,64559,1.179332874,16352,128,-15.52028603,-215196,3261.71875,41344,128
7711,0.556129879,4.606264187,63868,1.181352279,16380,128,-15.58699853,-216121,3281.25,41984,128
7201,0.519347849,4.600278091,63785,1.17471709,16288,128,-15.60769744,-216408,3300.78125,42624,128
14398,1.038407211,4.588594388,63623,1.163105507,16127,128,-15.62003024,-216579,3320.3125,43264,128
4607,0.332264344,4.578713724,63486,1.034584765,14345,128,-15.64570554,-216935,3339.84375,43904,128
16323,1.177241347,5.055077083,70091,0.29533807,4095,128,-15.33904437,-212683,3359.375,44544,128
16371,1.180703185,5.612072422,77814,1.164259453,16143,128,-14.56315989,-201925,3378.90625,45184,128
8446,0.609139277,4.264263423,59126,1.13490595,15736,128,-15.55908746,-215734,3398.4375,45824,128
3829,0.276153717,4.512938799,62574,1.145147222,15878,128,-15.69619068,-217635,3417.96875,46464,128
7967,0.574593016,4.56255848,63262,1.181568644,16383,128,-15.62450178,-216641,3437.5,47104,128
15999,1.153873939,4.592272591,63674,1.177313468,16324,128,-15.59233553,-216195,3457.03125,47744,128
6286,0.453356558,4.609581782,63914,1.177024982,16320,128,-15.58577246,-216104,3476.5625,48384,128
14688,1.059322483,4.624006107,64114,1.16721644,16184,128,-15.58663792,-216116,3496.09375,49024,128
14412,1.039416914,4.621265485,64076,1.10786034,15361,128,-15.57704575,-215983,3515.625,49664,128
16163,1.165701886,4.637925582,64307,1.107788218,15360,128,-15.56399173,-215802,3535.15625,50304,128
14731,1.062423713,4.6599948,64613,1.116947665,15487,128,-15.54675466,-215563,3554.6875,50944,128
15616,1.126251355,4.678097329,64864,1.17695286,16319,128,-15.53362853,-215381,3574.21875,51584,128
112,0.008077622,4.745747417,65802,1.177097103,16321,128,-15.45537656,-214296,3593.75,52224,128
14,0.001009703,4.743728011,65774,1.107788218,15360,128,-15.43503826,-214014,3613.28125,52864,128
120,0.008654595,4.722235766,65476,1.180558941,16369,128,-15.44441407,-214144,3632.8125,53504,128
15978,1.152359385,4.660355408,64618,1.045186644,14492,128,-15.49778408,-214884,3652.34375,54144,128
14596,1.052687294,4.581237981,63521,1.172914049,16263,128,-15.57077117,-215896,3671.875,54784,128
13075,0.942990296,4.543590491,62999,1.145147222,15878,128,-15.60337014,-216348,3691.40625,55424,128
15903,1.146950262,4.554769344,63154,1.153873939,15999,128,-15.60149498,-216322,3710.9375,56064,128
7999,0.576900909,4.555346317,63162,1.148969668,15931,128,-15.60113437,-216317,3730.46875,56704,128
13788,0.994413018,4.529238287,62800,1.144714492,15872,128,-15.61462112,-216504,3750,57344,128
6143,0.443043166,4.560539074,63234,1.164187332,16142,128,-15.58800824,-216135,3769.53125,57984,128
7823,0.564207502,4.554120249,63145,1.107788218,15360,128,-15.58151729,-216045,3789.0625,58624,128
4111,0.296492016,4.564145155,63284,1.179909847,16360,128,-15.58094032,-216037,3808.59375,59264,128
13299,0.959145541,4.573304602,63411,1.107788218,15360,128,-15.5722136,-215916,3828.125,59904,128
12614,0.909742225,4.577343414,63467,1.11009611,15392,128,-15.57134814,-215904,3847.65625,60544,128
13063,0.942124837,4.563207574,63271,1.108797921,15374,128,-15.57957,-216018,3867.1875,61184,128
8160,0.588512491,4.576694319,63458,1.118101611,15503,128,-15.57257421,-215921,3886.71875,61824,128
6129,0.442033463,4.562342115,63259,1.164331575,16144,128,-15.58699853,-216121,3906.25,62464,128
8132,0.586493085,4.574602792,63429,1.18091955,16374,128,-15.58591671,-216106,3925.78125,63104,128
6129,0.442033463,4.557293601,63189,1.107788218,15360,128,-15.55742866,-215711,3945.3125,63744,128
7941,0.572717854,4.564217277,63285,1.177024982,16320,128,-15.53168124,-215354,3964.84375,64384,128
6392,0.461001451,4.610158755,63922,1.107788218,15360,128,-15.48905736,-214763,3984.375,65024,128
7230,0.521439376,4.60640843,63870,1.144714492,15872,128,-15.53442187,-215392,4003.90625,128,128
1724,0.124337688,4.553831763,63141,1.10699488,15349,128,-15.60214407,-216331,4023.4375,768,128
13246,0.955323095,4.560683317,63236,1.153873939,15999,128,-15.61101504,-216454,4042.96875,1408,128
1551,0.111860646,4.54842264,63066,1.116514935,15481,128,-15.62940605,-216709,4062.5,2048,128
8127,0.586132477,4.510270299,62537,1.112331881,15423,128,-15.6705875,-217280,4082.03125,2688,128
8186,0.590387653,4.716321792,65394,0.037791733,524,128,-15.61541445,-216515,4101.5625,3328,128
16353,1.179404995,5.304762161,73553,2.058639772,28544,128,-14.70711466,-203921,4121.09375,3968,128
199,0.014352204,4.237794785,58759,0.849376422,11777,128,-15.68436273,-217471,4140.625,4608,128
4031,0.290722286,4.425094655,61356,0,0,128,-15.78771303,-218904,4160.15625,5248,128
2016,0.145397204,4.571934291,63392,1.179332874,16352,128,-15.62212177,-216608,4179.6875,5888,128
6211,0.447947436,4.59313805,63686,1.181496523,16382,128,-15.60726471,-216402,4199.21875,6528,128
16271,1.173491022,4.603090835,63824,1.176448009,16312,128,-15.59082098,-216174,4218.75,7168,128
7420,0.535142486,4.615495755,63996,1.173563143,16272,128,-15.58865733,-216144,4238.28125,7808,128
15903,1.146950262,4.632300095,64229,1.108870042,15375,128,-15.5758918,-215967,4257.8125,8448,128
6536,0.471386966,4.644128042,64393,1.121779814,15554,128,-15.56774206,-215854,4277.34375,9088,128
16369,1.180558941,4.676438531,64841,1.149330276,15936,128,-15.54185039,-215495,4296.875,9728,128
16252,1.172120711,4.717043008,65404,1.162817021,16123,128,-15.49439436,-214837,4316.40625,10368,128
444,0.032022003,4.748199552,65836,1.181352279,16380,128,-15.44585651,-214164,4335.9375,11008,128
543,0.039162044,4.781375501,66296,1.149258155,15935,128,-15.4074878,-213632,4355.46875,11648,128
3,2.16E-04,4.734280078,65643,1.108653678,15372,128,-15.42537396,-213880,4375,12288,128
16383,1.181568644,4.630280689,64201,1.06624616,14784,128,-15.51509327,-215124,4394.53125,12928,128
14409,1.039200549,4.593354415,63689,1.107788218,15360,128,-15.55771715,-215715,4414.0625,13568,128
15872,1.144714492,4.542148059,62979,1.151854533,15971,128,-15.60647137,-216391,4433.59375,14208,128
12544,0.904693711,4.529021922,62797,1.179404995,16353,128,-15.60127862,-216319,4453.125,14848,128
16062,1.158417601,4.518708529,62654,1.145002978,15876,128,-15.61952539,-216572,4472.65625,15488,128
7552,0.544662541,4.524117651,62729,1.173274657,16268,128,-15.60885139,-216424,4492.1875,16128,128
15420,1.112115516,4.527507368,62776,1.177529833,16327,128,-15.59161432,-216185,4511.71875,16768,128
5617,0.405107189,4.52981526,62808,1.179332874,16352,128,-15.58339245,-216071,4531.25,17408,128
15619,1.12646772,4.5262813,62759,1.179332874,16352,128,-15.58505125,-216094,4550.78125,18048,128
13535,0.976166245,4.532195274,62841,1.177890441,16332,128,-15.58447428,-216086,4570.3125,18688,128
15878,1.145147222,4.515246691,62606,1.163249751,16129,128,-15.60012467,-216303,4589.84375,19328,128
6112,0.440807395,4.510703029,62543,1.16721644,16184,128,-15.59731193,-216264,4609.375,19968,128
7688,0.554471082,4.509044231,62520,1.163754602,16136,128,-15.60062952,-216310,4628.90625,20608,128
7152,0.515813889,4.50413996,62452,1.163177629,16128,128,-15.60135074,-216320,4648.4375,21248,128
14432,1.040859346,4.491374432,62275,1.177457711,16326,128,-15.60913987,-216428,4667.96875,21888,128
13071,0.94270181,4.489427148,62248,1.179549239,16355,128,-15.60575016,-216381,4687.5,22528,128
4927,0.355343265,4.472550687,62014,1.143993276,15862,128,-15.61786659,-216549,4707.03125,23168,128
12310,0.88781725,4.476589498,62070,1.181568644,16383,128,-15.619886,-216577,4726.5625,23808,128
4174,0.301035679,4.472117957,62008,1.165701886,16163,128,-15.62154479,-216600,4746.09375,24448,128
6587,0.475065169,4.463102754,61883,1.126179233,15615,128,-15.62046297,-216585,4765.625,25088,128
6256,0.45119291,4.467285808,61941,1.108365191,15368,128,-15.57747848,-215989,4785.15625,25728,128
7903,0.569977232,4.483513174,62166,1.165197035,16156,128,-15.54451889,-215532,4804.6875,26368,128
8190,0.59067614,4.504861177,62462,1.164331575,16144,128,-15.52583939,-215273,4824.21875,27008,128
4124,0.297429597,4.475219187,62051,1.109591259,15385,128,-15.59601374,-216246,4843.75,27648,128
6192,0.446577125,4.434903197,61492,1.111827029,15416,128,-15.6342382,-216776,4863.28125,28288,128
4215,0.303992665,4.436345629,61512,1.126323477,15617,128,-15.65702863,-217092,4882.8125,28928,128
127,0.009159447,4.437355332,61526,1.112331881,15423,128,-15.65262921,-217031,4902.34375,29568,128
130,0.009375812,4.377999232,60703,1.1734189,16270,128,-15.71335563,-217873,4921.875,30208,128
4120,0.297141111,5.108663453,70834,1.319825807,18300,128,-15.13082923,-209796,4941.40625,30848,128
6384,0.460424478,5.242593317,72691,0.664095958,9208,128,-14.71562501,-204039,4960.9375,31488,128
114,0.008221866,4.179736874,57954,1.137862937,15777,128,-15.8573104,-219869,4980.46875,32128,128
2044,0.147416609,4.387375043,60833,1.175943157,16305,128,-15.69936403,-217679,5000,32768,128
7361,0.530887309,4.442908697,61603,1.172481319,16257,128,-15.65075405,-217005,5019.53125,33408,128
4351,0.313801207,4.444567495,61626,1.116947665,15487,128,-15.64080127,-216867,5039.0625,34048,128
12679,0.914430131,4.465338524,61914,1.135555045,15745,128,-15.6342382,-216776,5058.59375,34688,128
508,0.036637787,4.45632332,61789,1.112331881,15423,128,-15.64354189,-216905,5078.125,35328,128
7687,0.55439896,4.473199782,62023,1.144930857,15875,128,-15.61959751,-216573,5097.65625,35968,128
871,0.062817939,4.491662919,62279,1.147310871,15908,128,-15.6172175,-216540,5117.1875,36608,128
7180,0.517833295,4.524406138,62733,1.178106806,16335,128,-15.5898834,-216161,5136.71875,37248,128
768,0.055389411,4.563928791,63281,1.163177629,16128,128,-15.5401916,-215472,5156.25,37888,128
16256,1.172409197,4.598475051,63760,1.158561845,16064,128,-15.4945386,-214839,5175.78125,38528,128
16237,1.171038886,4.604100538,63838,1.14464237,15871,128,-15.46244448,-214394,5195.3125,39168,128
13200,0.9520055,4.554697222,63153,1.042950874,14461,128,-15.50203925,-214943,5214.84375,39808,128
12515,0.902602184,4.502841771,62434,1.181568644,16383,128,-15.55526502,-215681,5234.375,40448,128
7688,0.554471082,4.436417751,61513,1.112043394,15419,128,-15.62479027,-216645,5253.90625,41088,128
9156,0.660345633,4.417594006,61252,1.126179233,15615,128,-15.63892611,-216841,5273.4375,41728,128
4047,0.291876232,4.418098857,61259,1.110600962,15399,128,-15.6539274,-217049,5292.96875,42368,128
10232,0.737948506,4.413915803,61201,1.108293069,15367,128,-15.65522559,-217067,5312.5,43008,128
12276,0.885365115,4.433028034,61466,1.124015584,15585,128,-15.635897,-216799,5332.03125,43648,128
4001,0.288558637,4.424445561,61347,1.116947665,15487,128,-15.6332285,-216762,5351.5625,44288,128
7168,0.516967835,4.434758953,61490,1.124808922,15596,128,-15.619886,-216577,5371.09375,44928,128
16191,1.167721292,4.43548017,61500,1.145002978,15876,128,-15.61433263,-216500,5390.625,45568,128
14463,1.043095117,4.436417751,61513,1.12603499,15613,128,-15.62233813,-216611,5410.15625,46208,128
4112,0.296564138,4.437211089,61524,1.118173733,15504,128,-15.62781937,-216687,5429.6875,46848,128
14543,1.048864847,4.446731144,61656,1.126179233,15615,128,-15.62796362,-216689,5449.21875,47488,128
12444,0.897481548,4.441538387,61584,1.143993276,15862,128,-15.62515087,-216650,5468.75,48128,128
10183,0.734414546,4.427041939,61383,1.126179233,15615,128,-15.63863762,-216837,5488.28125,48768,128
4099,0.295626556,4.430359534,61429,1.108004583,15363,128,-15.65140315,-217014,5507.8125,49408,128
8699,0.627386049,4.430720142,61434,1.114928259,15459,128,-15.63113697,-216733,5527.34375,50048,128
9200,0.663518985,4.416584303,61238,1.123943463,15584,128,-15.6405849,-216864,5546.875,50688,128
3840,0.276947054,4.418747952,61268,1.12379922,15582,128,-15.64072915,-216866,5566.40625,51328,128
4095,0.29533807,4.418315222,61262,1.107788218,15360,128,-15.63784428,-216826,5585.9375,51968,128
10112,0.72929391,4.422065547,61314,1.160292764,16088,128,-15.60416348,-216359,5605.46875,52608,128
12291,0.886446939,4.43194621,61451,1.110023988,15391,128,-15.56680448,-215841,5625,53248,128
4576,0.330028573,4.485676823,62196,1.180414698,16367,128,-15.52100724,-215206,5644.53125,53888,128
6159,0.444197112,4.461948807,61867,1.124159828,15587,128,-15.57026631,-215889,5664.0625,54528,128
4064,0.293102299,4.411896397,61173,1.108870042,15375,128,-15.64419098,-216914,5683.59375,55168,128
8560,0.617361142,4.420983722,61299,1.172409197,16256,128,-15.62846847,-216696,5703.125,55808,128
1920,0.138473527,4.386942314,60827,1.16368248,16135,128,-15.67412146,-217329,5722.65625,56448,128
3726,0.268725189,4.333932916,60092,1.181063793,16376,128,-15.70513376,-217759,5742.1875,57088,128
3647,0.26302758,4.665548166,64690,0.035916571,498,128,-15.55851049,-215726,5761.71875,57728,128
287,0.020698907,4.973146912,68955,0.285241042,3955,128,-14.85460339,-205966,5781.25,58368,128
7423,0.53535885,4.079992661,56571,0.833076934,11551,128,-15.78201542,-218825,5800.78125,59008,128
63,0.004543663,4.376989529,60689,1.181352279,16380,128,-15.68169423,-217434,5820.3125,59648,128
3999,0.288414393,4.414637019,61211,1.177169225,16322,128,-15.62341996,-216626,5839.84375,60288,128
1920,0.138473527,4.425094655,61356,1.179332874,16352,128,-15.61202474,-216468,5859.375,60928,128
241,0.017381313,4.4439184,61617,1.16187944,16110,128,-15.6052453,-216374,5878.90625,61568,128
5015,0.361689968,4.469737943,61975,1.144930857,15875,128,-15.57776696,-215993,5898.4375,62208,128
5104,0.368108793,4.486686526,62210,1.109807624,15388,128,-15.56290991,-215787,5917.96875,62848,128
8184,0.59024341,4.502697528,62432,1.12603499,15613,128,-15.56752569,-215851,5937.5,63488,128
5245,0.378277943,4.541715329,62973,1.18048682,16368,128,-15.53326792,-215376,5957.03125,64128,128
6001,0.432801894,4.568833061,63349,1.117019786,15488,128,-15.49980348,-214912,5976.5625,64768,128
14847,1.070789822,4.624294594,64118,1.181496523,16382,128,-15.4294849,-213937,5996.09375,65408,128
8126,0.586060355,4.628189162,64172,1.107788218,15360,128,-15.41441147,-213728,6015.625,512,128
8175,0.589594315,4.612106039,63949,1.179332874,16352,128,-15.41397875,-213722,6035.15625,1152,128
12409,0.894957291,4.522963705,62713,1.034296278,14341,128,-15.49944288,-214907,6054.6875,1792,128
7112,0.512929024,4.483657418,62168,1.164908548,16152,128,-15.53997523,-215469,6074.21875,2432,128
7287,0.525550309,4.439663224,61558,1.181352279,16380,128,-15.57942576,-216016,6093.75,3072,128
12319,0.888466345,4.43771594,61531,1.181352279,16380,128,-15.58779187,-216132,6113.28125,3712,128
14457,1.042662387,4.420118263,61287,1.179332874,16352,128,-15.60062952,-216310,6132.8125,4352,128
6396,0.461289938,4.444206887,61621,1.109951867,15390,128,-15.57610817,-215970,6152.34375,4992,128
14351,1.035017495,4.441105657,61578,1.115144624,15462,128,-15.55663533,-215700,6171.875,5632,128
6527,0.470737871,4.458631213,61821,1.177241347,16323,128,-15.5405522,-215477,6191.40625,6272,128
12319,0.888466345,4.448822671,61685,1.125313774,15603,128,-15.55036075,-215613,6210.9375,6912,128
7623,0.549783176,4.46382397,61893,1.141180532,15823,128,-15.55447168,-215670,6230.46875,7552,128
14367,1.036171441,4.464761551,61906,1.152792114,15984,128,-15.53745097,-215434,6250,8192,128
6651,0.479680953,4.458486969,61819,1.14110841,15822,128,-15.54956741,-215602,6269.53125,8832,128
4352,0.313873328,4.449616009,61696,1.116442813,15480,128,-15.55562562,-215686,6289.0625,9472,128
14367,1.036171441,4.453366334,61748,1.116514935,15481,128,-15.55569775,-215687,6308.59375,10112,128
7295,0.526127282,4.449255401,61691,1.108293069,15367,128,-15.55476016,-215674,6328.125,10752,128
12412,0.895173656,4.438942008,61548,1.111250056,15408,128,-15.56666023,-215839,6347.65625,11392,128
12291,0.886446939,4.452140266,61731,1.117019786,15488,128,-15.55504865,-215678,6367.1875,12032,128
12403,0.894524562,4.439374738,61554,1.163177629,16128,128,-15.52576727,-215272,6386.71875,12672,128
15881,1.145363587,4.468728241,61961,1.140170829,15809,128,-15.48097974,-214651,6406.25,13312,128
7936,0.572357246,4.487119256,62216,1.181568644,16383,128,-15.46698814,-214457,6425.78125,13952,128
13055,0.941547864,4.482791958,62156,1.10786034,15361,128,-15.50694352,-215011,6445.3125,14592,128
12400,0.894308197,4.447596603,61668,1.122717395,15567,128,-15.54949529,-215601,6464.84375,15232,128
12294,0.886663304,4.461588199,61862,1.138944762,15792,128,-15.55151469,-215629,6484.375,15872,128
15367,1.108293069,4.454736645,61767,1.112404002,15424,128,-15.56846327,-215864,6503.90625,16512,128
6184,0.446000152,4.434037737,61480,1.098845136,15236,128,-15.60106225,-216316,6523.4375,17152,128
224,0.016155245,4.890423404,67808,1.197796011,16608,128,-15.32901947,-212544,6542.96875,17792,128
512,0.036926274,5.514996709,76468,2.222500112,30816,128,-14.45807868,-200468,6562.5,18432,128
8991,0.648445564,4.174904725,57887,1.0343684,14342,128,-15.75554678,-218458,6582.03125,19072,128
82,0.005913974,4.39119749,60886,0.014929177,207,128,-15.66027411,-217137,6601.5625,19712,128
4096,0.295410191,4.491446554,62276,0.004543663,63,128,-15.55108196,-215623,6621.09375,20352,128
4607,0.332264344,4.504933298,62463,1.163105507,16127,128,-15.52771455,-215299,6640.625,20992,128
7171,0.5171842,4.514453353,62595,1.170173427,16225,128,-15.52006966,-215193,6660.15625,21632,128
7938,0.572501489,4.527363125,62774,1.181568644,16383,128,-15.50990051,-215052,6679.6875,22272,128
7679,0.553821987,4.541354721,62968,1.145652073,15885,128,-15.50809747,-215027,6699.21875,22912,128
14095,1.016554358,4.572799751,63404,1.179332874,16352,128,-15.48977858,-214773,6718.75,23552,128
6271,0.452274734,4.585565279,63581,1.179332874,16352,128,-15.4738397,-214552,6738.28125,24192,128
0,0,4.702474439,65202,0.018246772,253,128,-15.36832575,-213089,6777.34375,25472,0
8190,0.59067614,4.710263575,65310,0.008149744,113,128,-15.34185712,-212722,6796.875,26112,128
8190,0.59067614,4.676582775,64843,0.013991596,194,128,-15.35231475,-212867,6816.40625,26752,128
7940,0.572645732,4.629198865,64186,1.144714492,15872,128,-15.39025073,-213393,6835.9375,27392,128
6137,0.442610436,4.543374126,62996,1.107716096,15359,128,-15.47975367,-214634,6855.46875,28032,128
8190,0.59067614,4.515607299,62611,1.116947665,15487,128,-15.49158162,-214798,6875,28672,128
7232,0.521583619,4.507096947,62493,1.111394299,15410,128,-15.50377017,-214967,6894.53125,29312,128
8056,0.581011841,4.495196878,62328,1.108293069,15367,128,-15.51235265,-215086,6914.0625,29952,128
7736,0.55793292,4.520583692,62680,1.144714492,15872,128,-15.49006706,-214777,6933.59375,30592,128
5104,0.368108793,4.511496366,62554,1.163249751,16129,128,-15.49035555,-214781,6953.125,31232,128
12431,0.896543967,4.520439448,62678,1.143560546,15856,128,-15.47629183,-214586,6972.65625,31872,128
7967,0.574593016,4.535729234,62890,1.14464237,15871,128,-15.47412818,-214556,6992.1875,32512,128
7936,0.572357246,4.530752841,62821,1.14464237,15871,128,-15.48213368,-214667,7011.71875,33152,128
6095,0.439581327,4.537604396,62916,1.13800718,15779,128,-15.47456091,-214562,7031.25,33792,128
12288,0.886230574,4.523252192,62717,1.140315073,15811,128,-15.49201435,-214804,7050.78125,34432,128
6016,0.433883719,4.532267396,62842,1.1424066,15840,128,-15.48732644,-214739,7070.3125,35072,128
12768,0.920848956,4.525848571,62753,1.114711894,15456,128,-15.49497133,-214845,7089.84375,35712,128
14334,1.033791427,4.52447826,62734,1.125097409,15600,128,-15.49396163,-214831,7109.375,36352,128
12364,0.891711818,4.523035827,62714,1.108293069,15367,128,-15.49655801,-214867,7128.90625,36992,128
14211,1.024920467,4.526930395,62768,1.108293069,15367,128,-15.49756771,-214881,7148.4375,37632,128
7997,0.576756665,4.525560084,62749,1.110023988,15391,128,-15.50066894,-214924,7167.96875,38272,128
14095,1.016554358,4.523540678,62721,1.116875543,15486,128,-15.51026112,-215057,7187.5,38912,128
8112,0.585050653,4.532195274,62841,1.135699288,15747,128,-15.46641117,-214449,7207.03125,39552,128
14087,1.015977385,4.526353422,62760,1.15877821,16067,128,-15.44434195,-214143,7226.5625,40192,128
13309,0.959866757,4.564505764,63289,1.172120711,16252,128,-15.40777629,-213636,7246.09375,40832,128
16111,1.161951561,4.571717926,63389,1.126179233,15615,128,-15.44239467,-214116,7265.625,41472,128
15935,1.149258155,4.540056531,62950,1.14550783,15883,128,-15.48977858,-214773,7285.15625,42112,128
14208,1.024704102,4.533204977,62855,1.181568644,16383,128,-15.51307386,-215096,7304.6875,42752,128
13336,0.961814041,4.53558499,62888,1.181063793,16376,128,-15.52915699,-215319,7324.21875,43392,128
14332,1.033647184,4.503779352,62447,1.180991671,16375,128,-15.55627472,-215695,7343.75,44032,128
12312,0.887961493,4.628333405,64174,0.055894262,775,128,-15.53160912,-215353,7363.28125,44672,128
4095,0.29533807,5.597575974,77613,2.000942469,27744,128,-14.51642508,-201277,7382.8125,45312,128
15298,1.103316677,4.202022457,58263,0.59024341,8184,128,-15.50766474,-215021,7402.34375,45952,128
124,0.008943082,4.378287718,60707,1.179332874,16352,128,-15.68977185,-217546,7421.875,46592,128
14329,1.033430819,4.534791653,62877,1.177457711,16326,128,-15.53810007,-215443,7441.40625,47232,128
8190,0.59067614,4.556788749,63182,1.181135914,16377,128,-15.52425272,-215251,7460.9375,47872,128
16120,1.162600656,4.550586289,63096,1.180558941,16369,128,-15.52829153,-215307,7480.46875,48512,128
7904,0.570049354,4.564505764,63289,1.181063793,16376,128,-15.50932354,-215044,7500,49152,128
16383,1.181568644,4.57676644,63459,1.163249751,16129,128,-15.53067154,-215340,7519.53125,49792,128
14463,1.043095117,4.574674913,63430,1.181135914,16377,128,-15.50427502,-214974,7539.0625,50432,128
15871,1.14464237,4.606480552,63871,1.139161127,15795,128,-15.48660523,-214729,7558.59375,51072,128
15249,1.099782717,4.646508056,64426,1.180631063,16370,128,-15.44527953,-214156,7578.125,51712,128
7272,0.524468484,4.673193058,64796,1.1167313,15484,128,-15.41087752,-213679,7597.65625,52352,128
16351,1.179260752,4.703916872,65222,1.175798914,16303,128,-15.36298875,-213015,7617.1875,52992,128
7685,0.554254717,4.691800438,65054,0.001442433,20,128,-15.35202627,-212863,7636.71875,53632,128
16271,1.173491022,4.607418133,63884,1.179332874,16352,128,-15.44109648,-214098,7656.25,54272,128
7683,0.554110474,4.558952398,63212,1.070357093,14841,128,-15.50038046,-214920,7675.78125,54912,128
7679,0.553821987,4.529887382,62809,1.14817633,15920,128,-15.53290731,-215371,7695.3125,55552,128
7168,0.516967835,4.516328516,62621,1.122717395,15567,128,-15.54040796,-215475,7714.84375,56192,128
7807,0.563053556,4.512794556,62572,1.140098708,15808,128,-15.55497653,-215677,7734.375,56832,128
7321,0.528002444,4.512145461,62563,1.125674382,15608,128,-15.5512262,-215625,7753.90625,57472,128
5628,0.405900527,4.532195274,62841,1.179404995,16353,128,-15.531537,-215352,7773.4375,58112,128
7170,0.517112078,4.52714676,62771,1.181063793,16376,128,-15.50723201,-215015,7792.96875,58752,128
5507,0.39717381,4.531401936,62830,1.172914049,16263,128,-15.5181945,-215167,7812.5,59392,128
5568,0.401573229,4.530608598,62819,1.108293069,15367,128,-15.50283259,-214954,7832.03125,60032,128
6143,0.443043166,4.524983111,62741,1.16678371,16178,128,-15.51956481,-215186,7851.5625,60672,128
5120,0.369262739,4.518852773,62656,1.173491022,16271,128,-15.5171848,-215153,7871.09375,61312,128
7616,0.549278325,4.535657112,62889,1.171832224,16248,128,-15.5228824,-215232,7890.625,61952,128
8191,0.590748261,4.526569787,62763,1.158994574,16070,128,-15.53557581,-215408,7910.15625,62592,128
7648,0.551586217,4.52938253,62802,1.164259453,16143,128,-15.52663273,-215284,7929.6875,63232,128
8184,0.59024341,4.535080139,62881,1.16368248,16135,128,-15.53456611,-215394,7949.21875,63872,128
8078,0.582598517,4.554048127,63144,1.181352279,16380,128,-15.53023881,-215334,7968.75,64512,128
13296,0.958929176,4.560539074,63234,1.163177629,16128,128,-15.52706546,-215290,7988.28125,65152,128
6131,0.442177706,4.559385128,63218,1.152792114,15984,128,-15.53781158,-215439,8007.8125,256,128
8191,0.590748261,4.566957899,63323,1.181352279,16380,128,-15.52634424,-215280,8027.34375,896,128
6019,0.434100084,4.574170062,63423,1.179765604,16358,128,-15.51740116,-215156,8046.875,1536,128
15472,1.11586584,4.571934291,63392,1.111971272,15418,128,-15.48299914,-214679,8066.40625,2176,128
16327,1.177529833,4.6086442,63901,1.153873939,15999,128,-15.44556802,-214160,8085.9375,2816,128
16279,1.174067995,4.641603785,64358,1.179044387,16348,128,-15.42970126,-213940,8105.46875,3456,128
15072,1.087017189,4.60373993,63833,1.16187944,16110,128,-15.47701305,-214596,8125,4096,128
14368,1.036243562,4.586214374,63590,1.17695286,16319,128,-15.52735395,-215294,8144.53125,4736,128
15484,1.1167313,4.582464049,63538,1.16058125,16092,128,-15.547548,-215574,8164.0625,5376,128
6399,0.461506303,4.593498658,63691,1.161086102,16099,128,-15.53370065,-215382,8183.59375,6016,128
14208,1.024704102,4.534070436,62867,1.163105507,16127,128,-15.60935624,-216431,8203.125,6656,128
16335,1.178106806,5.089695464,70571,0.08279563,1148,128,-15.22646251,-211122,8222.65625,7296,128
15390,1.109951867,4.75786385,65970,0.857958896,11896,128,-14.98211443,-207734,8242.1875,7936,128
10223,0.737299411,4.327225605,59999,1.174933454,16291,128,-15.72691449,-218061,8261.71875,8576,128
15886,1.145724195,4.592921685,63683,0.002452135,34,128,-15.54235524,-215502,8281.25,9216,128
14847,1.070789822,4.616433336,64009,1.181424401,16381,128,-15.51725692,-215154,8300.78125,9856,128
15911,1.147527235,4.633021311,64239,1.1424066,15840,128,-15.48328763,-214683,8320.3125,10496,128
16319,1.17695286,4.648166853,64449,1.14110841,15822,128,-15.47953731,-214631,8339.84375,11136,128
16124,1.162889142,4.667423328,64716,1.14594056,15889,128,-15.46626693,-214447,8359.375,11776,128
15376,1.108942164,4.683650694,64941,1.177024982,16320,128,-15.45811718,-214334,8378.90625,12416,128
8128,0.586204599,4.691223465,65046,1.181424401,16381,128,-15.443188,-214127,8398.4375,13056,128
16352,1.179332874,4.737886159,65693,1.163393994,16131,128,-15.40474718,-213594,8417.96875,13696,128
60,0.004327298,4.759017796,65986,1.144714492,15872,128,-15.37640338,-213201,8437.5,14336,128
31,0.00223577,4.819816329,66829,0.037070517,514,128,-15.29966596,-212137,8457.03125,14976,128
389,0.028055314,4.804165936,66612,0.018967988,263,128,-15.30017082,-212144,8476.5625,15616,128
510,0.036782031,4.785125826,66348,0.06952525,964,128,-15.30449811,-212204,8496.09375,16256,128
16355,1.179549239,4.697714412,65136,1.181568644,16383,128,-15.39544349,-213465,8515.625,16896,128
16128,1.163177629,4.658624489,64594,1.181568644,16383,128,-15.43987041,-214081,8535.15625,17536,128
8173,0.589450072,4.628838256,64181,1.105696691,15331,128,-15.45674687,-214315,8554.6875,18176,128
7167,0.516895713,4.634535865,64260,1.153873939,15999,128,-15.45429474,-214281,8574.21875,18816,128
14728,1.062207349,4.636194663,64283,1.123943463,15584,128,-15.47477728,-214565,8593.75,19456,128
6369,0.459342654,4.637132244,64296,1.147166627,15906,128,-15.4695124,-214492,8613.28125,20096,128
15335,1.105985177,4.646291691,64423,1.163249751,16129,128,-15.45328503,-214267,8632.8125,20736,128
8127,0.586132477,4.650330502,64479,1.181424401,16381,128,-15.4545111,-214284,8652.34375,21376,128
15372,1.108653678,4.657903273,64584,1.179477117,16354,128,-15.44628923,-214170,8671.875,22016,128
8184,0.59024341,4.6599948,64613,1.181063793,16376,128,-15.44787591,-214192,8691.40625,22656,128
8184,0.59024341,4.653143245,64518,1.172048589,16251,128,-15.44571226,-214162,8710.9375,23296,128
6528,0.470809993,4.650402623,64480,1.156326074,16033,128,-15.45148199,-214242,8730.46875,23936,128
15361,1.10786034,4.639800744,64333,1.172625562,16259,128,-15.45465534,-214286,8750,24576,128
8088,0.583319734,4.644632893,64400,1.172337076,16255,128,-15.46294933,-214401,8769.53125,25216,128
8179,0.589882802,4.650618988,64483,1.181568644,16383,128,-15.46121841,-214377,8789.0625,25856,128
7711,0.556129879,4.656388719,64563,1.162023683,16112,128,-15.45479959,-214288,8808.59375,26496,128
7711,0.556129879,4.646652299,64428,1.144930857,15875,128,-15.47953731,-214631,8828.125,27136,128
7875,0.567957827,4.663600882,64663,1.163826724,16137,128,-15.44823652,-214197,8847.65625,27776,128
7153,0.515886011,4.658263881,64589,1.10786034,15361,128,-15.40388172,-213582,8867.1875,28416,128
16352,1.179332874,4.671750626,64776,1.172409197,16256,128,-15.37661974,-213204,8886.71875,29056,128
16327,1.177529833,4.699661696,65163,0.007140041,99,128,-15.37258093,-213148,8906.25,29696,128
15968,1.151638168,4.658263881,64589,1.112404002,15424,128,-15.4401589,-214085,8925.78125,30336,128
6145,0.443187409,4.642397123,64369,1.137213843,15768,128,-15.47773427,-214606,8945.3125,30976,128
16143,1.164259453,4.649392921,64466,1.126107112,15614,128,-15.46958452,-214493,8964.84375,31616,128
7111,0.512856902,4.645065623,64406,1.125962868,15612,128,-15.47809487,-214611,8984.375,32256,128
15587,1.124159828,4.620616391,64067,1.171832224,16248,128,-15.57834394,-216001,9003.90625,32896,128
15872,1.144714492,5.442009621,75456,1.734957902,24056,128,-14.81082556,-205359,9023.4375,33536,128
797,0.057480938,4.447957211,61673,0.143161433,1985,128,-15.20915332,-210882,9042.96875,34176,128
11263,0.812305905,4.458126361,61814,0.903972495,12534,128,-15.68695911,-217507,9062.5,34816,128
14340,1.034224157,4.627612189,64164,1.163321872,16130,128,-15.52043027,-215198,9082.03125,35456,128
15553,1.121707692,4.680693708,64900,1.179332874,16352,128,-15.45523232,-214294,9101.5625,36096,128
15742,1.13533868,4.679539761,64884,1.181352279,16380,128,-15.44874137,-214204,9121.09375,36736,128
16127,1.163105507,4.702907169,65208,1.112836732,15430,128,-15.43547099,-214020,9140.625,37376,128
7924,0.571491786,4.707306589,65269,1.177313468,16324,128,-15.44239467,-214116,9160.15625,38016,128
16368,1.18048682,4.734568564,65647,1.117236151,15491,128,-15.42010908,-213807,9179.6875,38656,128
0,0,4.750795931,65872,1.108870042,15375,128,-15.41123812,-213684,9199.21875,39296,128
72,0.005192757,4.787866448,66386,1.153657574,15996,128,-15.37842278,-213229,9218.75,39936,128
113,0.008149744,4.824215749,66890,0,0,128,-15.34156863,-212718,9238.28125,40576,128
254,0.018318894,4.84686194,67204,0.03144503,436,128,-15.30219022,-212172,9257.8125,41216,128
2020,0.14568569,4.854506833,67310,0.07839621,1087,128,-15.28387133,-211918,9277.34375,41856,128
1949,0.140565054,4.820681789,66841,0.050773627,704,128,-15.31026784,-212284,9296.875,42496,128
257,0.018535259,4.721875158,65471,1.177529833,16327,128,-15.405829,-213609,9316.40625,43136,128
16368,1.18048682,4.685381613,64965,1.107716096,15359,128,-15.44369286,-214134,9335.9375,43776,128
16383,1.181568644,4.664394219,64674,1.107571853,15357,128,-15.47225302,-214530,9355.46875,44416,128
15392,1.11009611,4.670091828,64753,1.145219343,15879,128,-15.4688633,-214483,9375,45056,128
15480,1.116442813,4.668288787,64728,1.146950262,15903,128,-15.46064144,-214369,9394.53125,45696,128
15360,1.107788218,4.662158449,64643,1.152431506,15979,128,-15.45458322,-214285,9414.0625,46336,128
15360,1.107788218,4.658768732,64596,1.157407899,16048,128,-15.46056932,-214368,9433.59375,46976,128
7198,0.519131484,4.671390017,64771,1.163177629,16128,128,-15.45415049,-214279,9453.125,47616,128
15612,1.125962868,4.667495449,64717,1.170029184,16223,128,-15.44780379,-214191,9472.65625,48256,128
15608,1.125674382,4.667279085,64714,1.160869737,16096,128,-15.45761233,-214327,9492.1875,48896,128
7937,0.572429368,4.665043314,64683,1.161518831,16105,128,-15.46655541,-214451,9511.71875,49536,128
15459,1.114928259,4.664249976,64672,1.163754602,16136,128,-15.46871906,-214481,9531.25,50176,128
8190,0.59067614,4.667567571,64718,1.15171029,15969,128,-15.45811718,-214334,9550.78125,50816,128
8172,0.58937795,4.646652299,64428,1.06667889,14790,128,-15.4855234,-214714,9570.3125,51456,128
7768,0.560240812,4.635689811,64276,1.070573458,14844,128,-15.48033064,-214642,9589.84375,52096,128
7175,0.517472686,4.657182057,64574,1.112331881,15423,128,-15.47686881,-214594,9609.375,52736,128
7987,0.576035449,4.646580177,64427,1.126179233,15615,128,-15.48631674,-214725,9628.90625,53376,128
16184,1.16721644,4.637709217,64304,1.124015584,15585,128,-15.49280769,-214815,9648.4375,54016,128
7040,0.507736267,4.651700813,64498,1.110023988,15391,128,-15.48783129,-214746,9667.96875,54656,128
7680,0.553894109,4.644200163,64394,1.068554052,14816,128,-15.45177048,-214246,9687.5,55296,128
7151,0.515741767,4.63518496,64269,1.172841927,16262,128,-15.44354861,-214132,9707.03125,55936,128
8191,0.590748261,4.685309492,64964,1.136348383,15756,128,-15.38462524,-213315,9726.5625,56576,128
8132,0.586493085,4.672111234,64781,1.112548245,15426,128,-15.42119091,-213822,9746.09375,57216,128
8039,0.579785774,4.625232175,64131,1.075766215,14916,128,-15.48105186,-214652,9765.625,57856,128
6161,0.444341355,4.617298796,64021,1.181496523,16382,128,-15.5122084,-215084,9785.15625,58496,128
8135,0.58670945,4.619750931,64055,1.117091908,15489,128,-15.50968415,-215049,9804.6875,59136,128
6627,0.477950034,4.604461146,63843,1.173274657,16268,128,-15.53348428,-215379,9824.21875,59776,128
7682,0.554038352,4.633526162,64246,0.078324089,1086,128,-15.56990571,-215884,9843.75,60416,128
255,0.018391015,5.72313973,79354,2.196031475,30449,128,-14.35891144,-199093,9863.28125,61056,128
8697,0.627241805,4.344102066,60233,0.004543663,63,128,-15.34885291,-212819,9882.8125,61696,128
7168,0.516967835,4.550946897,63101,1.128487125,15647,128,-15.60113437,-216317,9902.34375,62336,128
6144,0.443115287,4.617154553,64019,1.181496523,16382,128,-15.53009457,-215332,9921.875,62976,128
14399,1.038479333,4.642541366,64371,1.174572846,16286,128,-15.504852,-214982,9941.40625,63616,128
7183,0.518049659,4.653575975,64524,1.115793719,15471,128,-15.50333744,-214961,9960.9375,64256,128
15360,1.107788218,4.677592478,64857,1.111250056,15408,128,-15.50016409,-214917,9980.46875,64896,128
15427,1.112620367,4.676150045,64837,1.180558941,16369,128,-15.50369805,-214966,10000,0,128
16383,1.181568644,4.699084723,65155,1.126251355,15616,128,-15.48328763,-214683,10019.53125,640,128
16190,1.16764917,4.716970887,65403,1.12560226,15607,128,-15.48465794,-214702,10039.0625,1280,128
0,0,4.74632439,65810,1.181063793,16376,128,-15.44600075,-214166,10058.59375,1920,128
0,0,4.791688894,66439,1.141252654,15824,128,-15.38433676,-213311,10078.125,2560,128
1632,0.117702498,4.807339288,66656,1.179332874,16352,128,-15.3694797,-213105,10097.65625,3200,128
31,0.00223577,4.783034299,66319,0.008726717,121,128,-15.36875848,-213095,10117.1875,3840,128
15,0.001081824,4.736876456,65679,1.173202535,16267,128,-15.41592603,-213749,10136.71875,4480,128
15815,1.140603559,4.681487045,64911,1.042950874,14461,128,-15.4838646,-214691,10156.25,5120,128
15328,1.105480326,4.633309797,64243,1.163393994,16131,128,-15.53759522,-215436,10175.78125,5760,128
14535,1.048287874,4.626530364,64149,1.153224844,15990,128,-15.53745097,-215434,10195.3125,6400,128
14463,1.043095117,4.627612189,64164,1.145147222,15878,128,-15.54675466,-215563,10214.84375,7040,128
15872,1.144714492,4.621193364,64075,1.140603559,15815,128,-15.54891831,-215593,10234.375,7680,128
14594,1.05254305,4.641243177,64353,1.162889142,16124,128,-15.53110427,-215346,10253.90625,8320,128
16271,1.173491022,4.644560772,64399,1.179837725,16359,128,-15.52937335,-215322,10273.4375,8960,128
14588,1.052110321,4.651340205,64493,1.172481319,16257,128,-15.51992542,-215191,10292.96875,9600,128
6598,0.475858507,4.655090529,64545,1.179332874,16352,128,-15.51516539,-215125,10312.5,10240,128
15240,1.099133623,4.64758988,64441,1.158489723,16063,128,-15.53247458,-215365,10332.03125,10880,128
16352,1.179332874,4.64182015,64361,1.181568644,16383,128,-15.53831643,-215446,10351.5625,11520,128
15361,1.10786034,4.653071124,64517,1.181568644,16383,128,-15.53564793,-215409,10371.09375,12160,128
7995,0.576612422,4.665259679,64686,1.162600656,16120,128,-15.52533454,-215266,10390.625,12800,128
15392,1.11009611,4.655162651,64546,1.153441209,15993,128,-15.53882128,-215453,10410.15625,13440,128
7183,0.518049659,4.646652299,64428,1.158417601,16062,128,-15.53514308,-215402,10429.6875,14080,128
15896,1.146445411,4.654080827,64531,1.147022384,15904,128,-15.53406126,-215387,10449.21875,14720,128
15367,1.108293069,4.661869962,64639,1.173563143,16272,128,-15.5352152,-215403,10468.75,15360,128
7680,0.553894109,4.653936583,64529,1.160869737,16096,128,-15.53038305,-215336,10488.28125,16000,128
16377,1.181135914,4.651628691,64497,1.174789211,16289,128,-15.53406126,-215387,10507.8125,16640,128
7177,0.51761693,4.658408124,64591,1.108870042,15375,128,-15.48458582,-214701,10527.34375,17280,128
16262,1.172841927,4.680693708,64900,1.173491022,16271,128,-15.45148199,-214242,10546.875,17920,128
8159,0.588440369,4.700815642,65179,1.116803422,15485,128,-15.43359583,-213994,10566.40625,18560,128
16255,1.172337076,4.680188856,64893,1.108797921,15374,128,-15.49331254,-214822,10585.9375,19200,128
8188,0.590531896,4.656532962,64565,1.146950262,15903,128,-15.54423041,-215528,10605.46875,19840,128
8079,0.582670639,4.635329203,64271,1.116370692,15479,128,-15.55584199,-215689,10625,20480,128
7164,0.516679349,4.652494151,64509,1.125962868,15612,128,-15.5485577,-215588,10644.53125,21120,128
14337,1.034007792,4.572943994,63406,1.106634272,15344,128,-15.62378056,-216631,10664.0625,21760,128
7167,0.516895713,5.229611424,72511,1.255421192,17407,128,-15.14813842,-210036,10683.59375,22400,128
16355,1.179549239,4.682064018,64919,0.881326304,12220,128,-15.06339551,-208861,10703.125,23040,128
2,1.44E-04,4.368984028,60578,1.172409197,16256,128,-15.75453708,-218444,10722.65625,23680,128
6337,0.457034762,4.630280689,64201,1.178034684,16334,128,-15.55158681,-215630,10742.1875,24320,128
15372,1.108653678,4.655955989,64557,1.145796316,15887,128,-15.52771455,-215299,10761.71875,24960,128
15391,1.110023988,4.673409423,64799,1.181063793,16376,128,-15.51307386,-215096,10781.25,25600,128
15384,1.109519137,4.675789437,64832,1.17695286,16319,128,-15.51300174,-215095,10800.78125,26240,128
7880,0.568318435,4.70427748,65227,1.118101611,15503,128,-15.49756771,-214881,10820.3125,26880,128
16352,1.179332874,4.702402318,65201,1.116947665,15487,128,-15.50016409,-214917,10839.84375,27520,128
28,0.002019406,4.730890361,65596,1.146156925,15892,128,-15.47066635,-214508,10859.375,28160,128
28,0.002019406,4.768826338,66122,1.179837725,16359,128,-15.42941277,-213936,10878.90625,28800,128
1022,0.073708305,4.800271368,66558,1.181568644,16383,128,-15.40308838,-213571,10898.4375,29440,128
352,0.025386813,4.826090911,66916,1.18048682,16368,128,-15.36212329,-213003,10917.96875,30080,128
543,0.039162044,4.839577656,67103,0.036349301,504,128,-15.32591824,-212501,10937.5,30720,128
1664,0.12001039,4.812532045,66728,1.44E-04,2,128,-15.33752982,-212662,10957.03125,31360,128
256,0.018463137,4.721370306,65464,1.179260752,16351,128,-15.43042248,-213950,10976.5625,32000,128
15504,1.118173733,4.681559167,64912,1.069707998,14832,128,-15.47672456,-214592,10996.09375,32640,128
15490,1.11716403,4.646291691,64423,1.109519137,15384,128,-15.50333744,-214961,11015.625,33280,128
16380,1.181352279,4.649537164,64468,1.125169531,15601,128,-15.49381739,-214829,11035.15625,33920,128
15875,1.144930857,4.654946286,64543,1.126251355,15616,128,-15.49403375,-214832,11054.6875,34560,128
16264,1.17298617,4.646508056,64426,1.110023988,15391,128,-15.49756771,-214881,11074.21875,35200,128
15482,1.116587057,4.659778435,64610,1.140098708,15808,128,-15.47672456,-214592,11093.75,35840,128
8191,0.590748261,4.656028111,64558,1.125097409,15600,128,-15.47989791,-214636,11113.28125,36480,128
15363,1.108004583,4.659850557,64611,1.144426005,15868,128,-15.47347909,-214547,11132.8125,37120,128
15903,1.146950262,4.65646084,64564,1.179332874,16352,128,-15.47557062,-214576,11152.34375,37760,128
14371,1.036459927,4.645931082,64418,1.128559247,15648,128,-15.48797554,-214748,11171.875,38400,128
16383,1.181568644,4.648094731,64448,1.126179233,15615,128,-15.47780639,-214607,11191.40625,39040,128
14449,1.042085414,4.651772934,64499,1.107788218,15360,128,-15.4865331,-214728,11210.9375,39680,128
15311,1.104254258,4.645426231,64411,1.121924057,15556,128,-15.49432224,-214836,11230.46875,40320,128
15263,1.10079242,4.636122541,64282,1.177529833,16327,128,-15.51199204,-215081,11250,40960,128
14911,1.075405607,4.629487351,64190,1.181135914,16377,128,-15.51127082,-215071,11269.53125,41600,128
14344,1.034512643,4.631651,64220,1.120409503,15535,128,-15.50514048,-214986,11289.0625,42240,128
14816,1.068554052,4.641171055,64352,1.10786034,15361,128,-15.49973136,-214911,11308.59375,42880,128
8136,0.586781572,4.627035216,64156,1.181568644,16383,128,-15.49980348,-214912,11328.125,43520,128
14432,1.040859346,4.63251646,64232,1.172914049,16263,128,-15.45891052,-214345,11347.65625,44160,128
15872,1.144714492,4.647229272,64436,1.178251049,16337,128,-15.43770676,-214051,11367.1875,44800,128
15504,1.118173733,4.684011302,64946,1.141829627,15832,128,-15.40171807,-213552,11386.71875,45440,128
8048,0.580434868,4.642469244,64370,1.070645579,14845,128,-15.47347909,-214547,11406.25,46080,128
16321,1.177097103,4.613115741,63963,1.180991671,16375,128,-15.51667994,-215146,11425.78125,46720,128
7295,0.526127282,4.606480552,63871,1.144714492,15872,128,-15.53160912,-215353,11445.3125,47360,128
8136,0.586781572,4.617298796,64021,1.178034684,16334,128,-15.5245412,-215255,11464.84375,48000,128
13306,0.959650392,4.543806856,63002,1.070645579,14845,128,-15.625223,-216651,11484.375,48640,128
15,0.001081824,5.535190765,76748,1.253257543,17377,128,-14.66759201,-203373,11503.90625,49280,128
1551,0.111860646,4.803733206,66606,0,0,128,-14.8939818,-206512,11523.4375,49920,128
2572,0.185496829,4.323258915,59944,1.112476124,15425,128,-15.72576055,-218045,11542.96875,50560,128
6169,0.444918328,4.59003682,63643,0,0,128,-15.55750079,-215712,11562.5,51200,128
6624,0.477733669,4.611168457,63936,1.18048682,16368,128,-15.51783389,-215162,11582.03125,51840,128
16380,1.181352279,4.623645499,64109,1.145796316,15887,128,-15.50997263,-215053,11601.5625,52480,128
8132,0.586493085,4.644344407,64396,1.144930857,15875,128,-15.49388951,-214830,11621.09375,53120,128
6268,0.452058369,4.660066922,64614,1.146733898,15900,128,-15.47881609,-214621,11640.625,53760,128
7168,0.516967835,4.659489949,64606,1.121707692,15553,128,-15.49468285,-214841,11660.15625,54400,128
8160,0.588512491,4.687617384,64996,1.179332874,16352,128,-15.47448879,-214561,11679.6875,55040,128
16321,1.177097103,4.703556264,65217,1.180414698,16367,128,-15.45025592,-214225,11699.21875,55680,128
62,0.004471541,4.748920768,65846,1.172409197,16256,128,-15.41433935,-213727,11718.75,56320,128
255,0.018391015,4.781736109,66301,1.179332874,16352,128,-15.37020092,-213115,11738.28125,56960,128
1023,0.073780426,4.80034349,66559,0.004904271,68,128,-15.3454632,-212772,11757.8125,57600,128
840,0.060582168,4.746684998,65815,0,0,128,-15.38469736,-213316,11777.34375,58240,128
8160,0.588512491,4.68790587,65000,1.165413399,16159,128,-15.44679409,-214177,11796.875,58880,128
16376,1.181063793,4.639512258,64329,1.110168232,15393,128,-15.48523491,-214710,11816.40625,59520,128
14344,1.034512643,4.620976999,64072,1.181568644,16383,128,-15.50968415,-215049,11835.9375,60160,128
7167,0.516895713,4.623789742,64111,1.18048682,16368,128,-15.51473266,-215119,11855.46875,60800,128
7792,0.561971731,4.623861864,64112,1.181352279,16380,128,-15.50961202,-215048,11875,61440,128
7787,0.561611123,4.623429134,64106,1.181568644,16383,128,-15.51148719,-215074,11894.53125,62080,128
8183,0.590171288,4.647373515,64438,1.130939261,15681,128,-15.48473006,-214703,11914.0625,62720,128
16374,1.18091955,4.643911677,64390,1.135555045,15745,128,-15.4808355,-214649,11933.59375,63360,128
16383,1.181568644,4.645137745,64407,1.143560546,15856,128,-15.47521001,-214571,11953.125,64000,128
15360,1.107788218,4.656244475,64561,1.134040491,15724,128,-15.48307127,-214680,11972.65625,64640,128
14554,1.049658185,4.649392921,64466,1.139810221,15804,128,-15.47701305,-214596,11992.1875,65280,128
16312,1.176448009,4.646003204,64419,1.110023988,15391,128,-15.5005247,-214922,12011.71875,384,128
16326,1.177457711,4.63121827,64214,1.111177935,15407,128,-15.49648589,-214866,12031.25,1024,128
15423,1.112331881,4.656388719,64563,1.142622965,15843,128,-15.48804766,-214749,12050.78125,1664,128
16383,1.181568644,4.642180758,64366,1.125674382,15608,128,-15.49331254,-214822,12070.3125,2304,128
15308,1.104037893,4.638646798,64317,1.126107112,15614,128,-15.48999494,-214776,12089.84375,2944,128
15360,1.107788218,4.652999002,64516,1.145579951,15884,128,-15.49223071,-214807,12109.375,3584,128
8097,0.583968828,4.66619726,64699,1.126179233,15615,128,-15.4898507,-214774,12128.90625,4224,128
15359,1.107716096,4.64758988,64441,1.126251355,15616,128,-15.48581189,-214718,12148.4375,4864,128
7983,0.575746963,4.660716016,64623,1.164259453,16143,128,-15.4528523,-214261,12167.96875,5504,128
15744,1.135482923,4.680477343,64897,1.153873939,15999,128,-15.41679149,-213761,12187.5,6144,128
16352,1.179332874,4.705864156,65249,1.171832224,16248,128,-15.38960163,-213384,12207.03125,6784,128
16366,1.180342577,4.690646492,65038,1.163754602,16136,128,-15.45306867,-214264,12226.5625,7424,128
15487,1.116947665,4.671101531,64767,1.125890747,15611,128,-15.47362333,-214549,12246.09375,8064,128
7439,0.536512796,4.666269382,64700,1.109951867,15390,128,-15.49994773,-214914,12265.625,8704,128
16260,1.172697684,4.663384517,64660,1.125097409,15600,128,-15.49165374,-214799,12285.15625,9344,128
15344,1.106634272,4.628838256,64181,1.167721292,16191,128,-15.54257161,-215505,12304.6875,9984,128
15966,1.151493925,5.406381536,74962,1.769215675,24531,128,-14.8753023,-206253,12324.21875,10624,128
12319,0.888466345,5.392606305,74771,1.107788218,15360,128,-14.5475095,-201708,12343.75,11264,128
12744,0.919118037,4.454880888,61769,1.144570249,15870,128,-15.69381066,-217602,12363.28125,11904,128
15580,1.123654976,4.668000301,64724,0.035988693,499,128,-15.51206416,-215082,12382.8125,12544,128
16370,1.180631063,4.715167846,65378,1.153657574,15996,128,-15.46338206,-214407,12402.34375,13184,128
505,0.036421423,4.749281377,65851,1.177024982,16320,128,-15.44874137,-214204,12421.875,13824,128
482,0.034762625,4.766013594,66083,1.152864236,15985,128,-15.41340177,-213714,12441.40625,14464,128
911,0.065702804,4.77380273,66191,1.145868438,15888,128,-15.42479699,-213872,12460.9375,15104,128
1010,0.072842845,4.797098016,66514,1.181568644,16383,128,-15.40770416,-213635,12480.46875,15744,128
0,0,4.823422411,66879,1.152792114,15984,128,-15.39003436,-213390,12500,16384,128
1806,0.130251662,4.856670482,67340,1.180126212,16363,128,-15.37445609,-213174,12519.53125,17024,128
4039,0.291299259,4.907011379,68038,0.071688899,994,128,-15.31185452,-212306,12539.0625,17664,128
2431,0.17532768,4.937951557,68467,0.119866147,1662,128,-15.27867857,-211846,12558.59375,18304,128
3649,0.263171823,4.95533287,68708,0.14525296,2014,128,-15.24514201,-211381,12578.125,18944,128
3204,0.231077699,4.90398227,67996,0.088853847,1232,128,-15.27694765,-211822,12597.65625,19584,128
2047,0.147632974,4.855660779,67326,1.44E-04,2,128,-15.32425944,-212478,12617.1875,20224,128
784,0.056543357,4.788227056,66391,1.111899151,15417,128,-15.41246419,-213701,12636.71875,20864,128
1023,0.073780426,4.777048204,66236,1.112548245,15426,128,-15.41195934,-213694,12656.25,21504,128
647,0.046662694,4.773081514,66181,1.146950262,15903,128,-15.41931575,-213796,12675.78125,22144,128
764,0.055100924,4.776759717,66232,1.121707692,15553,128,-15.4198206,-213803,12695.3125,22784,128
895,0.064548858,4.771494838,66159,1.130290166,15672,128,-15.41433935,-213727,12714.84375,23424,128
1016,0.073275575,4.778490636,66256,1.172553441,16258,128,-15.39811199,-213502,12734.375,24064,128
524,0.037791733,4.781519745,66298,1.143488424,15855,128,-15.39573197,-213469,12753.90625,24704,128
127,0.009159447,4.789669489,66411,1.179765604,16358,128,-15.39320772,-213434,12773.4375,25344,128
955,0.068876155,4.785053704,66347,1.179332874,16352,128,-15.39126043,-213407,12792.96875,25984,128
224,0.016155245,4.779644582,66272,1.125169531,15601,128,-15.40352111,-213577,12812.5,26624,128
12,8.65E-04,4.780221555,66280,1.140098708,15808,128,-15.40222292,-213559,12832.03125,27264,128
799,0.057625181,4.783899758,66331,1.172409197,16256,128,-15.40460293,-213592,12851.5625,27904,128
1022,0.073708305,4.771422717,66158,1.140098708,15808,128,-15.41671937,-213760,12871.09375,28544,128
463,0.033392314,4.776543352,66229,1.135555045,15745,128,-15.4031605,-213572,12890.625,29184,128
768,0.055389411,4.769547554,66132,1.1734189,16270,128,-15.40301626,-213570,12910.15625,29824,128
1023,0.073780426,4.768754216,66121,1.140675681,15816,128,-15.4011411,-213544,12929.6875,30464,128
63,0.004543663,4.767311784,66101,1.13533868,15742,128,-15.40993993,-213666,12949.21875,31104,128
12,8.65E-04,4.773658487,66189,1.163249751,16129,128,-15.41376238,-213719,12968.75,31744,128
7,5.05E-04,4.773225757,66183,1.138151424,15781,128,-15.4048193,-213595,12988.28125,32384,128
192,0.013847353,4.777985785,66249,1.144714492,15872,128,-15.38433676,-213311,13007.8125,33024,128
499,0.035988693,4.785630677,66355,0.013847353,192,128,-15.35094444,-212848,13027.34375,33664,128
1026,0.073996791,4.819311478,66822,0.045725113,634,128,-15.31791274,-212390,13046.875,34304,128
0,0,4.819960573,66831,0.013847353,192,128,-15.34632866,-212784,13066.40625,34944,128
15,0.001081824,4.752671093,65898,1.181063793,16376,128,-15.43157642,-213966,13085.9375,35584,128
47,0.003389717,4.766806932,66094,1.177241347,16323,128,-15.4428274,-214122,13105.46875,36224,128
395,0.028488043,4.755051107,65931,1.173563143,16272,128,-15.46172326,-214384,13125,36864,128
16352,1.179332874,4.725120631,65516,1.056870348,14654,128,-15.48638886,-214726,13144.53125,37504,128
223,0.016083123,5.277932915,73181,1.211354877,16796,128,-15.11777522,-209615,13164.0625,38144,128
6379,0.46006387,5.775067303,80074,2.104220641,29176,128,-14.40355473,-199712,13183.59375,38784,128
12751,0.919622889,4.459929402,61839,1.165413399,16159,128,-15.67318388,-217316,13203.125,39424,128
16383,1.181568644,4.702185953,65198,0.004976392,69,128,-15.53117639,-215347,13222.65625,40064,128
65,0.004687906,4.768177243,66113,7.21E-05,1,128,-15.46121841,-214377,13242.1875,40704,128
892,0.064332493,4.786856745,66372,1.163177629,16128,128,-15.45241957,-214255,13261.71875,41344,128
959,0.069164642,4.794501638,66478,1.175871036,16304,128,-15.4501838,-214224,13281.25,41984,128
997,0.071905264,4.798468327,66533,1.181280158,16379,128,-15.45977598,-214357,13300.78125,42624,128
1411,0.101763618,4.820753911,66842,1.179404995,16353,128,-15.44174557,-214107,13320.3125,43264,128
2012,0.145108717,4.834745507,67036,1.144714492,15872,128,-15.43460553,-214008,13339.84375,43904,128
1904,0.137319581,4.862728699,67424,1.165701886,16163,128,-15.41361814,-213717,13359.375,44544,128
4,2.88E-04,4.889557944,67796,1.18091955,16374,128,-15.37950461,-213244,13378.90625,45184,128
2302,0.166023989,4.926628462,68310,0.015650393,217,128,-15.33168797,-212581,13398.4375,45824,128
3997,0.28827015,4.940692179,68505,0.051134235,709,128,-15.3084648,-212259,13417.96875,46464,128
228,0.016443731,4.909175028,68068,0.002091527,29,128,-15.31538848,-212355,13437.5,47104,128
1599,0.115322484,4.854795319,67314,1.172120711,16252,128,-15.37402336,-213168,13457.03125,47744,128
7,5.05E-04,4.767672392,66106,1.163393994,16131,128,-15.47737366,-214601,13496.09375,49024,128
127,0.009159447,4.753248066,65906,1.135194437,15740,128,-15.47607547,-214583,13515.625,49664,128
2,1.44E-04,4.767095419,66098,1.144570249,15870,128,-15.48682159,-214732,13535.15625,50304,128
503,0.036277179,4.760604472,66008,1.144498127,15869,128,-15.4721809,-214529,13554.6875,50944,128
62,0.004471541,4.771206352,66155,1.144570249,15870,128,-15.4685027,-214478,13574.21875,51584,128
507,0.036565666,4.775894258,66220,1.18048682,16368,128,-15.45826143,-214336,13593.75,52224,128
231,0.016660096,4.766374203,66088,1.179549239,16355,128,-15.46727663,-214461,13613.28125,52864,128
7,5.05E-04,4.766951176,66096,1.13800718,15779,128,-15.47506576,-214569,13632.8125,53504,128
7,5.05E-04,4.76716754,66099,1.16368248,16135,128,-15.47311848,-214542,13652.34375,54144,128
31,0.00223577,4.75829658,65976,1.143849032,15860,128,-15.47420031,-214557,13671.875,54784,128
511,0.036854152,4.749065012,65848,1.135482923,15744,128,-15.48725432,-214738,13691.40625,55424,128
445,0.032094125,4.756998391,65958,1.126251355,15616,128,-15.47975367,-214634,13710.9375,56064,128
495,0.035700206,4.75606081,65945,1.126251355,15616,128,-15.49331254,-214822,13730.46875,56704,128
408,0.029425625,4.754113526,65918,1.112331881,15423,128,-15.49259132,-214812,13750,57344,128
448,0.03231049,4.746180146,65808,1.112115516,15420,128,-15.49836105,-214892,13769.53125,57984,128
112,0.008077622,4.74675712,65816,1.172264954,16254,128,-15.46330994,-214406,13789.0625,58624,128
449,0.032382611,4.760604472,66008,1.107788218,15360,128,-15.42494123,-213874,13808.59375,59264,128
928,0.066928872,4.799405909,66546,1.173058292,16265,128,-15.41607027,-213751,13828.125,59904,128
908,0.065486439,4.772216054,66169,1.179332874,16352,128,-15.46958452,-214493,13847.65625,60544,128
304,0.021924975,4.74675712,65816,1.107788218,15360,128,-15.50672716,-215008,13867.1875,61184,128
101,0.007284285,4.73305401,65626,1.181063793,16376,128,-15.52829153,-215307,13886.71875,61824,128
121,0.008726717,4.747117728,65821,1.163249751,16129,128,-15.52468545,-215257,13906.25,62464,128
15995,1.153585452,4.685597978,64968,1.181568644,16383,128,-15.63632973,-216805,13925.78125,63104,128
1794,0.129386202,5.331447164,73923,0.311565436,4320,128,-15.13732018,-209886,13945.3125,63744,128
15366,1.108220948,4.698219263,65143,0.591036748,8195,128,-15.07515133,-209024,13964.84375,64384,128
11872,0.856227977,4.47536343,62053,0.969026204,13436,128,-15.75511405,-218452,13984.375,65024,128
15856,1.143560546,4.676077923,64836,0.004543663,63,128,-15.61079867,-216451,14003.90625,128,128
64,0.004615784,4.745314687,65796,1.16144671,16104,128,-15.51747328,-215157,14023.4375,768,128
445,0.032094125,4.763128729,66043,1.18005409,16362,128,-15.50932354,-215044,14042.96875,1408,128
252,0.01817465,4.778490636,66256,1.181063793,16376,128,-15.51105446,-215068,14062.5,2048,128
528,0.03808022,4.775245163,66211,1.177024982,16320,128,-15.50824171,-215029,14082.03125,2688,128
79,0.005697609,4.797170138,66515,1.112331881,15423,128,-15.51134294,-215072,14101.5625,3328,128
28,0.002019406,4.80611322,66639,1.125962868,15612,128,-15.48682159,-214732,14121.09375,3968,128
2016,0.145397204,4.83532248,67044,1.160869737,16096,128,-15.46028083,-214364,14140.625,4608,128
1951,0.140709298,4.879100308,67651,1.179260752,16351,128,-15.42443638,-213867,14160.15625,5248,128
256,0.018463137,4.907444108,68044,1.180558941,16369,128,-15.39089982,-213402,14179.6875,5888,128
3871,0.279182825,4.916747799,68173,7.93E-04,11,128,-15.35858933,-212954,14199.21875,6528,128
511,0.036854152,4.876936659,67621,1.181208036,16378,128,-15.38469736,-213316,14218.75,7168,128
257,0.018535259,4.789092516,66403,1.107643975,15358,128,-15.46929603,-214489,14238.28125,7808,128
103,0.007428528,4.754329891,65921,1.050090915,14560,128,-15.5145163,-215116,14257.8125,8448,128
3,2.16E-04,4.734712808,65649,1.172409197,16256,128,-15.53947038,-215462,14277.34375,9088,128
4,2.88E-04,4.722019401,65473,1.165413399,16159,128,-15.55057711,-215616,14296.875,9728,128
16332,1.177890441,4.72288486,65485,1.172409197,16256,128,-15.53463823,-215395,14316.40625,10368,128
16256,1.172409197,4.729015199,65570,1.135915653,15750,128,-15.53947038,-215462,14335.9375,11008,128
26,0.001875162,4.734640686,65648,1.173491022,16271,128,-15.52677697,-215286,14355.46875,11648,128
0,0,4.734640686,65648,1.180414698,16367,128,-15.53059942,-215339,14375,12288,128
7,5.05E-04,4.722668495,65482,1.149113911,15933,128,-15.53550369,-215407,14394.53125,12928,128
48,0.003461838,4.732693402,65621,1.179332874,16352,128,-15.53189761,-215357,14414.0625,13568,128
62,0.004471541,4.72288486,65485,1.163105507,16127,128,-15.53795583,-215441,14433.59375,14208,128
16133,1.163538237,4.715384211,65381,1.163177629,16128,128,-15.54538435,-215544,14453.125,14848,128
8128,0.586204599,4.710552062,65314,1.121635571,15552,128,-15.55173106,-215632,14472.65625,15488,128
8064,0.581588814,4.718629684,65426,1.137213843,15768,128,-15.55173106,-215632,14492.1875,16128,128
8068,0.581877301,4.710696305,65316,1.109519137,15384,128,-15.55569775,-215687,14511.71875,16768,128
8191,0.590748261,4.712787832,65345,1.125746504,15609,128,-15.55634684,-215696,14531.25,17408,128
7805,0.562909313,4.705647791,65246,1.134328977,15728,128,-15.56377537,-215799,14550.78125,18048,128
8065,0.581660936,4.696055614,65113,1.108653678,15372,128,-15.57473786,-215951,14570.3125,18688,128
8064,0.581588814,4.710768427,65317,1.174140116,16280,128,-15.54228312,-215501,14589.84375,19328,128
8091,0.583536098,4.697570169,65134,1.145796316,15887,128,-15.50651079,-215005,14609.375,19968,128
30,0.002163649,4.730890361,65596,1.163177629,16128,128,-15.483504,-214686,14628.90625,20608,128
511,0.036854152,4.749786228,65858,1.145579951,15884,128,-15.48682159,-214732,14648.4375,21248,128
63,0.004543663,4.72021636,65448,1.172914049,16263,128,-15.5438698,-215523,14667.96875,21888,128
8160,0.588512491,4.693891966,65083,1.181568644,16383,128,-15.58346457,-216072,14687.5,22528,128
16131,1.163393994,4.711056913,65321,1.179549239,16355,128,-15.57509846,-215956,14707.03125,23168,128
8159,0.588440369,4.669442733,64744,1.177457711,16326,128,-15.6155587,-216517,14726.5625,23808,128
15152,1.092786919,4.70737871,65270,1.171832224,16248,128,-15.6592644,-217123,14746.09375,24448,128
12526,0.903395522,5.625198558,77996,2.085973869,28923,128,-14.75644586,-204605,14765.625,25088,128
28,0.002019406,4.400789666,61019,0.517256322,7172,128,-15.44080799,-214094,14785.15625,25728,128
6655,0.47996944,4.501976311,62422,0.005625487,78,128,-15.78843424,-218914,14804.6875,26368,128
16352,1.179332874,4.685165249,64962,1.172409197,16256,128,-15.5978889,-216272,14824.21875,27008,128
16319,1.17695286,4.72021636,65448,1.163466115,16132,128,-15.57012207,-215887,14843.75,27648,128
8191,0.590748261,4.73262128,65620,1.149546641,15939,128,-15.56860752,-215866,14863.28125,28288,128
15,0.001081824,4.745531052,65799,1.163393994,16131,128,-15.55230803,-215640,14882.8125,28928,128
248,0.017886164,4.744377106,65783,1.140098708,15808,128,-15.55194742,-215635,14902.34375,29568,128
263,0.018967988,4.769619676,66133,1.173491022,16271,128,-15.54560072,-215547,14921.875,30208,128
31,0.00223577,4.77690396,66234,1.153657574,15996,128,-15.53694612,-215427,14941.40625,30848,128
1023,0.073780426,4.814190842,66751,1.181568644,16383,128,-15.48898524,-214762,14960.9375,31488,128
1539,0.110995187,4.854867441,67315,1.179044387,16348,128,-15.44686621,-214178,14980.46875,32128,128
447,0.032238368,4.8760712,67609,1.161302467,16102,128,-15.4041702,-213586,15000,32768,128
3075,0.221774008,4.871960267,67552,1.177024982,16320,128,-15.38801496,-213362,15019.53125,33408,128
376,0.027117732,4.795511341,66492,1.181568644,16383,128,-15.44996744,-214221,15039.0625,34048,128
186,0.013414623,4.728005496,65556,1.047855144,14529,128,-15.53276307,-215369,15058.59375,34688,128
16257,1.172481319,4.719855752,65443,1.115793719,15471,128,-15.55641896,-215697,15078.125,35328,128
15916,1.147887844,4.699805939,65165,1.107788218,15360,128,-15.5785603,-216004,15097.65625,35968,128
16136,1.163754602,4.708893264,65291,1.11009611,15392,128,-15.57574756,-215965,15117.1875,36608,128
16313,1.17652013,4.697137439,65128,1.118173733,15504,128,-15.57906515,-216011,15136.71875,37248,128
7936,0.572357246,4.702835048,65207,1.123943463,15584,128,-15.55331773,-215654,15156.25,37888,128
16128,1.163177629,4.706224764,65254,1.129641072,15663,128,-15.56694872,-215843,15175.78125,38528,128
8181,0.590027045,4.710552062,65314,1.135987775,15751,128,-15.56146748,-215767,15195.3125,39168,128
16191,1.167721292,4.71047994,65313,1.136059896,15752,128,-15.56139535,-215766,15214.84375,39808,128
16383,1.181568644,4.719278779,65435,1.14464237,15871,128,-15.54661042,-215561,15234.375,40448,128
16191,1.167721292,4.711850251,65332,1.126251355,15616,128,-15.56031353,-215751,15253.90625,41088,128
8187,0.590459775,4.718413319,65423,1.150339979,15950,128,-15.57545907,-215961,15273.4375,41728,128
16246,1.171687981,4.71314844,65350,1.107788218,15360,128,-15.57199723,-215913,15292.96875,42368,128
8187,0.590459775,4.707234467,65268,1.181568644,16383,128,-15.5758918,-215967,15312.5,43008,128
8092,0.58360822,4.70471021,65233,1.179332874,16352,128,-15.58476276,-216090,15332.03125,43648,128
16259,1.172625562,4.716105427,65391,1.115937962,15473,128,-15.5802191,-216027,15351.5625,44288,128
8191,0.590748261,4.696993196,65126,1.176736495,16316,128,-15.59341736,-216210,15371.09375,44928,128
7936,0.572357246,4.712859954,65346,1.107788218,15360,128,-15.57783909,-215994,15390.625,45568,128
7870,0.567597218,4.720072117,65446,1.181352279,16380,128,-15.52951759,-215324,15410.15625,46208,128
7,5.05E-04,4.736876456,65679,1.151493925,15966,128,-15.50254411,-214950,15429.6875,46848,128
399,0.02877653,4.757575364,65966,1.148320573,15922,128,-15.50506836,-214985,15449.21875,47488,128
157,0.011323096,4.733126132,65627,1.167721292,16191,128,-15.57567544,-215964,15468.75,48128,128
8129,0.58627672,4.719495144,65438,1.178106806,16335,128,-15.59240765,-216196,15488.28125,48768,128
8187,0.590459775,4.715600576,65384,1.18091955,16374,128,-15.61332293,-216486,15507.8125,49408,128
8176,0.589666437,4.706008399,65251,1.165413399,16159,128,-15.6175781,-216545,15527.34375,50048,128
6296,0.454077775,4.716393914,65395,1.171255251,16240,128,-15.70397981,-217743,15546.875,50688,128
15872,1.144714492,5.615678503,77864,1.756233782,24351,128,-14.85936342,-206032,15566.40625,51328,128
6552,0.472540912,4.423291614,61331,0.572068759,7932,128,-15.45905476,-214347,15585.9375,51968,128
4097,0.295482313,4.524838868,62739,1.181496523,16382,128,-15.82319687,-219396,15605.46875,52608,128
7937,0.572429368,4.71177813,65331,0.017381313,241,128,-15.61599143,-216523,15625,53248,128
16383,1.181568644,4.731250969,65601,1.181568644,16383,128,-15.59103734,-216177,15644.53125,53888,128
128,0.009231568,4.751372904,65880,1.178106806,16335,128,-15.58707065,-216122,15664.0625,54528,128
32,0.002307892,4.781591866,66299,1.180414698,16367,128,-15.57408876,-215942,15683.59375,55168,128
127,0.009159447,4.763345094,66046,1.179332874,16352,128,-15.58663792,-216116,15703.125,55808,128
255,0.018391015,4.79284284,66455,1.144786614,15873,128,-15.56557841,-215824,15722.65625,56448,128
1121,0.080848346,4.814335086,66753,1.181352279,16380,128,-15.5508656,-215620,15742.1875,57088,128
499,0.035988693,4.852415306,67281,1.146950262,15903,128,-15.52043027,-215198,15761.71875,57728,128
0,0,4.874700889,67590,1.181352279,16380,128,-15.47845548,-214616,15781.25,58368,128
3521,0.253940255,4.916098704,68164,1.172625562,16259,128,-15.43893283,-214068,15800.78125,59008,128
4095,0.29533807,4.902972567,67982,1.111250056,15408,128,-15.43013399,-213946,15820.3125,59648,128
1843,0.132920162,4.85969959,67382,1.107499731,15356,128,-15.46778148,-214468,15839.84375,60288,128
64,0.004615784,4.778779123,66260,1.034440522,14343,128,-15.55274076,-215646,15859.375,60928,128
5,3.61E-04,4.743655889,65773,1.181063793,16376,128,-15.59038825,-216168,15878.90625,61568,128
246,0.017741921,4.734280078,65643,1.164043088,16140,128,-15.60553379,-216378,15898.4375,62208,128
16381,1.181424401,4.726346699,65533,1.181352279,16380,128,-15.60394712,-216356,15917.96875,62848,128
243,0.017525556,4.734929172,65652,1.170894643,16235,128,-15.60163922,-216324,15937.5,63488,128
0,0,4.743944376,65777,1.181568644,16383,128,-15.58562822,-216102,15957.03125,64128,128
31,0.00223577,4.735073416,65654,1.181568644,16383,128,-15.58433003,-216084,15976.5625,64768,128
255,0.018391015,4.739184348,65711,1.107788218,15360,128,-15.58094032,-216037,15996.09375,65408,128
159,0.011467339,4.737741916,65691,1.176448009,16312,128,-15.58808036,-216136,16015.625,512,128
255,0.018391015,4.738318889,65699,1.181135914,16377,128,-15.58779187,-216132,16035.15625,1152,128
62,0.004471541,4.730890361,65596,1.167721292,16191,128,-15.59226341,-216194,16054.6875,1792,128
3,2.16E-04,4.730313388,65588,1.17695286,16319,128,-15.59760041,-216268,16074.21875,2432,128
5,3.61E-04,4.732693402,65621,1.181568644,16383,128,-15.60517318,-216373,16093.75,3072,128
8,5.77E-04,4.718773928,65428,1.16721644,16184,128,-15.60380287,-216354,16113.28125,3712,128
16376,1.181063793,4.725409117,65520,1.181280158,16379,128,-15.60481257,-216368,16132.8125,4352,128
16166,1.165918251,4.716033306,65390,1.177890441,16332,128,-15.60885139,-216424,16152.34375,4992,128
7936,0.572357246,4.705792034,65248,1.180342577,16366,128,-15.59550888,-216239,16171.875,5632,128
16380,1.181352279,4.71711513,65405,1.163249751,16129,128,-15.56276567,-215785,16191.40625,6272,128
0,0,4.748704403,65843,1.179477117,16354,128,-15.50824171,-215029,16210.9375,6912,128
828,0.059716709,4.766446324,66089,1.181496523,16382,128,-15.51595873,-215136,16230.46875,7552,128
1,7.21E-05,4.715384211,65381,1.18048682,16368,128,-15.59853799,-216281,16250,8192,128
7951,0.57343907,4.699012601,65154,1.153873939,15999,128,-15.61642416,-216529,16269.53125,8832,128
8175,0.589594315,4.706513251,65258,1.135555045,15745,128,-15.63705094,-216815,16289.0625,9472,128
8186,0.590387653,4.690141641,65031,1.134328977,15728,128,-15.63351698,-216766,16308.59375,10112,128
7552,0.544662541,4.681126437,64906,0.073924669,1025,128,-15.71436533,-217887,16328.125,10752,128
14848,1.070861944,5.79843471,80398,1.762652607,24440,128,-14.46824783,-200609,16347.65625,11392,128
12403,0.894524562,4.467141565,61939,0.001081824,15,128,-15.35606508,-212919,16367.1875,12032,128
4601,0.331831614,4.6086442,63901,1.18048682,16368,128,-15.72511145,-218036,16386.71875,12672,128
16383,1.181568644,4.71004721,65307,1.179332874,16352,128,-15.60719259,-216401,16406.25,13312,128
17,0.001226068,4.7396892,65718,1.16411521,16141,128,-15.57870455,-216006,16425.78125,13952,128
252,0.01817465,4.747261971,65823,1.149258155,15935,128,-15.57560332,-215963,16445.3125,14592,128
0,0,4.751445025,65881,1.126179233,15615,128,-15.5662275,-215833,16464.84375,15232,128
0,0,4.777480933,66242,1.163177629,16128,128,-15.552885,-215648,16484.375,15872,128
924,0.066640385,4.774523947,66201,1.147455114,15910,128,-15.54264373,-215506,16503.90625,16512,128
7,5.05E-04,4.830201844,66973,1.180991671,16375,128,-15.51054961,-215061,16523.4375,17152,128
253,0.018246772,4.835971574,67053,1.145363587,15881,128,-15.49915439,-214903,16542.96875,17792,128
1,7.21E-05,4.897996175,67913,1.18048682,16368,128,-15.4278261,-213914,16562.5,18432,128
3584,0.258483918,4.914944758,68148,1.174644968,16287,128,-15.40294414,-213569,16582.03125,19072,128
317,0.022862556,4.90088104,67953,1.163177629,16128,128,-15.39825623,-213504,16601.5625,19712,128
1017,0.073347696,4.83222125,67001,1.108004583,15363,128,-15.45076078,-214232,16621.09375,20352,128
896,0.064620979,4.792337989,66448,1.111899151,15417,128,-15.50016409,-214917,16640.625,20992,128
0,0,4.741997092,65750,1.145291465,15880,128,-15.53810007,-215443,16660.15625,21632,128
8189,0.590604018,4.726058212,65529,1.111250056,15408,128,-15.57019419,-215888,16679.6875,22272,128
28,0.002019406,4.728149739,65558,1.11586584,15472,128,-15.55851049,-215726,16699.21875,22912,128
127,0.009159447,4.733414618,65631,1.135482923,15744,128,-15.55519289,-215680,16718.75,23552,128
264,0.01904011,4.747694701,65829,1.181568644,16383,128,-15.53456611,-215394,16738.28125,24192,128
16,0.001153946,4.742429822,65756,1.181280158,16379,128,-15.52771455,-215299,16757.8125,24832,128
1,7.21E-05,4.73615524,65669,1.163177629,16128,128,-15.54249949,-215504,16777.34375,25472,128
21,0.001514554,4.747694701,65829,1.145796316,15887,128,-15.53918189,-215458,16796.875,26112,128
7,5.05E-04,4.746612876,65814,1.181280158,16379,128,-15.53247458,-215365,16816.40625,26752,128
224,0.016155245,4.745170444,65794,1.145724195,15886,128,-15.54624981,-215556,16835.9375,27392,128
60,0.004327298,4.730673996,65593,1.164836426,16151,128,-15.54430253,-215529,16855.46875,28032,128
64,0.004615784,4.727428523,65548,1.181063793,16376,128,-15.54538435,-215544,16875,28672,128
7,5.05E-04,4.731106726,65599,1.14464237,15871,128,-15.55129833,-215626,16894.53125,29312,128
16369,1.180558941,4.722019401,65473,1.14154114,15828,128,-15.55367834,-215659,16914.0625,29952,128
16376,1.181063793,4.726923672,65541,1.17918863,16350,128,-15.55165893,-215631,16933.59375,30592,128
16352,1.179332874,4.72021636,65448,1.136492626,15758,128,-15.563559,-215796,16953.125,31232,128
16380,1.181352279,4.719278779,65435,1.140026586,15807,128,-15.5518753,-215634,16972.65625,31872,128
16351,1.179260752,4.714735116,65372,1.130650774,15677,128,-15.56175596,-215771,16992.1875,32512,128
16383,1.181568644,4.725409117,65520,1.116947665,15487,128,-15.55331773,-215654,17011.71875,33152,128
16382,1.181496523,4.721803036,65470,1.144137519,15864,128,-15.54697103,-215566,17031.25,33792,128
8182,0.590099167,4.728005496,65556,1.181568644,16383,128,-15.50102955,-214929,17050.78125,34432,128
7,5.05E-04,4.756637783,65953,1.166639467,16176,128,-15.46453601,-214423,17070.3125,35072,128
96,0.006923676,4.770917865,66151,1.177024982,16320,128,-15.45739597,-214324,17089.84375,35712,128
126,0.009087325,4.725697604,65524,1.181568644,16383,128,-15.53925401,-215459,17109.375,36352,128
16261,1.172769806,4.709037508,65293,1.129064098,15655,128,-15.56110687,-215762,17128.90625,36992,128
7992,0.576396057,4.705359305,65242,1.116442813,15480,128,-15.57618029,-215971,17148.4375,37632,128
15928,1.148753303,4.702907169,65208,1.115216746,15463,128,-15.57733423,-215987,17167.96875,38272,128
8064,0.581588814,4.821907857,66858,1.145724195,15886,128,-15.56976146,-215882,17187.5,38912,128
3263,0.235332875,5.791511034,80302,2.36320941,32767,128,-14.51260263,-201224,17207.03125,39552,128
16368,1.18048682,4.724255171,65504,0.294184124,4079,128,-15.06721795,-208914,17226.5625,40192,128
4103,0.295915043,4.578208873,63479,1.07288135,14876,128,-15.70203253,-217716,17246.09375,40832,128
16225,1.170173427,4.694468939,65091,1.179332874,16352,128,-15.5758918,-215967,17265.625,41472,128
4078,0.294112002,4.717403617,65409,1.138800518,15790,128,-15.55584199,-215689,17285.15625,42112,128
8191,0.590748261,4.724615779,65509,1.172625562,16259,128,-15.54516799,-215541,17304.6875,42752,128
63,0.004543663,4.743367403,65769,1.181568644,16383,128,-15.53514308,-215402,17324.21875,43392,128
482,0.034762625,4.761325689,66018,1.167793413,16192,128,-15.52266604,-215229,17343.75,44032,128
455,0.032815341,4.756782026,65955,1.180414698,16367,128,-15.52656061,-215283,17363.28125,44672,128
768,0.055389411,4.788443421,66394,1.107788218,15360,128,-15.50903505,-215040,17382.8125,45312,128
1572,0.1133752,4.807699896,66661,1.179549239,16355,128,-15.48314339,-214681,17402.34375,45952,128
449,0.032382611,4.856958968,67344,1.17031767,16227,128,-15.42566245,-213884,17421.875,46592,128
99,0.007140041,4.881985173,67691,1.181135914,16377,128,-15.38952951,-213383,17441.40625,47232,128
2051,0.147921461,4.870589956,67533,1.179332874,16352,128,-15.37986521,-213249,17460.9375,47872,128
1920,0.138473527,4.811955072,66720,1.118101611,15503,128,-15.42155152,-213827,17480.46875,48512,128
966,0.069669493,4.739617078,65717,1.125097409,15600,128,-15.50405866,-214971,17500,49152,128
7939,0.572573611,4.713509049,65355,1.181568644,16383,128,-15.52915699,-215319,17519.53125,49792,128
7687,0.55439896,4.699373209,65159,1.172481319,16257,128,-15.53362853,-215381,17539.0625,50432,128
15872,1.144714492,4.698579871,65148,1.144426005,15868,128,-15.54430253,-215529,17558.59375,51072,128
8176,0.589666437,4.696848952,65124,1.144570249,15870,128,-15.55129833,-215626,17578.125,51712,128
16126,1.163033386,4.694901668,65097,1.181568644,16383,128,-15.5278588,-215301,17597.65625,52352,128
8128,0.586204599,4.708965386,65292,1.18048682,16368,128,-15.51581449,-215134,17617.1875,52992,128
16316,1.176736495,4.6856701,64969,1.181135914,16377,128,-15.53838855,-215447,17636.71875,53632,128
7872,0.567741462,4.704638088,65232,1.179260752,16351,128,-15.51617509,-215139,17656.25,54272,128
15872,1.144714492,4.694252574,65088,1.160869737,16096,128,-15.53442187,-215392,17675.78125,54912,128
7695,0.554975933,4.690718614,65039,1.173491022,16271,128,-15.52670485,-215285,17695.3125,55552,128
15875,1.144930857,4.696776831,65123,1.151854533,15971,128,-15.5385328,-215449,17714.84375,56192,128
15934,1.149186033,4.683073721,64933,1.142190235,15837,128,-15.54213888,-215499,17734.375,56832,128
7939,0.572573611,4.678890667,64875,1.172409197,16256,128,-15.55072135,-215618,17753.90625,57472,128
15367,1.108293069,4.675428829,64827,1.181568644,16383,128,-15.54697103,-215566,17773.4375,58112,128
15740,1.135194437,4.676150045,64837,1.140603559,15815,128,-15.54891831,-215593,17792.96875,58752,128
15618,1.126395598,4.665476044,64689,1.172409197,16256,128,-15.52677697,-215286,17812.5,59392,128
7991,0.576323936,4.673914274,64806,1.107788218,15360,128,-15.50434715,-214975,17832.03125,60032,128
16159,1.165413399,4.690862857,65041,1.181568644,16383,128,-15.47376758,-214551,17851.5625,60672,128
16271,1.173491022,4.72064909,65454,1.151638168,15968,128,-15.45508807,-214292,17871.09375,61312,128
16191,1.167721292,4.693387114,65076,1.172337076,16255,128,-15.52064663,-215201,17890.625,61952,128
16263,1.172914049,4.658624489,64594,1.116947665,15487,128,-15.5662275,-215833,17910.15625,62592,128
15883,1.14550783,4.662735422,64651,1.134256856,15727,128,-15.55677957,-215702,17929.6875,63232,128
16383,1.181568644,4.648960191,64460,1.116659178,15483,128,-15.58281548,-216063,17949.21875,63872,128
14479,1.044249063,4.591407131,63662,1.162961264,16125,128,-15.6765736,-217363,17968.75,64512,128
8064,0.581588814,5.301372445,73506,1.322350064,18335,128,-15.13768079,-209891,17988.28125,65152,128
14080,1.015472533,4.566813656,63321,0.258195431,3580,128,-15.18528106,-210551,18007.8125,256,128
11980,0.864017113,4.404323626,61068,1.181352279,16380,128,-15.80848405,-219192,18027.34375,896,128
14392,1.037974481,4.65025838,64478,0.027694705,384,128,-15.57726211,-215986,18046.875,1536,128
16367,1.180414698,4.662951787,64654,1.172481319,16257,128,-15.55281288,-215647,18066.40625,2176,128
16352,1.179332874,4.683578573,64940,1.181568644,16383,128,-15.53766734,-215437,18085.9375,2816,128
16143,1.164259453,4.696416223,65118,1.174500725,16285,128,-15.52309877,-215235,18105.46875,3456,128
7696,0.555048055,4.712859954,65346,1.177529833,16327,128,-15.51905996,-215179,18125,4096,128
15999,1.153873939,4.704854453,65235,1.166134616,16169,128,-15.52439696,-215253,18144.53125,4736,128
159,0.011467339,4.737958281,65694,1.181568644,16383,128,-15.49446648,-214838,18164.0625,5376,128
519,0.037431125,4.765580865,66077,1.181568644,16383,128,-15.46511298,-214431,18183.59375,6016,128
1008,0.072698602,4.793780421,66468,1.178106806,16335,128,-15.42486911,-213873,18203.125,6656,128
159,0.011467339,4.839289169,67099,1.162961264,16125,128,-15.36529665,-213047,18222.65625,7296,128
255,0.018391015,4.817075708,66791,1.181352279,16380,128,-15.36161844,-212996,18242.1875,7936,128
67,0.004832149,4.761542053,66021,1.176448009,16312,128,-15.40662234,-213620,18261.71875,8576,128
16126,1.163033386,4.707667197,65274,1.152719993,15983,128,-15.4641754,-214418,18281.25,9216,128
8092,0.58360822,4.67326518,64797,1.126251355,15616,128,-15.49057191,-214784,18300.78125,9856,128
15344,1.106634272,4.638863163,64320,1.181568644,16383,128,-15.51603085,-215137,18320.3125,10496,128
15119,1.090406905,4.642108636,64365,1.179332874,16352,128,-15.51134294,-215072,18339.84375,11136,128
14567,1.050595766,4.633742527,64249,1.181424401,16381,128,-15.5122084,-215084,18359.375,11776,128
6883,0.496413171,4.63208373,64226,1.144714492,15872,128,-15.50845808,-215032,18378.90625,12416,128
8056,0.581011841,4.638214068,64311,1.158561845,16064,128,-15.49381739,-214829,18398.4375,13056,128
6528,0.470809993,4.64362319,64386,1.152792114,15984,128,-15.50095743,-214928,18417.96875,13696,128
8191,0.590748261,4.640666204,64345,1.14904179,15932,128,-15.50571746,-214994,18437.5,14336,128
8035,0.579497287,4.641964393,64363,1.162023683,16112,128,-15.49403375,-214832,18457.03125,14976,128
4032,0.290794407,4.630280689,64201,1.108365191,15368,128,-15.50615019,-215000,18476.5625,15616,128
7707,0.555841393,4.626890972,64154,1.145796316,15887,128,-15.50333744,-214961,18496.09375,16256,128
7920,0.5712033,4.625304297,64132,1.165413399,16159,128,-15.520863,-215204,18515.625,16896,128
6392,0.461001451,4.626313999,64146,1.180558941,16369,128,-15.5042029,-214973,18535.15625,17536,128
6144,0.443115287,4.620976999,64072,1.177241347,16323,128,-15.51783389,-215162,18554.6875,18176,128
14561,1.050163037,4.611096336,63935,1.108004583,15363,128,-15.51530963,-215127,18574.21875,18816,128
14817,1.068626174,4.613981201,63975,1.175943157,16305,128,-15.51458842,-215117,18593.75,19456,128
7799,0.562476583,4.620904877,64071,1.144714492,15872,128,-15.50268835,-214952,18613.28125,20096,128
6257,0.451265031,4.602297497,63813,1.140603559,15815,128,-15.47448879,-214561,18632.8125,20736,128
14343,1.034440522,4.628189162,64172,1.177024982,16320,128,-15.43958192,-214077,18652.34375,21376,128
15360,1.107788218,4.656605084,64566,1.145147222,15878,128,-15.42551821,-213882,18671.875,22016,128
8134,0.586637328,4.617226674,64020,1.117019786,15488,128,-15.49763983,-214882,18691.40625,22656,128
8188,0.590531896,4.584627698,63568,1.167577048,16189,128,-15.53175337,-215355,18710.9375,23296,128
6159,0.444197112,4.583113144,63547,1.181568644,16383,128,-15.53874916,-215452,18730.46875,23936,128
13215,0.953087324,4.57099671,63379,1.144570249,15870,128,-15.54624981,-215556,18750,24576,128
13980,1.00826037,4.554697222,63153,1.177097103,16321,128,-15.61051018,-216447,18769.53125,25216,128
152,0.010962488,5.367003127,74416,1.629227594,22590,128,-14.8833078,-206364,18789.0625,25856,128
8271,0.596517992,4.362925811,60494,0.110129727,1527,128,-15.25588813,-211530,18808.59375,26496,128
8447,0.609211398,4.357228202,60415,1.089325081,15104,128,-15.74811825,-218355,18828.125,27136,128
13952,1.006240965,4.565731831,63306,0.013847353,192,128,-15.55093772,-215621,18847.65625,27776,128
6392,0.461001451,4.596167159,63728,1.170101305,16224,128,-15.52244967,-215226,18867.1875,28416,128
15869,1.144498127,4.591623496,63665,1.10786034,15361,128,-15.51869935,-215174,18886.71875,29056,128
14524,1.047494536,4.610014511,63920,1.172120711,16252,128,-15.51855511,-215172,18906.25,29696,128
14351,1.035017495,4.620039418,64059,1.119039192,15516,128,-15.49778408,-214884,18925.78125,30336,128
14943,1.077713499,4.622419431,64092,1.114567651,15454,128,-15.50225562,-214946,18945.3125,30976,128
15428,1.112692489,4.657614786,64580,1.153657574,15996,128,-15.46713239,-214459,18964.84375,31616,128
16382,1.181496523,4.674491247,64814,1.178106806,16335,128,-15.44679409,-214177,18984.375,32256,128
16257,1.172481319,4.717403617,65409,1.181352279,16380,128,-15.40078049,-213539,19003.90625,32896,128
252,0.01817465,4.749569863,65855,0,0,128,-15.34986262,-212833,19023.4375,33536,128
31,0.00223577,4.731106726,65599,0.017958286,249,128,-15.34625654,-212783,19042.96875,34176,128
16322,1.177169225,4.691511952,65050,1.165052791,16154,128,-15.37387912,-213166,19062.5,34816,128
16352,1.179332874,4.620688512,64068,1.107355488,15354,128,-15.45696324,-214318,19082.03125,35456,128
13311,0.960011001,4.576189467,63451,1.125025287,15599,128,-15.49648589,-214866,19101.5625,36096,128
13824,0.997009396,4.555995411,63171,1.181568644,16383,128,-15.50910717,-215041,19121.09375,36736,128
16128,1.163177629,4.566236683,63313,1.145796316,15887,128,-15.50463563,-214979,19140.625,37376,128
7708,0.555913515,4.541787451,62974,1.116947665,15487,128,-15.50946778,-215046,19160.15625,38016,128
12295,0.886735426,4.560827561,63238,1.158706088,16066,128,-15.49475497,-214842,19179.6875,38656,128
5895,0.425157002,4.56522698,63299,1.179549239,16355,128,-15.47506576,-214569,19199.21875,39296,128
7692,0.554759569,4.549792951,63085,1.181352279,16380,128,-15.47874397,-214620,19218.75,39936,128
13298,0.959073419,4.558519668,63206,1.16368248,16135,128,-15.47044998,-214505,19238.28125,40576,128
16190,1.16764917,4.546403235,63038,1.144570249,15870,128,-15.47268575,-214536,19257.8125,41216,128
7744,0.558509893,4.547196573,63049,1.165413399,16159,128,-15.48876887,-214759,19277.34375,41856,128
8161,0.588584612,4.537388031,62913,1.126179233,15615,128,-15.49143737,-214796,19296.875,42496,128
8112,0.585050653,4.544239586,63008,1.170101305,16224,128,-15.48364824,-214688,19316.40625,43136,128
4488,0.32368187,4.523324314,62718,1.146733898,15900,128,-15.50881869,-215037,19335.9375,43776,128
4607,0.332264344,4.531401936,62830,1.177241347,16323,128,-15.49901015,-214901,19355.46875,44416,128
12305,0.887456642,4.524694625,62737,1.163033386,16126,128,-15.49360102,-214826,19375,45056,128
7424,0.535430972,4.523757043,62724,1.1760874,16307,128,-15.48689371,-214733,19394.53125,45696,128
8184,0.59024341,4.52938253,62802,1.167865535,16193,128,-15.50290471,-214955,19414.0625,46336,128
4112,0.296564138,4.520150962,62674,1.145868438,15888,128,-15.50759262,-215020,19433.59375,46976,128
8065,0.581660936,4.533926193,62865,1.177674076,16329,128,-15.48069125,-214647,19453.125,47616,128
12607,0.909237374,4.526064935,62756,1.156542439,16036,128,-15.4972071,-214876,19472.65625,48256,128
7549,0.544446176,4.530464355,62817,1.171687981,16246,128,-15.48206156,-214666,19492.1875,48896,128
7671,0.553245014,4.527363125,62774,1.15394606,16000,128,-15.46230024,-214392,19511.71875,49536,128
12317,0.888322102,4.554985709,63157,1.163249751,16129,128,-15.41534906,-213741,19531.25,50176,128
6157,0.444052868,4.588738631,63625,1.179332874,16352,128,-15.39991503,-213527,19550.78125,50816,128
6064,0.437345557,4.545393532,63024,1.111971272,15418,128,-15.48638886,-214726,19570.3125,51456,128
13808,0.99585545,4.531618301,62833,1.10786034,15361,128,-15.50838596,-215031,19589.84375,52096,128
8191,0.590748261,4.522242489,62703,1.146878141,15902,128,-15.53009457,-215332,19609.375,52736,128
13451,0.970108029,4.533493463,62859,1.163177629,16128,128,-15.52576727,-215272,19628.90625,53376,128
4472,0.322527924,4.577343414,63467,1.102234853,15283,128,-15.57336754,-215932,19648.4375,54016,128
989,0.071328291,5.536416833,76765,2.330826799,32318,128,-14.6468931,-203086,19667.96875,54656,128
1008,0.072698602,4.787722205,66384,0.001658797,23,128,-14.91194009,-206761,19687.5,55296,128
6,4.33E-04,4.361050649,60468,1.109951867,15390,128,-15.71934172,-217956,19707.03125,55936,128
12288,0.886230574,4.525560084,62749,0.004615784,64,128,-15.55858261,-215727,19726.5625,56576,128
5760,0.415420582,4.551307506,63106,1.167721292,16191,128,-15.51934844,-215183,19746.09375,57216,128
13264,0.956621284,4.575684616,63444,1.147022384,15904,128,-15.50672716,-215008,19765.625,57856,128
14288,1.030473832,4.575540373,63442,1.172409197,16256,128,-15.51545388,-215129,19785.15625,58496,128
14472,1.043744212,4.59003682,63643,1.181568644,16383,128,-15.50910717,-215041,19804.6875,59136,128
14816,1.068554052,4.612033917,63948,1.181568644,16383,128,-15.48415309,-214695,19824.21875,59776,128
15103,1.089252959,4.634031014,64253,1.171543738,16244,128,-15.48559552,-214715,19843.75,60416,128
15552,1.121635571,4.668144544,64726,1.177024982,16320,128,-15.45681899,-214316,19863.28125,61056,128
16124,1.162889142,4.70781144,65276,1.180558941,16369,128,-15.40366535,-213579,19882.8125,61696,128
16371,1.180703185,4.721009698,65459,1.163105507,16127,128,-15.38231735,-213283,19902.34375,62336,128
126,0.009087325,4.732909767,65624,0.018391015,255,128,-15.34849231,-212814,19921.875,62976,128
16383,1.181568644,4.694901668,65097,1.170029184,16223,128,-15.39154892,-213411,19941.40625,63616,128
14471,1.04367209,4.626025513,64142,1.172337076,16255,128,-15.4635263,-214409,19960.9375,64256,128
14337,1.034007792,4.580372522,63509,1.112331881,15423,128,-15.49987561,-214913,19980.46875,64896,128
7999,0.576900909,4.564866372,63294,1.171327373,16241,128,-15.5225218,-215227,20000,0,128
14092,1.016337993,4.567030021,63324,1.180631063,16370,128,-15.52821941,-215306,20019.53125,640,128
13311,0.960011001,4.559601493,63221,1.179332874,16352,128,-15.53103215,-215345,20039.0625,1280,128
12792,0.922579875,4.575540373,63442,1.18091955,16374,128,-15.50975627,-215050,20058.59375,1920,128
16128,1.163177629,4.565731831,63306,1.181568644,16383,128,-15.51639146,-215142,20078.125,2560,128
16215,1.169452211,4.566669412,63319,1.148681182,15927,128,-15.49583679,-214857,20097.65625,3200,128
16287,1.174644968,4.571717926,63389,1.15748002,16049,128,-15.49626952,-214863,20117.1875,3840,128
49,0.00353396,4.564217277,63285,1.144930857,15875,128,-15.50708777,-215013,20136.71875,4480,128
12303,0.887312399,4.552245087,63119,1.17781832,16331,128,-15.51747328,-215157,20156.25,5120,128
1016,0.073275575,4.552245087,63119,0,0,128,-15.51747328,-215157,20175.78125,5760,128
896,0.064620979,4.543229883,62994,1.107788218,15360,128,-15.51610297,-215138,20195.3125,6400,0
2032,0.14655115,4.527507368,62776,1.145579951,15884,128,-15.53983099,-215467,20214.84375,7040,128
8143,0.587286423,4.535945599,62893,1.181352279,16380,128,-15.51855511,-215172,20234.375,7680,128
7168,0.516967835,4.51120788,62550,1.149258155,15935,128,-15.53810007,-215443,20253.90625,8320,128
12288,0.886230574,4.512578191,62569,1.115793719,15471,128,-15.4935289,-214825,20273.4375,8960,128
7283,0.525261822,4.534647409,62875,1.158489723,16063,128,-15.46114629,-214376,20292.96875,9600,128
8032,0.579280922,4.562991209,63268,1.166495224,16174,128,-15.43835586,-214060,20312.5,10240,128
7782,0.561250515,4.528228584,62786,1.14464237,15871,128,-15.51329023,-215099,20332.03125,10880,128
5124,0.369551226,4.498081743,62368,1.17918863,16350,128,-15.55165893,-215631,20351.5625,11520,128
5004,0.36089663,4.486758648,62211,1.144570249,15870,128,-15.56298203,-215788,20371.09375,12160,128
4495,0.324186721,4.480484066,62124,1.140675681,15816,128,-15.5758918,-215967,20390.625,12800,128
4324,0.311853923,4.42487829,61353,1.145796316,15887,128,-15.66654869,-217224,20410.15625,13440,128
16191,1.167721292,5.060486205,70166,0.364719077,5057,128,-15.2137691,-210946,20429.6875,14080,128
15167,1.093868744,5.344861787,74109,1.84602521,25596,128,-14.59063823,-202306,20449.21875,14720,128
412,0.029714111,4.226904419,58608,0.961886163,13337,128,-15.79204032,-218964,20468.75,15360,128
769,0.055461533,4.414637019,61211,0.018967988,263,128,-15.63467093,-216782,20488.28125,16000,128
4723,0.340630453,4.490004121,62256,1.181352279,16380,128,-15.55165893,-215631,20507.8125,16640,128
6655,0.47996944,4.497216284,62356,1.177024982,16320,128,-15.53600854,-215414,20527.34375,17280,128
4315,0.311204828,4.506375731,62483,1.179549239,16355,128,-15.53002245,-215331,20546.875,17920,128
7199,0.519203606,4.515823664,62614,1.177097103,16321,128,-15.51992542,-215191,20566.40625,18560,128
5120,0.369262739,4.522314611,62704,1.181424401,16381,128,-15.50982839,-215051,20585.9375,19200,128
12367,0.891928183,4.553903884,63142,1.14904179,15932,128,-15.48949009,-214769,20605.46875,19840,128
14335,1.033863549,4.563496061,63275,1.167721292,16191,128,-15.47081059,-214510,20625,20480,128
8183,0.590171288,4.612033917,63948,1.148753303,15928,128,-15.41953211,-213799,20644.53125,21120,128
14872,1.072592863,4.645498353,64412,1.181280158,16379,128,-15.38224523,-213282,20664.0625,21760,128
8163,0.588728856,4.650618988,64483,0.004327298,60,128,-15.33442859,-212619,20683.59375,22400,128
15873,1.144786614,4.603595686,63831,0.008582474,119,128,-15.37063365,-213121,20703.125,23040,128
6137,0.442610436,4.507818163,62503,1.163177629,16128,128,-15.46100205,-214374,20722.65625,23680,128
13079,0.943278783,4.47889739,62102,1.061125524,14713,128,-15.49763983,-214882,20742.1875,24320,128
4192,0.302333868,4.438076548,61536,1.172409197,16256,128,-15.5181945,-215167,20761.71875,24960,128
12351,0.890774237,4.429566196,61418,1.178034684,16334,128,-15.52894062,-215316,20781.25,25600,128
10237,0.738309114,4.436345629,61512,1.181063793,16376,128,-15.51812238,-215166,20800.78125,26240,128
9192,0.662942012,4.428556493,61404,1.181352279,16380,128,-15.51256901,-215089,20820.3125,26880,128
12288,0.886230574,4.426464966,61375,1.107788218,15360,128,-15.51783389,-215162,20839.84375,27520,128
12341,0.890053021,4.435191683,61496,1.129713193,15664,128,-15.50102955,-214929,20859.375,28160,128
12495,0.901159752,4.44701963,61660,1.124808922,15596,128,-15.48559552,-214715,20878.90625,28800,128
12289,0.886302696,4.439302616,61553,1.121635571,15552,128,-15.49403375,-214832,20898.4375,29440,128
12415,0.895390021,4.430359534,61429,1.121707692,15553,128,-15.50845808,-215032,20917.96875,30080,128
12332,0.889403926,4.423507979,61334,1.108870042,15375,128,-15.50470775,-214980,20937.5,30720,128
14336,1.03393567,4.437427454,61527,1.107788218,15360,128,-15.50737625,-215017,20957.03125,31360,128
8688,0.626592711,4.432883791,61464,1.180198333,16364,128,-15.51177567,-215078,20976.5625,32000,128
12252,0.883634196,4.431874088,61450,1.181352279,16380,128,-15.50550109,-214991,20996.09375,32640,128
12302,0.887240277,4.437788062,61532,1.108870042,15375,128,-15.504852,-214982,21015.625,33280,128
12290,0.886374818,4.43901413,61549,1.180991671,16375,128,-15.51942057,-215184,21035.15625,33920,128
9200,0.663518985,4.432018332,61452,1.174644968,16287,128,-15.50470775,-214980,21054.6875,34560,128
12337,0.889764534,4.433677129,61475,1.181568644,16383,128,-15.52396423,-215247,21074.21875,35200,128
12551,0.905198563,4.455746347,61781,1.163177629,16128,128,-15.46605056,-214444,21093.75,35840,128
4348,0.313584842,4.444495373,61625,1.177746198,16330,128,-15.45624202,-214308,21113.28125,36480,128
14439,1.041364198,4.483008323,62159,1.15394606,16000,128,-15.4148442,-213734,21132.8125,37120,128
8168,0.589089464,4.493826567,62309,1.16368248,16135,128,-15.43056672,-213952,21152.34375,37760,128
12793,0.922651997,4.453582699,61751,1.112331881,15423,128,-15.49735135,-214878,21171.875,38400,128
4336,0.312719382,4.45098632,61715,1.18048682,16368,128,-15.51357871,-215103,21191.40625,39040,128
12303,0.887312399,4.4412499,61580,1.174644968,16287,128,-15.51617509,-215139,21210.9375,39680,128
6385,0.4604966,4.429061345,61411,1.167721292,16191,128,-15.53975887,-215466,21230.46875,40320,128
32,0.002307892,4.426897696,61381,1.107788218,15360,128,-15.59204705,-216191,21250,40960,128
504,0.036349301,5.596205663,77594,1.766907783,24499,128,-14.36814301,-199221,21269.53125,41600,128
3073,0.221629765,4.18709328,58056,0.018535259,257,128,-15.29743019,-212106,21289.0625,42240,128
2040,0.147128123,4.365305825,60527,0.003461838,48,128,-15.61382778,-216493,21308.59375,42880,128
2028,0.146262663,4.441538387,61584,0.004327298,60,128,-15.53247458,-215365,21328.125,43520,128
4414,0.318344869,4.459785159,61837,1.1734189,16270,128,-15.50701565,-215012,21347.65625,44160,128
4608,0.332336465,4.464617308,61904,1.116587057,15482,128,-15.50521261,-214987,21367.1875,44800,128
6783,0.489201008,4.474858579,62046,1.108293069,15367,128,-15.50283259,-214954,21386.71875,45440,128
6706,0.483647643,4.484811364,62184,1.114711894,15456,128,-15.49605316,-214860,21406.25,46080,128
6640,0.478887615,4.507746042,62502,1.122140422,15559,128,-15.47989791,-214636,21425.78125,46720,128
7207,0.519780579,4.531834666,62836,1.178034684,16334,128,-15.45689111,-214317,21445.3125,47360,128
7868,0.567452975,4.563135453,63270,1.175871036,16304,128,-15.43229764,-213976,21464.84375,48000,128
7999,0.576900909,4.596816253,63737,1.153224844,15990,128,-15.3764755,-213202,21484.375,48640,128
14336,1.03393567,4.618596985,64039,0,0,128,-15.34402077,-212752,21503.90625,49280,128
7408,0.534277026,4.612322403,63952,0.00223577,31,128,-15.32916371,-212546,21523.4375,49920,128
8188,0.590531896,4.540849869,62961,1.181568644,16383,128,-15.38253372,-213286,21542.96875,50560,128
6331,0.456602032,4.480411944,62123,1.164908548,16152,128,-15.45241957,-214255,21562.5,51200,128
6192,0.446577125,4.434686832,61489,1.112404002,15424,128,-15.4881919,-214751,21582.03125,51840,128
10233,0.738020627,4.413915803,61201,1.11586584,15472,128,-15.49302405,-214818,21601.5625,52480,128
3824,0.275793108,4.407929708,61118,1.116442813,15480,128,-15.50889081,-215038,21621.09375,53120,128
9984,0.720062342,4.40273695,61046,1.116442813,15480,128,-15.50766474,-215021,21640.625,53760,128
2017,0.145469325,4.403530288,61057,1.116947665,15487,128,-15.5021835,-214945,21660.15625,54400,128
8201,0.591469478,4.411391546,61166,1.12560226,15607,128,-15.48141247,-214657,21679.6875,55040,128
1121,0.080848346,4.392567801,60905,1.126251355,15616,128,-15.48573977,-214717,21699.21875,55680,128
8815,0.635752158,4.407208491,61108,1.14464237,15871,128,-15.48588401,-214719,21718.75,56320,128
9601,0.692439758,4.379874394,60729,1.108797921,15374,128,-15.49107677,-214791,21738.28125,56960,128
3199,0.23071709,4.38412957,60788,1.11009611,15392,128,-15.50470775,-214980,21757.8125,57600,128
11712,0.844688516,4.376196191,60678,1.114207043,15449,128,-15.51091021,-215066,21777.34375,58240,128
4035,0.291010772,4.372590109,60628,1.116947665,15487,128,-15.50838596,-215031,21796.875,58880,128
11342,0.818003514,4.377422259,60695,1.165629764,16162,128,-15.51689631,-215149,21816.40625,59520,128
3599,0.259565742,4.367469474,60557,1.181424401,16381,128,-15.51271326,-215091,21835.9375,60160,128
8319,0.59997983,4.356362743,60403,1.181063793,16376,128,-15.52641636,-215281,21855.46875,60800,128
8640,0.623130873,4.353405756,60362,1.152792114,15984,128,-15.52829153,-215307,21875,61440,128
9239,0.666331728,4.35181908,60340,1.163177629,16128,128,-15.53348428,-215379,21894.53125,62080,128
4095,0.29533807,4.343020242,60218,1.156181831,16031,128,-15.53932614,-215460,21914.0625,62720,128
8300,0.598609519,4.355136675,60386,1.165197035,16156,128,-15.53326792,-215376,21933.59375,63360,128
8207,0.591902207,4.3305432,60045,1.152792114,15984,128,-15.54408616,-215526,21953.125,64000,128
9214,0.664528688,4.349943918,60314,1.107788218,15360,128,-15.49973136,-214911,21972.65625,64640,128
8205,0.591757964,4.355280919,60388,1.108870042,15375,128,-15.4705221,-214506,21992.1875,65280,128
12030,0.867623194,4.374898002,60660,1.170389792,16228,128,-15.44874137,-214204,22011.71875,384,128
8961,0.646281915,4.375474975,60668,1.1734189,16270,128,-15.48660523,-214729,22031.25,1024,128
11232,0.810070134,4.337394755,60140,1.15394606,16000,128,-15.53550369,-215407,22050.78125,1664,128
8192,0.590820383,4.335231106,60110,1.127044693,15627,128,-15.56716508,-215846,22070.3125,2304,128
3999,0.288414393,4.333860795,60091,1.117452516,15494,128,-15.5555535,-215685,22089.84375,2944,128
4065,0.293174421,4.296718156,59576,1.112115516,15420,128,-15.60344226,-216349,22109.375,3584,128
123,0.00887096,4.513660015,62584,0.009159447,127,128,-15.54264373,-215506,22128.90625,4224,128
2044,0.147416609,5.463141258,75749,1.920022001,26622,128,-14.48822552,-200886,22148.4375,4864,128
1408,0.101547253,4.000730991,55472,0.033392314,463,128,-15.64130612,-216874,22167.96875,5504,128
9342,0.673760256,4.215653445,58452,0,0,128,-15.70801863,-217799,22187.5,6144,128
515,0.037142639,4.333067457,60080,1.144930857,15875,128,-15.56911237,-215873,22207.03125,6784,128
806,0.058130033,4.345760864,60256,1.163249751,16129,128,-15.55396683,-215663,22226.5625,7424,128
3120,0.225019482,4.376773164,60686,1.147022384,15904,128,-15.52778668,-215300,22246.09375,8064,128
3583,0.258411796,4.379513786,60724,1.15394606,16000,128,-15.5438698,-215523,22265.625,8704,128
3840,0.276947054,4.396029639,60953,1.172841927,16262,128,-15.52663273,-215284,22285.15625,9344,128
1585,0.114312782,4.409227897,61136,1.179332874,16352,128,-15.51631934,-215141,22304.6875,9984,128
4091,0.295049583,4.422714641,61323,1.153801817,15998,128,-15.50312108,-214958,22324.21875,10624,128
8190,0.59067614,4.462381537,61873,1.174644968,16287,128,-15.45898264,-214346,22343.75,11264,128
8191,0.590748261,4.498225987,62370,1.15394606,16000,128,-15.42566245,-213884,22363.28125,11904,128
7678,0.553749866,4.522170367,62702,1.151133317,15961,128,-15.37690823,-213208,22382.8125,12544,128
12303,0.887312399,4.509837569,62531,1.181496523,16382,128,-15.37027304,-213116,22402.34375,13184,128
6596,0.475714263,4.414853384,61214,1.174140116,16280,128,-15.47239726,-214532,22421.875,13824,128
1563,0.112726106,4.402376342,61041,1.10786034,15361,128,-15.49525982,-214849,22441.40625,14464,128
896,0.064620979,4.352107567,60344,1.164764305,16150,128,-15.52591151,-215274,22460.9375,15104,128
511,0.036854152,4.342010539,60204,1.148825425,15929,128,-15.54682679,-215564,22480.46875,15744,128
2318,0.167177936,4.33984689,60174,1.140098708,15808,128,-15.55360622,-215658,22500,16384,128
1009,0.072770723,4.344823282,60243,1.163321872,16130,128,-15.52504605,-215262,22519.53125,17024,128
3983,0.287260447,4.344390553,60237,1.180703185,16371,128,-15.53384489,-215384,22539.0625,17664,128
2328,0.167899152,4.342875998,60216,1.174500725,16285,128,-15.52281028,-215231,22558.59375,18304,128
3071,0.221485522,4.34561662,60254,1.177024982,16320,128,-15.52432484,-215252,22578.125,18944,128
2300,0.165879746,4.348429364,60293,1.170534035,16230,128,-15.52244967,-215226,22597.65625,19584,128
9084,0.655152876,4.349871796,60313,1.181568644,16383,128,-15.51372296,-215105,22617.1875,20224,128
2441,0.176048896,4.34871785,60297,1.174140116,16280,128,-15.51711267,-215152,22636.71875,20864,128
2049,0.147777217,4.33011047,60039,1.177024982,16320,128,-15.54084069,-215481,22656.25,21504,128
564,0.040676599,4.333355943,60084,1.163249751,16129,128,-15.52684909,-215287,22675.78125,22144,128
3777,0.272403392,4.347347539,60278,1.178034684,16334,128,-15.51545388,-215129,22695.3125,22784,128
8256,0.595436167,4.340568106,60184,1.177024982,16320,128,-15.52598363,-215275,22714.84375,23424,128
8254,0.595291924,4.329172889,60026,1.154523033,16008,128,-15.5348546,-215398,22734.375,24064,128
8929,0.643974023,4.323619523,59949,1.156181831,16031,128,-15.54264373,-215506,22753.90625,24704,128
8687,0.626520589,4.318787374,59882,1.164043088,16140,128,-15.5438698,-215523,22773.4375,25344,128
9103,0.656523187,4.333067457,60080,1.111899151,15417,128,-15.49064404,-214785,22792.96875,25984,128
3615,0.260719688,4.32434074,59959,1.163393994,16131,128,-15.46958452,-214493,22812.5,26624,128
8673,0.625510886,4.380956218,60744,1.180703185,16371,128,-15.416503,-213757,22832.03125,27264,128
9215,0.664600809,4.356074256,60399,1.162095804,16113,128,-15.46280509,-214399,22851.5625,27904,128
10241,0.7385976,4.328595916,60018,1.111250056,15408,128,-15.51127082,-215071,22871.09375,28544,128
8718,0.62875636,4.320518293,59906,1.164259453,16143,128,-15.52670485,-215285,22890.625,29184,128
10496,0.756988616,4.306454576,59711,1.179477117,16354,128,-15.52879638,-215314,22910.15625,29824,128
10302,0.74299702,4.275802884,59286,1.149258155,15935,128,-15.56565053,-215825,22929.6875,30464,128
12216,0.881037817,4.389178084,60858,0.008654595,120,128,-15.56730933,-215848,22949.21875,31104,128
255,0.018391015,5.287236606,73310,2.286183511,31699,128,-14.46521872,-200567,22968.75,31744,128
32,0.002307892,4.009313465,55591,1.164259453,16143,128,-15.46879118,-214482,22988.28125,32384,128
8289,0.597816181,4.257700355,59035,1.17695286,16319,128,-15.59392221,-216217,23007.8125,33024,128
15,0.001081824,4.320013442,59899,1.178755901,16344,128,-15.51631934,-215141,23027.34375,33664,128
8255,0.595364046,4.337611119,60143,1.142695086,15844,128,-15.48797554,-214748,23046.875,34304,128
4095,0.29533807,4.356939716,60411,1.131371991,15687,128,-15.47282999,-214538,23066.40625,34944,128
9336,0.673327526,4.365377947,60528,1.152792114,15984,128,-15.46605056,-214444,23085.9375,35584,128
3964,0.285890136,4.368551298,60572,1.167721292,16191,128,-15.46734875,-214462,23105.46875,36224,128
10223,0.737299411,4.392784165,60908,1.174140116,16280,128,-15.44304376,-214125,23125,36864,128
10172,0.733621208,4.431441358,61444,1.144858735,15874,128,-15.40828114,-213643,23144.53125,37504,128
15750,1.135915653,4.459280307,61830,1.145219343,15879,128,-15.3881592,-213364,23164.0625,38144,128
6654,0.479897318,4.511424245,62553,0.004543663,63,128,-15.33075039,-212568,23183.59375,38784,128
8113,0.585122774,4.53378195,62863,0.013847353,192,128,-15.30219022,-212172,23203.125,39424,128
13432,0.968737718,4.520150962,62674,0,0,128,-15.29887263,-212126,23222.65625,40064,128
6280,0.452923829,4.447163874,61662,2.88E-04,4,128,-15.36919121,-213101,23242.1875,40704,128
10208,0.736217587,4.389755057,60866,1.181280158,16379,128,-15.42804246,-213917,23261.71875,41344,128
1503,0.108398808,4.345544499,60253,1.179765604,16358,128,-15.46532934,-214434,23281.25,41984,128
9191,0.66286989,4.35535304,60389,1.181063793,16376,128,-15.45523232,-214294,23300.78125,42624,128
496,0.035772328,4.346121472,60261,1.163393994,16131,128,-15.47347909,-214547,23320.3125,43264,128
8199,0.591325234,4.358670635,60435,1.145219343,15879,128,-15.45645838,-214311,23339.84375,43904,128
1122,0.080920467,4.362637325,60490,1.17738559,16325,128,-15.44347649,-214131,23359.375,44544,128
1695,0.122246161,4.367108866,60552,1.179332874,16352,128,-15.4428274,-214122,23378.90625,45184,128
8319,0.59997983,4.364440365,60515,1.18091955,16374,128,-15.44066375,-214092,23398.4375,45824,128
3431,0.247449308,4.37085919,60604,1.112043394,15419,128,-15.43712979,-214043,23417.96875,46464,128
3072,0.221557644,4.372662231,60629,1.178178928,16336,128,-15.43857222,-214063,23437.5,47104,128
3135,0.226101306,4.368839785,60576,1.180703185,16371,128,-15.44253891,-214118,23457.03125,47744,128
3073,0.221629765,4.361411257,60473,1.146445411,15896,128,-15.46576207,-214440,23476.5625,48384,128
1024,0.073852548,4.363358541,60500,1.177097103,16321,128,-15.45112138,-214237,23496.09375,49024,128
8444,0.608995033,4.368911906,60577,1.181352279,16380,128,-15.45104926,-214236,23515.625,49664,128
1,7.21E-05,4.363863392,60507,1.172697684,16260,128,-15.46143478,-214380,23535.15625,50304,128
8200,0.591397356,4.369849488,60590,1.180342577,16366,128,-15.44643348,-214172,23554.6875,50944,128
3635,0.262162121,4.360906406,60466,1.163177629,16128,128,-15.46633905,-214448,23574.21875,51584,128
9244,0.666692336,4.359968824,60453,1.172841927,16262,128,-15.46193963,-214387,23593.75,52224,128
4071,0.293607151,4.36465673,60518,1.181568644,16383,128,-15.45790082,-214331,23613.28125,52864,128
3295,0.237640767,4.382038043,60759,1.180414698,16367,128,-15.45198684,-214249,23632.8125,53504,128
3587,0.258700282,4.365017338,60523,1.165413399,16159,128,-15.46987301,-214497,23652.34375,54144,128
3327,0.239948659,4.375691339,60671,1.108004583,15363,128,-15.43099945,-213958,23671.875,54784,128
9244,0.666692336,4.392135071,60899,1.112043394,15419,128,-15.39573197,-213469,23691.40625,55424,128
9729,0.701671326,4.411607911,61169,1.180414698,16367,128,-15.36955182,-213106,23710.9375,56064,128
14343,1.034440522,4.400573301,61016,1.177457711,16326,128,-15.41556542,-213744,23730.46875,56704,128
10113,0.729366032,4.394442963,60931,1.108365191,15368,128,-15.4298455,-213942,23750,57344,128
8569,0.618010237,4.378071353,60704,1.152792114,15984,128,-15.47109908,-214514,23769.53125,57984,128
3184,0.229635266,4.36552219,60530,1.145219343,15879,128,-15.4711712,-214515,23789.0625,58624,128
11519,0.830769042,4.37085919,60604,1.070789822,14847,128,-15.48141247,-214657,23808.59375,59264,128
