Device,Device,Device,Device,Device,Device,Device,Device,Device,Device,Device,Device
ECG Vx-RL,ECG Vx-RL,ECG LA-RA,ECG LA-RA,ExG2 CH1,ExG2 CH1,EXG1 Status,ECG LL-RA,ECG LL-RA,Timestamp,Timestamp,EXG2 Status
CAL,RAW,RAW,CAL,CAL,RAW,RAW,RAW,CAL,CAL,RAW,RAW
mV,No Units,No Units,mV,mV,No Units,No Units,No Units,mV,mSecs,No Units,No Units
-0.554903812,-7694,-169623,-12.23348704,0.005697609,79,128,-145752,-10.51187164,58.59375,1920,128
-0.572645732,-7940,-167171,-12.0566448,0.290794407,4032,128,-144027,-10.38746183,78.125,2560,128
-0.182395599,-2529,-165975,-11.97038734,0.462660249,6415,128,-142994,-10.31296019,97.65625,3200,128
-0.002452135,-34,-165294,-11.92127251,0.514732065,7137,128,-142321,-10.26442233,117.1875,3840,128
-0.031949882,-443,-164312,-11.85044907,0.586493085,8132,128,-140934,-10.16438963,136.71875,4480,128
-0.036493544,-506,-163509,-11.7925354,0.59024341,8184,128,-139781,-10.08123339,156.25,5120,128
-2.362271829,-32754,-163904,-11.82102344,0.554110474,7683,128,-140367,-10.12349667,175.78125,5760,128
-0.002091527,-29,-163892,-11.82015798,0.465545114,6455,128,-141241,-10.18653097,195.3125,6400,128
-0.009231568,-128,-164238,-11.84511207,0.556129879,7711,128,-141792,-10.22626999,214.84375,7040,128
-0.036060814,-500,-164189,-11.84157811,0.586132477,8127,128,-141924,-10.23579004,234.375,7680,128
-0.03721476,-516,-164142,-11.83818839,0.59024341,8184,128,-142186,-10.25468591,253.90625,8320,128
-2.067943462,-28673,-159734,-11.52027625,1.775922987,24624,128,-130410,-9.405381609,273.4375,8960,128
-2.349217814,-32573,-163914,-11.82174466,0.88738452,12304,128,-128697,-9.281837259,292.96875,9600,128
-0.092387806,-1281,-165189,-11.91369974,0.220475819,3057,128,-144447,-10.41775291,312.5,10240,128
-0.009520055,-132,-164280,-11.84814118,0.287044083,3980,128,-142466,-10.27487997,332.03125,10880,128
-0.046157842,-640,-164706,-11.87886499,0.557572312,7731,128,-142301,-10.2629799,351.5625,11520,128
-0.003461838,-48,-164347,-11.85297332,0.580579112,8050,128,-141984,-10.24011734,371.09375,12160,128
-0.02257407,-313,-164362,-11.85405515,0.580434868,8048,128,-141821,-10.22836151,390.625,12800,128
-0.029714111,-412,-164311,-11.85037695,0.586204599,8128,128,-141992,-10.24069431,410.15625,13440,128
-0.003750325,-52,-164085,-11.83407746,0.527569714,7315,128,-141589,-10.2116293,429.6875,14080,128
-0.036926274,-512,-164259,-11.84662662,0.590387653,8186,128,-141487,-10.20427289,449.21875,14720,128
-2.88E-04,-4,-164218,-11.84366963,0.518049659,7183,128,-141194,-10.18314125,468.75,15360,128
-2.345323246,-32519,-164033,-11.83032713,0.512929024,7112,128,-140529,-10.13518037,488.28125,16000,128
-2.354194206,-32642,-163322,-11.77904865,0.562404461,7798,128,-139319,-10.0479132,507.8125,16640,128
-2.36320941,-32767,-163378,-11.78308747,1.03393567,14336,128,-138981,-10.02353609,527.34375,17280,128
-2.337317745,-32408,-163336,-11.78005836,1.112115516,15420,128,-139170,-10.03716708,546.875,17920,128
-2.345972341,-32528,-163282,-11.77616379,0.583536098,8091,128,-139817,-10.08382977,566.40625,18560,128
-1.44E-04,-2,-163642,-11.80212758,0.583824585,8095,128,-141772,-10.22482755,585.9375,19200,128
-2.355780882,-32664,-163766,-11.81107066,0.581228206,8059,128,-141874,-10.23218396,605.46875,19840,128
-0.017597677,-244,-164260,-11.84669874,0.559375353,7756,128,-142643,-10.28764549,625,20480,128
-6.49E-04,-9,-164254,-11.84626601,0.516895713,7167,128,-142641,-10.28750125,644.53125,21120,128
-0.001226068,-17,-163779,-11.81200824,0.572285124,7935,128,-142256,-10.25973442,664.0625,21760,128
-2.327004352,-32265,-163516,-11.79304025,0.590315532,8185,128,-142414,-10.27112964,683.59375,22400,128
-2.36097364,-32736,-163586,-11.79808876,0.590531896,8188,128,-142174,-10.25382045,703.125,23040,128
-2.347126287,-32544,-163691,-11.80566154,0.512640537,7108,128,-142417,-10.27134601,722.65625,23680,128
-2.345900219,-32527,-163842,-11.8165519,0.514732065,7137,128,-142818,-10.30026678,742.1875,24320,128
-0.004615784,-64,-163749,-11.80984459,0.581588814,8064,128,-142812,-10.29983405,761.71875,24960,128
-2.36277668,-32761,-163925,-11.822538,0.476507601,6607,128,-142759,-10.2960116,781.25,25600,128
-2.328807393,-32290,-163492,-11.79130933,0.516823592,7166,128,-142658,-10.28872732,800.78125,26240,128
-2.363065167,-32765,-164058,-11.83213017,0.47996944,6655,128,-143126,-10.32248024,820.3125,26880,128
-2.360757275,-32733,-164098,-11.83501504,0.466194208,6464,128,-143264,-10.33243302,839.84375,27520,128
-2.354410571,-32645,-163837,-11.81619129,0.523891511,7264,128,-143202,-10.32796148,859.375,28160,128
-0.01904011,-264,-164201,-11.84244357,0.286683474,3975,128,-143581,-10.35529558,878.90625,28800,128
-2.345900219,-32527,-163881,-11.81936465,0.517472686,7175,128,-143440,-10.34512643,898.4375,29440,128
-2.344962638,-32514,-163979,-11.82643257,0.295121705,4092,128,-143384,-10.34108762,917.96875,30080,128
-2.347126287,-32544,-163646,-11.80241606,0.294833218,4088,128,-143552,-10.35320405,937.5,30720,128
-0.018463137,-256,-163995,-11.82758651,0.29137138,4040,128,-143547,-10.35284345,957.03125,31360,128
-2.333567421,-32356,-163764,-11.81092641,0.525838795,7291,128,-143634,-10.35911803,976.5625,32000,128
-2.353617233,-32634,-163612,-11.79996393,0.29533807,4095,128,-143692,-10.36330108,996.09375,32640,128
-7.21E-05,-1,-163935,-11.82325921,0.266777905,3699,128,-143822,-10.37267689,1015.625,33280,128
-0.002091527,-29,-163667,-11.80393062,0.249252349,3456,128,-143676,-10.36214714,1035.15625,33920,128
-2.358809991,-32706,-163581,-11.79772816,0.285096799,3953,128,-143292,-10.33445243,1054.6875,34560,128
-2.307819999,-31999,-163272,-11.77544257,0.585699747,8121,128,-142174,-10.25382045,1074.21875,35200,128
-2.289501105,-31745,-163175,-11.76844678,0.553317136,7672,128,-142261,-10.26009503,1093.75,35840,128
-2.36097364,-32736,-163552,-11.79563663,0.293607151,4071,128,-143419,-10.34361188,1113.28125,36480,128
-0.027766827,-385,-164275,-11.84778057,0.237712888,3296,128,-144322,-10.40873771,1132.8125,37120,128
-0.03231049,-448,-164154,-11.83905385,0.237712888,3296,128,-144371,-10.41227167,1152.34375,37760,128
-7.21E-05,-1,-164165,-11.83984719,0.294328367,4081,128,-144534,-10.42402749,1171.875,38400,128
-1.44E-04,-2,-162136,-11.6935124,1.201834822,16664,128,-142598,-10.28440002,1191.40625,39040,128
-2.104509128,-29180,-163117,-11.76426372,0.147200244,2041,128,-127095,-9.166298409,1210.9375,39680,128
-0.036998396,-513,-165843,-11.96086728,1.015400412,14079,128,-145619,-10.50227946,1230.46875,40320,128
-0.073419818,-1018,-164476,-11.86227701,0.109696997,1521,128,-145935,-10.5250699,1250,40960,128
-0.017381313,-241,-164224,-11.84410236,0.29490534,4089,128,-144559,-10.42583053,1269.53125,41600,128
-0.072770723,-1009,-164572,-11.86920069,0.286178623,3968,128,-144566,-10.42633539,1289.0625,42240,128
-0.023078921,-320,-164435,-11.85932003,0.223793414,3103,128,-144378,-10.41277652,1308.59375,42880,128
-0.03497899,-485,-164179,-11.84085689,0.230644969,3198,128,-144176,-10.39820795,1328.125,43520,128
-0.004183054,-58,-164471,-11.86191641,0.221557644,3072,128,-144122,-10.39431338,1347.65625,44160,128
-0.009808542,-136,-164002,-11.82809136,0.293967759,4076,128,-143834,-10.37354235,1367.1875,44800,128
-0.003822446,-53,-164086,-11.83414958,0.290866529,4033,128,-143419,-10.34361188,1386.71875,45440,128
-0.009880663,-137,-163681,-11.80494032,0.552740163,7664,128,-142677,-10.29009763,1406.25,46080,128
-0.004038811,-56,-163896,-11.82044647,0.555120177,7697,128,-142187,-10.25475803,1425.78125,46720,128
-2.328158299,-32281,-163095,-11.76267705,0.553821987,7679,128,-141100,-10.17636182,1445.3125,47360,128
-2.303276337,-31936,-163242,-11.77327892,0.529877607,7347,128,-141024,-10.17088058,1464.84375,48000,128
-2.349434179,-32576,-163414,-11.78568384,0.587430666,8145,128,-141925,-10.23586216,1484.375,48640,128
-2.345467489,-32521,-163349,-11.78099594,0.520501795,7217,128,-142767,-10.29658858,1503.90625,49280,128
-2.327076474,-32266,-163937,-11.82340346,0.288486515,4000,128,-144278,-10.40556436,1523.4375,49920,128
-2.344890516,-32513,-163980,-11.82650469,0.22848132,3168,128,-144438,-10.41710382,1542.96875,50560,128
-2.362055464,-32751,-163629,-11.80118999,0.220980671,3064,128,-144389,-10.41356986,1562.5,51200,128
-0.00930369,-129,-163707,-11.80681548,0.291876232,4047,128,-144195,-10.39957826,1582.03125,51840,128
-2.328158299,-32281,-163546,-11.7952039,0.290505921,4028,128,-144472,-10.41955595,1601.5625,52480,128
-2.353977842,-32639,-163249,-11.77378378,0.295121705,4092,128,-144278,-10.40556436,1621.09375,53120,128
-2.291881119,-31778,-163146,-11.76635525,0.237712888,3296,128,-144157,-10.39683764,1640.625,53760,128
-2.347126287,-32544,-163179,-11.76873526,0.26302758,3647,128,-144219,-10.40130918,1660.15625,54400,128
-2.317267933,-32130,-163371,-11.78258261,0.286178623,3968,128,-144480,-10.42013293,1679.6875,55040,128
-2.354049963,-32640,-163446,-11.78799174,0.286178623,3968,128,-144601,-10.42885964,1699.21875,55680,128
-2.362199707,-32753,-163552,-11.79563663,0.276947054,3840,128,-144523,-10.42323416,1718.75,56320,128
-2.356429977,-32673,-163370,-11.78251049,0.295121705,4092,128,-144492,-10.42099839,1738.28125,56960,128
-2.344890516,-32513,-163426,-11.7865493,0.293102299,4064,128,-144631,-10.43102329,1757.8125,57600,128
-2.326643744,-32260,-163627,-11.80104575,0.286178623,3968,128,-144846,-10.44652944,1777.34375,58240,128
-2.326355258,-32256,-163465,-11.78936205,0.29533807,4095,128,-144927,-10.45237129,1796.875,58880,128
-2.363065167,-32765,-164069,-11.83292351,0.184559248,2559,128,-145001,-10.45770829,1816.40625,59520,128
-2.345828098,-32526,-163281,-11.77609167,0.256752998,3560,128,-144653,-10.43260997,1835.9375,60160,128
-2.363281532,-32768,-163244,-11.77342317,0.258556039,3585,128,-144712,-10.43686514,1855.46875,60800,128
-2.361117883,-32738,-163330,-11.77962563,0.258916647,3590,128,-144810,-10.44393306,1875,61440,128
-2.363281532,-32768,-163514,-11.79289601,0.247160822,3427,128,-144861,-10.44761127,1894.53125,62080,128
-2.358954234,-32708,-163596,-11.79880998,0.258195431,3580,128,-144912,-10.45128947,1914.0625,62720,128
-2.328591028,-32287,-163535,-11.79441056,0.29533807,4095,128,-144879,-10.44890946,1933.59375,63360,128
-2.363065167,-32765,-163566,-11.79664633,0.248098403,3440,128,-144841,-10.44616883,1953.125,64000,128
-2.330971042,-32320,-162731,-11.73642477,0.295121705,4092,128,-143391,-10.34159247,1972.65625,64640,128
-2.288563524,-31732,-162792,-11.74082419,0.548773473,7609,128,-142878,-10.30459408,1992.1875,65280,128
-2.346909922,-32541,-163157,-11.76714859,0.23071709,3199,128,-143907,-10.37880723,2011.71875,384,128
-2.363137288,-32766,-163680,-11.8048682,0.264181526,3663,128,-144728,-10.43801909,2031.25,1024,128
-2.354122085,-32641,-163726,-11.80818579,0.221990373,3078,128,-145114,-10.46585804,2050.78125,1664,128
-0.017309191,-240,-164014,-11.82895682,0.223865536,3104,128,-145195,-10.47169989,2070.3125,2304,128
-2.343087476,-32488,-163047,-11.75921521,1.200031781,16639,128,-145217,-10.47328657,2089.84375,2944,128
-2.055322177,-28498,-160312,-11.56196255,1.777004811,24639,128,-127377,-9.186636709,2109.375,3584,128
-2.292962944,-31793,-165186,-11.91348337,0.017886164,248,128,-139452,-10.05750538,2128.90625,4224,128
-0.008798839,-122,-164049,-11.83148108,1.181352279,16380,128,-146951,-10.59834547,2148.4375,4864,128
-2.361117883,-32738,-163517,-11.79311237,0.143594163,1991,128,-144782,-10.44191366,2167.96875,5504,128
-2.362848802,-32762,-163826,-11.81539796,0.260214837,3608,128,-144752,-10.43975001,2187.5,6144,128
-2.359819694,-32720,-163786,-11.81251309,0.281202231,3899,128,-144486,-10.42056566,2207.03125,6784,128
-2.354194206,-32642,-163736,-11.80890701,0.288414393,3999,128,-144492,-10.42099839,2226.5625,7424,128
-2.36277668,-32761,-163584,-11.79794452,0.257762701,3574,128,-143924,-10.3800333,2246.09375,8064,128
-2.362199707,-32753,-163514,-11.79289601,0.258195431,3580,128,-144030,-10.38767819,2265.625,8704,128
-2.363281532,-32768,-163137,-11.76570615,0.277524028,3848,128,-143127,-10.32255236,2285.15625,9344,128
-2.361045761,-32737,-163309,-11.77811107,0.5171842,7171,128,-143049,-10.31692687,2304.6875,9984,128
-2.36277668,-32761,-163324,-11.7791929,0.570554205,7911,128,-142105,-10.24884406,2324.21875,10624,128
-2.345395368,-32520,-162706,-11.73462173,0.521511498,7231,128,-141143,-10.17946305,2343.75,11264,128
-2.247886926,-31168,-162606,-11.72740957,0.557860799,7735,128,-140618,-10.1415992,2363.28125,11904,128
-2.290438687,-31758,-162886,-11.74760362,0.568318435,7880,128,-141123,-10.17802062,2382.8125,12544,128
-2.363281532,-32768,-163214,-11.77125952,0.541777675,7512,128,-141992,-10.24069431,2402.34375,13184,128
-2.349506301,-32577,-163321,-11.77897653,0.581733058,8066,128,-143256,-10.33185605,2421.875,13824,128
-2.328518907,-32286,-163419,-11.78604445,0.29490534,4089,128,-143645,-10.35991137,2441.40625,14464,128
-2.326787988,-32262,-163398,-11.7845299,0.295265948,4094,128,-143632,-10.35897378,2460.9375,15104,128
-2.291736876,-31776,-163296,-11.77717349,0.287044083,3980,128,-143806,-10.37152295,2480.46875,15744,128
-2.362055464,-32751,-163597,-11.7988821,0.286178623,3968,128,-143742,-10.36690716,2500,16384,128
-2.330971042,-32320,-163154,-11.76693222,0.279182825,3871,128,-143437,-10.34491007,2519.53125,17024,128
-2.340274732,-32449,-162962,-11.75308487,0.556202001,7712,128,-143197,-10.32760088,2539.0625,17664,128
-2.307892121,-32000,-163409,-11.78532324,0.295265948,4094,128,-143467,-10.34707372,2558.59375,18304,128
-2.344890516,-32513,-163310,-11.7781832,0.534132783,7406,128,-143449,-10.34577553,2578.125,18944,128
-2.347775382,-32553,-163302,-11.77760622,0.29533807,4095,128,-143485,-10.3483719,2597.65625,19584,128
-2.358665747,-32704,-163396,-11.78438566,0.288414393,3999,128,-143374,-10.3403664,2617.1875,20224,128
-2.358737869,-32705,-163651,-11.80277667,0.290722286,4031,128,-143426,-10.34411673,2636.71875,20864,128
-2.363065167,-32765,-163443,-11.78777537,0.293102299,4064,128,-143486,-10.34844403,2656.25,21504,128
-2.35304026,-32626,-163656,-11.80313728,0.29533807,4095,128,-143373,-10.34029428,2675.78125,22144,128
-2.351814193,-32609,-163711,-11.80710397,0.274999771,3813,128,-143581,-10.35529558,2695.3125,22784,128
-2.362704559,-32760,-163671,-11.8042191,0.295049583,4091,128,-143501,-10.34952585,2714.84375,23424,128
-1.177529833,-16327,-163294,-11.77702925,0.274494919,3806,128,-143587,-10.35572831,2734.375,24064,128
-2.356069369,-32668,-163436,-11.78727052,0.260503323,3612,128,-143517,-10.3506798,2753.90625,24704,128
-2.354410571,-32645,-163726,-11.80818579,0.272187027,3774,128,-143682,-10.36257987,2773.4375,25344,128
-2.358737869,-32705,-163570,-11.79693482,0.258411796,3583,128,-143722,-10.36546473,2792.96875,25984,128
-2.36320941,-32767,-163639,-11.80191121,0.279182825,3871,128,-143817,-10.37231629,2812.5,26624,128
-2.340491097,-32452,-163396,-11.78438566,0.29533807,4095,128,-143531,-10.3516895,2832.03125,27264,128
-2.300463593,-31897,-163002,-11.75596973,0.582742761,8080,128,-142571,-10.28245274,2851.5625,27904,128
-1.181640766,-16384,-163347,-11.7808517,0.524107876,7267,128,-142100,-10.24848345,2871.09375,28544,128
-2.346188706,-32531,-163603,-11.79931483,0.518049659,7183,128,-143316,-10.33618335,2890.625,29184,128
-2.362848802,-32762,-163801,-11.81359492,0.288198029,3996,128,-144153,-10.39654915,2910.15625,29824,128
-2.88E-04,-4,-163947,-11.82412467,0.22848132,3168,128,-144229,-10.4020304,2929.6875,30464,128
-0.036926274,-512,-164349,-11.85311757,0.277019176,3841,128,-144639,-10.43160026,2949.21875,31104,128
-2.349434179,-32576,-162962,-11.75308487,0.277956757,3854,128,-144322,-10.40873771,2968.75,31744,128
-1.177097103,-16321,-159696,-11.51753563,2.076814422,28796,128,-133272,-9.61179371,2988.28125,32384,128
-0.016227366,-225,-165596,-11.94305324,1.174572846,16286,128,-141187,-10.1826364,3007.8125,33024,128
-0.073852548,-1024,-164830,-11.88780807,0.022934678,318,128,-147154,-10.61298616,3027.34375,33664,128
-2.16E-04,-3,-164299,-11.84951149,0.292453205,4055,128,-144882,-10.44912582,3046.875,34304,128
-7.21E-05,-1,-164036,-11.8305435,0.267643364,3711,128,-144229,-10.4020304,3066.40625,34944,128
-0.002380014,-33,-163877,-11.81907616,0.258483918,3584,128,-144359,-10.41140621,3085.9375,35584,128
-0.036998396,-513,-163954,-11.82462952,0.295193827,4093,128,-144231,-10.40217464,3105.46875,36224,128
-0.009231568,-128,-163967,-11.82556711,0.26656154,3696,128,-144284,-10.40599709,3125,36864,128
-0.036782031,-510,-164001,-11.82801924,0.226678279,3143,128,-143978,-10.38392787,3144.53125,37504,128
-0.008654595,-120,-163957,-11.82484589,0.286467109,3972,128,-143971,-10.38342302,3164.0625,38144,128
-0.010313393,-143,-163666,-11.8038585,0.271321567,3762,128,-143079,-10.31909052,3183.59375,38784,128
-2.331259529,-32324,-163412,-11.7855396,0.586348842,8130,128,-142502,-10.27747634,3203.125,39424,128
-2.347198409,-32545,-163139,-11.7658504,0.581877301,8068,128,-141479,-10.20369592,3222.65625,40064,128
-2.316835203,-32124,-162924,-11.75034425,0.583968828,8097,128,-141397,-10.19778194,3242.1875,40704,128
-2.289501105,-31745,-163017,-11.75705156,0.516967835,7168,128,-141288,-10.18992069,3261.71875,41344,128
-2.327581325,-32273,-163372,-11.78265474,0.590315532,8185,128,-142827,-10.30091587,3281.25,41984,128
-2.358377261,-32700,-163763,-11.81085429,0.258483918,3584,128,-143794,-10.37065749,3300.78125,42624,128
-2.344890516,-32513,-163588,-11.79823301,0.290794407,4032,128,-144565,-10.42626326,3320.3125,43264,128
-0.008726717,-121,-163947,-11.82412467,0.258339674,3582,128,-145060,-10.46196347,3339.84375,43904,128
-2.358737869,-32705,-163781,-11.81215248,0.267715486,3712,128,-144912,-10.45128947,3359.375,44544,128
-2.36320941,-32767,-163515,-11.79296813,0.293318664,4067,128,-144701,-10.43607181,3378.90625,45184,128
-2.361911221,-32749,-163561,-11.79628572,0.294833218,4088,128,-144574,-10.42691236,3398.4375,45824,128
-2.326427379,-32257,-163218,-11.77154801,0.288486515,4000,128,-144624,-10.43051844,3417.96875,46464,128
-2.355131788,-32655,-163209,-11.77089891,0.283798609,3935,128,-144801,-10.44328397,3437.5,47104,128
-2.347054165,-32543,-163344,-11.78063533,0.239876537,3326,128,-145017,-10.45886224,3457.03125,47744,128
-2.328735272,-32289,-162850,-11.74500725,0.274494919,3806,128,-144746,-10.43931728,3476.5625,48384,128
-2.355203909,-32656,-163731,-11.8085464,0.22848132,3168,128,-145307,-10.47977751,3496.09375,49024,128
-2.362199707,-32753,-163507,-11.79239116,0.147416609,2044,128,-145496,-10.4934085,3515.625,49664,128
-2.88E-04,-4,-163951,-11.82441316,0.117702498,1632,128,-145696,-10.50783283,3535.15625,50304,128
-2.36277668,-32761,-163605,-11.79945908,0.131477729,1823,128,-145758,-10.51230437,3554.6875,50944,128
-2.334577123,-32370,-163442,-11.78770325,0.147632974,2047,128,-145537,-10.49636549,3574.21875,51584,128
-2.361622734,-32745,-164126,-11.83703444,0.147056001,2039,128,-146284,-10.55024034,3593.75,52224,128
-2.34503476,-32515,-163599,-11.79902635,0.143161433,1985,128,-146021,-10.53127236,3613.28125,52864,128
-2.346909922,-32541,-163640,-11.80198333,0.115466728,1601,128,-146116,-10.53812391,3632.8125,53504,128
-2.36320941,-32767,-163735,-11.80883489,0.124481931,1726,128,-146252,-10.54793245,3652.34375,54144,128
-2.359819694,-32720,-163851,-11.817201,0.09253205,1283,128,-146346,-10.55471188,3671.875,54784,128
-2.362199707,-32753,-163569,-11.7968627,0.111860646,1551,128,-146385,-10.55752463,3691.40625,55424,128
-2.363281532,-32768,-163747,-11.80970035,0.083084116,1152,128,-146299,-10.55132217,3710.9375,56064,128
-7.21E-05,-1,-163612,-11.79996393,0.01283765,178,128,-146435,-10.56113071,3730.46875,56704,128
-5.77E-04,-8,-163854,-11.81741736,0.055389411,768,128,-146656,-10.57706959,3750,57344,128
-2.363065167,-32765,-163433,-11.78705416,0.108326686,1502,128,-145520,-10.49513942,3769.53125,57984,128
-2.29058293,-31760,-163113,-11.76397523,0.287044083,3980,128,-144867,-10.448044,3789.0625,58624,128
-2.348352355,-32561,-163261,-11.77464924,0.147416609,2044,128,-145950,-10.52615172,3808.59375,59264,128
-0.00223577,-31,-163993,-11.82744227,0.001153946,16,128,-146799,-10.58738298,3828.125,59904,128
-2.35433845,-32644,-163715,-11.80739246,0.033464436,464,128,-146991,-10.60123034,3847.65625,60544,128
-0.056471235,-783,-164039,-11.83075986,1.181568644,16383,128,-147221,-10.61781831,3867.1875,61184,128
-0.009231568,-128,-163947,-11.82412467,0.001081824,15,128,-147442,-10.63375719,3886.71875,61824,128
-2.070179232,-28704,-159087,-11.47361356,1.181712887,16385,128,-135219,-9.752214521,3906.25,62464,128
-0.005841852,-81,-164182,-11.84107326,0.957703109,13279,128,-134369,-9.690911137,3925.78125,63104,128
-0.138545649,-1921,-164682,-11.87713407,1.143416303,15854,128,-149784,-10.80266604,3945.3125,63744,128
-0.055966384,-776,-164367,-11.85441576,1.163393994,16131,128,-147594,-10.64471968,3964.84375,64384,128
-0.013847353,-192,-164542,-11.86703704,1.181568644,16383,128,-147387,-10.6297905,3984.375,65024,128
-0.004471541,-62,-164590,-11.87049888,1.179909847,16360,128,-147544,-10.6411136,4003.90625,128,128
-0.009520055,-132,-164528,-11.86602734,1.16368248,16135,128,-147690,-10.65164335,4023.4375,768,128
-0.018463137,-256,-164302,-11.84972785,0.013342501,185,128,-147311,-10.62430926,4042.96875,1408,128
-0.065774925,-912,-164496,-11.86371945,0.014280082,198,128,-147252,-10.62005408,4062.5,2048,128
-0.034690503,-481,-164282,-11.84828542,0.004832149,67,128,-146767,-10.58507509,4082.03125,2688,128
-0.00223577,-31,-164031,-11.83018289,0.032238368,447,128,-146497,-10.56560225,4101.5625,3328,128
-0.021203759,-294,-163920,-11.82217739,0.11424066,1584,128,-145539,-10.49650973,4121.09375,3968,128
-2.358593626,-32703,-163511,-11.79267964,0.279182825,3871,128,-144805,-10.44357245,4140.625,4608,128
-2.298660552,-31872,-163064,-11.76044127,0.290722286,4031,128,-144213,-10.40087645,4160.15625,5248,128
-1.164908548,-16152,-163416,-11.78582809,0.293102299,4064,128,-144639,-10.43160026,4179.6875,5888,128
-2.356429977,-32673,-163747,-11.80970035,0.145902055,2023,128,-145489,-10.49290365,4199.21875,6528,128
-0.008726717,-121,-164230,-11.84453509,0.028199557,391,128,-147066,-10.60663946,4218.75,7168,128
-1.44E-04,-2,-164122,-11.83674596,1.172337076,16255,128,-147617,-10.64637847,4238.28125,7808,128
-1.44E-04,-2,-164123,-11.83681808,1.17781832,16331,128,-147984,-10.67284711,4257.8125,8448,128
-0.00706792,-98,-164166,-11.83991931,1.1424066,15840,128,-148028,-10.67602046,4277.34375,9088,128
-0.002380014,-33,-164222,-11.84395812,1.181568644,16383,128,-147794,-10.659144,4296.875,9728,128
-0.009231568,-128,-164072,-11.83313988,1.165485521,16160,128,-147932,-10.66909679,4316.40625,10368,128
-7.21E-05,-1,-164105,-11.83551989,1.174140116,16280,128,-147943,-10.66989013,4335.9375,11008,128
-2.357728166,-32691,-163898,-11.82059071,1.174644968,16287,128,-147748,-10.65582641,4355.46875,11648,128
-2.36320941,-32767,-163647,-11.80248818,1.179260752,16351,128,-147626,-10.64702757,4375,12288,128
-0.009015204,-125,-164044,-11.83112047,1.126251355,15616,128,-148015,-10.67508288,4394.53125,12928,128
-0.001153946,-16,-164222,-11.84395812,1.13887264,15791,128,-148054,-10.67789563,4414.0625,13568,128
-0.00353396,-49,-164271,-11.84749208,1.144786614,15873,128,-148373,-10.70090243,4433.59375,14208,128
-0.005192757,-72,-163918,-11.82203315,1.172769806,16261,128,-148091,-10.68056413,4453.125,14848,128
-0.001153946,-16,-164139,-11.83797203,1.14817633,15920,128,-148304,-10.69592603,4472.65625,15488,128
-0.004615784,-64,-164155,-11.83912597,1.181568644,16383,128,-148489,-10.70926854,4492.1875,16128,128
-0.03584445,-497,-164801,-11.88571654,1.181424401,16381,128,-148507,-10.71056672,4511.71875,16768,128
-0.00353396,-49,-164557,-11.86811887,1.135194437,15740,128,-148518,-10.71136006,4531.25,17408,128
-0.011611582,-161,-164264,-11.84698723,1.144930857,15875,128,-148342,-10.69866666,4550.78125,18048,128
-0.001081824,-15,-164285,-11.84850178,1.144714492,15872,128,-148347,-10.69902726,4570.3125,18688,128
-0.03584445,-497,-164262,-11.84684299,1.144930857,15875,128,-148377,-10.70119091,4589.84375,19328,128
-0.018463137,-256,-164592,-11.87064312,1.172697684,16260,128,-148604,-10.71756252,4609.375,19968,128
-0.001153946,-16,-164464,-11.86141155,1.177241347,16323,128,-148542,-10.71309098,4628.90625,20608,128
-0.004687906,-65,-164423,-11.85845457,1.179332874,16352,128,-148502,-10.71020612,4648.4375,21248,128
-5.77E-04,-8,-163657,-11.8032094,1.179549239,16355,128,-147771,-10.65748521,4667.96875,21888,128
-0.004543663,-63,-163885,-11.81965313,0.050773627,704,128,-146807,-10.58795996,4687.5,22528,128
-2.354122085,-32641,-163977,-11.82628832,0.058851249,816,128,-147376,-10.62899716,4707.03125,23168,128
-0.001153946,-16,-164624,-11.87295102,1.110023988,15391,128,-148137,-10.68388172,4726.5625,23808,128
-0.013847353,-192,-165107,-11.90778576,1.116947665,15487,128,-148796,-10.73140988,4746.09375,24448,128
-0.036926274,-512,-164831,-11.88788019,1.180558941,16369,128,-148623,-10.71893283,4765.625,25088,128
-0.002380014,-33,-164963,-11.89740025,1.164259453,16143,128,-148984,-10.74496874,4785.15625,25728,128
-2.355059666,-32654,-161434,-11.64288302,1.32927374,18431,128,-143441,-10.34519855,4804.6875,26368,128
-1.181568644,-16383,-163521,-11.79340086,0.106090916,1471,128,-129612,-9.347828549,4824.21875,27008,128
-0.259637864,-3600,-165779,-11.9562515,1.172625562,16259,128,-151188,-10.90392481,4843.75,27648,128
-0.055461533,-769,-165379,-11.92740285,1.173491022,16271,128,-149873,-10.80908487,4863.28125,28288,128
-0.030146841,-418,-165316,-11.92285918,1.173491022,16271,128,-148786,-10.73068866,4882.8125,28928,128
-0.016227366,-225,-165098,-11.90713667,1.165774008,16164,128,-148124,-10.68294414,4902.34375,29568,128
-0.12931408,-1793,-165735,-11.95307815,1.1167313,15484,128,-148372,-10.7008303,4921.875,30208,128
-0.073924669,-1025,-165061,-11.90446817,1.116947665,15487,128,-148237,-10.69109388,4941.40625,30848,128
-0.074357399,-1031,-165175,-11.91269003,1.164187332,16142,128,-147890,-10.66606768,4960.9375,31488,128
-0.00576973,-80,-164940,-11.89574145,0.004543663,63,128,-147217,-10.61752982,4980.46875,32128,128
-0.071833142,-996,-164811,-11.88643776,0.008654595,120,128,-146976,-10.60014851,5000,32768,128
-0.009231568,-128,-164663,-11.87576376,0.036854152,511,128,-146161,-10.54136938,5019.53125,33408,128
-0.00223577,-31,-164251,-11.84604965,0.295265948,4094,128,-145126,-10.4667235,5039.0625,34048,128
-0.009231568,-128,-164081,-11.83378897,0.294256245,4080,128,-144448,-10.41782503,5058.59375,34688,128
-0.018463137,-256,-164059,-11.8322023,0.22848132,3168,128,-144318,-10.40844922,5078.125,35328,128
-0.018463137,-256,-164055,-11.83191381,0.29137138,4040,128,-144933,-10.45280402,5097.65625,35968,128
-7.21E-05,-1,-164526,-11.8658831,0,0,128,-146752,-10.58399327,5117.1875,36608,128
-0.036421423,-505,-164795,-11.88528381,0.004543663,63,128,-147354,-10.62741049,5136.71875,37248,128
-0.075006494,-1040,-164992,-11.89949177,1.172625562,16259,128,-147644,-10.64832576,5156.25,37888,128
-0.064981588,-901,-164781,-11.88427411,1.144714492,15872,128,-147968,-10.67169317,5175.78125,38528,128
-7.21E-05,-1,-164874,-11.89098142,1.18048682,16368,128,-147685,-10.65128275,5195.3125,39168,128
-0.018463137,-256,-164832,-11.88795231,1.177024982,16320,128,-147646,-10.64847,5214.84375,39808,128
-0.03584445,-497,-164789,-11.88485108,1.181496523,16382,128,-147514,-10.63894995,5234.375,40448,128
-0.041830545,-580,-164572,-11.86920069,0.004543663,63,128,-147209,-10.61695285,5253.90625,41088,128
-0.008221866,-114,-165362,-11.92617678,1.179332874,16352,128,-147804,-10.65986522,5273.4375,41728,128
-0.00353396,-49,-164981,-11.89869844,0.00223577,31,128,-147331,-10.62575169,5292.96875,42368,128
-0.147705096,-2048,-165282,-11.92040705,1.180198333,16364,128,-147635,-10.64767666,5312.5,43008,128
-0.009520055,-132,-165219,-11.91586338,1.16368248,16135,128,-147725,-10.65416761,5332.03125,43648,128
-0.002019406,-28,-165051,-11.90374695,0.004543663,63,128,-147414,-10.63173778,5351.5625,44288,128
-0.147705096,-2048,-165376,-11.92718648,1.163177629,16128,128,-147794,-10.659144,5371.09375,44928,128
-0.004615784,-64,-165044,-11.9032421,1.181280158,16379,128,-147606,-10.64558514,5390.625,45568,128
-0.046157842,-640,-165442,-11.93194651,1.173491022,16271,128,-147829,-10.66166826,5410.15625,46208,128
-0.003678203,-51,-165155,-11.9112476,1.145219343,15879,128,-147922,-10.66837557,5429.6875,46848,128
-0.074573764,-1034,-165308,-11.92228221,1.172409197,16256,128,-147575,-10.64334937,5449.21875,47488,128
-0.08546413,-1185,-165436,-11.93151378,1.17652013,16313,128,-148024,-10.67573198,5468.75,48128,128
-0.03231049,-448,-165174,-11.91261791,1.158706088,16066,128,-147754,-10.65625914,5488.28125,48768,128
-0.135011689,-1872,-165176,-11.91276215,1.164908548,16152,128,-147654,-10.64904698,5507.8125,49408,128
-0.092315685,-1280,-165374,-11.92704224,1.14464237,15871,128,-148097,-10.68099686,5527.34375,50048,128
-0.018535259,-257,-165126,-11.90915607,1.178395293,16339,128,-148013,-10.67493864,5546.875,50688,128
-0.023078921,-320,-164216,-11.84352539,1.188564442,16480,128,-146592,-10.57245381,5566.40625,51328,128
-0.007212163,-100,-164428,-11.85881518,0.071544656,992,128,-146454,-10.56250102,5585.9375,51968,128
-0.073924669,-1025,-165122,-11.90886759,1.135699288,15747,128,-148093,-10.68070837,5605.46875,52608,128
-0.127222553,-1764,-165028,-11.90208815,1.110023988,15391,128,-148387,-10.70191213,5625,53248,128
-0.146623271,-2033,-165416,-11.93007135,1.143632667,15857,128,-149155,-10.75730154,5644.53125,53888,128
-0.036998396,-513,-165381,-11.92754709,1.165413399,16159,128,-149226,-10.76242218,5664.0625,54528,128
-5.77E-04,-8,-164616,-11.87237404,1.180414698,16367,128,-149271,-10.76566765,5683.59375,55168,128
-2.250266939,-31201,-162244,-11.70130154,1.179477117,16354,128,-131094,-9.454712803,5703.125,55808,128
-0.036926274,-512,-166739,-12.02548826,0.106379402,1475,128,-144125,-10.39452975,5722.65625,56448,128
-0.131477729,-1823,-165655,-11.94730841,1.177024982,16320,128,-150848,-10.87940346,5742.1875,57088,128
-7.21E-05,-1,-165507,-11.93663441,1.173995873,16278,128,-149578,-10.78780899,5761.71875,57728,128
-0.140997784,-1955,-165675,-11.94875085,1.114639773,15455,128,-149411,-10.77576468,5781.25,58368,128
-0.008654595,-120,-165446,-11.93223499,1.152503628,15980,128,-149268,-10.76545128,5800.78125,59008,128
-0.147993582,-2052,-165614,-11.94435143,1.12069799,15539,128,-149285,-10.76667735,5820.3125,59648,128
-0.056615479,-785,-165651,-11.94701993,1.126828328,15624,128,-149158,-10.7575179,5839.84375,60288,128
-0.073347696,-1017,-165627,-11.94528901,1.135915653,15750,128,-149084,-10.7521809,5859.375,60928,128
-0.114312782,-1585,-165554,-11.94002413,1.166639467,16176,128,-148941,-10.74186751,5878.90625,61568,128
-0.075944075,-1053,-164957,-11.89696752,1.181568644,16383,128,-147978,-10.67241438,5898.4375,62208,128
-0.092243563,-1279,-165037,-11.90273725,0.009159447,127,128,-147334,-10.62596805,5917.96875,62848,128
-0.008149744,-113,-164982,-11.89877056,0.017309191,240,128,-146992,-10.60130246,5937.5,63488,128
-0.049908167,-692,-164637,-11.8738886,0.073852548,1024,128,-146544,-10.56899197,5957.03125,64128,128
-0.069236764,-960,-164796,-11.88535594,0.018463137,256,128,-147087,-10.60815401,5976.5625,64768,128
-0.107316984,-1488,-165324,-11.92343616,1.115721597,15470,128,-148244,-10.69159874,5996.09375,65408,128
-0.143666285,-1992,-165702,-11.95069813,1.181496523,16382,128,-149522,-10.78377018,6015.625,512,128
-0.015001299,-208,-165839,-11.96057879,1.1167313,15484,128,-150183,-10.83144257,6035.15625,1152,128
-0.145397204,-2016,-165329,-11.92379676,1.145652073,15885,128,-150003,-10.81846068,6054.6875,1792,128
-0.106523646,-1477,-165317,-11.9229313,1.180703185,16371,128,-150042,-10.82127342,6074.21875,2432,128
-0.144171136,-1999,-165597,-11.94312536,1.118245854,15505,128,-150347,-10.84327052,6093.75,3072,128
-0.036421423,-505,-165347,-11.92509495,1.177601955,16328,128,-150246,-10.83598624,6113.28125,3712,128
-0.036854152,-511,-165383,-11.92769133,1.180414698,16367,128,-150534,-10.85675727,6132.8125,4352,128
-0.01817465,-252,-165596,-11.94305324,1.181496523,16382,128,-150804,-10.87623011,6152.34375,4992,128
-0.059716709,-828,-165500,-11.93612956,1.164403697,16145,128,-150667,-10.86634944,6171.875,5632,128
-0.055461533,-769,-165447,-11.93230712,1.163177629,16128,128,-150671,-10.86663793,6191.40625,6272,128
-0.144171136,-1999,-165787,-11.95682847,1.128559247,15648,128,-151190,-10.90406905,6210.9375,6912,128
-0.138762014,-1924,-165524,-11.93786048,1.178972266,16347,128,-151141,-10.90053509,6230.46875,7552,128
-0.133352892,-1849,-165689,-11.94976055,1.143199938,15851,128,-151061,-10.89476536,6250,8192,128
-2.39112048,-33154,-165962,-11.96944975,1.172409197,16256,128,-151695,-10.94049048,6269.53125,8832,128
-7.21E-05,-1,-165785,-11.95668423,1.181496523,16382,128,-151652,-10.93738925,6289.0625,9472,128
-0.127006188,-1761,-165611,-11.94413506,1.17118313,16239,128,-151731,-10.94308686,6308.59375,10112,128
-0.131766216,-1827,-165411,-11.92971074,1.181424401,16381,128,-151491,-10.92577766,6328.125,10752,128
-0.001153946,-16,-165915,-11.96606004,1.135987775,15751,128,-152153,-10.97352218,6347.65625,11392,128
-0.028271678,-392,-165647,-11.94673144,1.153657574,15996,128,-151863,-10.95260691,6367.1875,12032,128
-2.16E-04,-3,-165543,-11.93923079,1.152792114,15984,128,-151951,-10.95895361,6386.71875,12672,128
-0.147705096,-2048,-165664,-11.94795751,1.145219343,15879,128,-152010,-10.96320879,6406.25,13312,128
-0.014424326,-200,-165334,-11.92415737,1.172625562,16259,128,-151629,-10.93573045,6425.78125,13952,128
-0.145541447,-2018,-165226,-11.91636824,1.154450912,16007,128,-151921,-10.95678997,6445.3125,14592,128
-0.02877653,-399,-165135,-11.90980517,1.174644968,16287,128,-150595,-10.86115669,6464.84375,15232,128
-0.073852548,-1024,-164828,-11.88766383,1.148681182,15927,128,-150347,-10.84327052,6484.375,15872,128
-0.009520055,-132,-165036,-11.90266513,1.162023683,16112,128,-151305,-10.91236304,6503.90625,16512,128
-0.147416609,-2044,-165596,-11.94305324,1.12603499,15613,128,-152383,-10.99011016,6523.4375,17152,128
-0.017381313,-241,-165347,-11.92509495,1.163466115,16132,128,-152564,-11.00316417,6542.96875,17792,128
-0.004038811,-56,-165494,-11.93569683,1.158489723,16063,128,-152402,-10.99148047,6562.5,18432,128
-2.358521504,-32702,-163518,-11.79318449,0.069741615,967,128,-150827,-10.8778889,6582.03125,19072,128
-2.345755976,-32525,-161546,-11.65096064,2.077030787,28799,128,-135042,-9.739448993,6601.5625,19712,128
-0.258556039,-3585,-166469,-12.00601542,0.140637176,1950,128,-146018,-10.53105599,6621.09375,20352,128
-2.88E-04,-4,-165907,-11.96548307,0,0,128,-154176,-11.11942424,6640.625,20992,128
-0.14655115,-2032,-165615,-11.94442355,1.181352279,16380,128,-152588,-11.00489509,6660.15625,21632,128
-0.143233555,-1986,-165314,-11.92271494,1.164908548,16152,128,-152296,-10.98383558,6679.6875,22272,128
-0.066135534,-917,-165557,-11.9402405,1.116875543,15486,128,-152324,-10.98585498,6699.21875,22912,128
-0.04161418,-577,-165443,-11.93201863,1.173346779,16269,128,-152311,-10.9849174,6718.75,23552,128
-0.013919474,-193,-165829,-11.95985758,1.109807624,15388,128,-152172,-10.97489249,6738.28125,24192,128
-0.009231568,-128,-165629,-11.94543325,1.179549239,16355,128,-152029,-10.9645791,6757.8125,24832,128
-0.145397204,-2016,-165278,-11.92011856,1.16764917,16190,128,-151756,-10.9448899,6777.34375,25472,128
-0.004327298,-60,-165099,-11.90720879,1.175221941,16295,128,-150336,-10.84247718,6816.40625,26752,128
-0.048393613,-671,-164350,-11.85318969,1.173491022,16271,128,-149325,-10.76956222,6835.9375,27392,128
-0.058202154,-807,-164466,-11.8615558,1.181496523,16382,128,-148960,-10.74323782,6855.46875,28032,128
-0.002380014,-33,-164308,-11.85016058,1.180703185,16371,128,-149206,-10.76097974,6875,28672,128
-0.074213156,-1029,-164652,-11.87497042,1.163105507,16127,128,-150901,-10.8832259,6894.53125,29312,128
-0.072842845,-1010,-164561,-11.86840735,1.144786614,15873,128,-151536,-10.92902314,6914.0625,29952,128
-0.137968676,-1913,-164951,-11.89653479,1.140098708,15808,128,-152246,-10.98022949,6933.59375,30592,128
-1.44E-04,-2,-165056,-11.90410756,1.124520436,15592,128,-152304,-10.98441255,6953.125,31232,128
-0.087772022,-1217,-165011,-11.90086209,1.144714492,15872,128,-152300,-10.98412406,6972.65625,31872,128
-0.034762625,-482,-164653,-11.87504254,1.179837725,16359,128,-152167,-10.97453189,6992.1875,32512,128
-0.051134235,-709,-164491,-11.86335884,1.145147222,15878,128,-151851,-10.95174145,7011.71875,33152,128
-0.137391703,-1905,-164525,-11.86581097,1.16368248,16135,128,-152044,-10.96566093,7031.25,33792,128
-0.073852548,-1024,-164901,-11.89292871,1.135482923,15744,128,-152216,-10.97806585,7050.78125,34432,128
-0.05315364,-737,-164587,-11.87028252,1.143560546,15856,128,-152189,-10.97611856,7070.3125,35072,128
-0.06685675,-927,-164766,-11.88319229,1.135915653,15750,128,-152388,-10.99047077,7089.84375,35712,128
-0.027983192,-388,-165160,-11.91160821,1.116947665,15487,128,-152653,-11.009583,7109.375,36352,128
-0.071833142,-996,-165171,-11.91240155,1.108870042,15375,128,-152540,-11.00143325,7128.90625,36992,128
-0.004615784,-64,-164917,-11.89408265,1.144930857,15875,128,-152394,-10.9909035,7148.4375,37632,128
-7.21E-05,-1,-164841,-11.88860141,1.177024982,16320,128,-152394,-10.9909035,7167.96875,38272,128
-0.071616777,-993,-164592,-11.87064312,1.178106806,16335,128,-152364,-10.98873985,7187.5,38912,128
-0.007212163,-100,-164782,-11.88434623,1.178755901,16344,128,-152534,-11.00100052,7207.03125,39552,128
-0.085175644,-1181,-164712,-11.87929772,1.16498067,16153,128,-152337,-10.98679256,7226.5625,40192,128
-0.036926274,-512,-164982,-11.89877056,1.144858735,15874,128,-152576,-11.00402963,7246.09375,40832,128
-0.034762625,-482,-165073,-11.90533363,1.17695286,16319,128,-152428,-10.99335563,7265.625,41472,128
-0.013919474,-193,-164718,-11.87973045,1.163321872,16130,128,-152367,-10.98895621,7285.15625,42112,128
-0.056326992,-781,-164344,-11.85275696,1.180703185,16371,128,-151427,-10.92116188,7304.6875,42752,128
-2.88E-04,-4,-163973,-11.82599984,1.178828022,16345,128,-150506,-10.85473786,7324.21875,43392,128
-2.88E-04,-4,-164842,-11.88867353,1.167144318,16183,128,-151376,-10.91748368,7343.75,44032,128
-0.064693101,-897,-164646,-11.87453769,1.144930857,15875,128,-151842,-10.95109236,7363.28125,44672,128
-0.071256169,-988,-164828,-11.88766383,1.174428603,16284,128,-152260,-10.9812392,7382.8125,45312,128
-0.075367102,-1045,-164652,-11.87497042,1.181135914,16377,128,-152258,-10.98109495,7402.34375,45952,128
-8.65E-04,-12,-164601,-11.87129222,1.163177629,16128,128,-152286,-10.98311436,7421.875,46592,128
-2.291520511,-31773,-161131,-11.62103017,0.017597677,244,128,-144186,-10.39892917,7441.40625,47232,128
-2.342871111,-32485,-164693,-11.87792741,0.888033615,12313,128,-136875,-9.871647939,7460.9375,47872,128
-0.156936664,-2176,-165869,-11.96274244,1.143560546,15856,128,-155526,-11.21678844,7480.46875,48512,128
-0.009159447,-127,-165126,-11.90915607,1.172409197,16256,128,-153391,-11.06280876,7500,49152,128
-0.07616044,-1056,-165012,-11.90093421,1.145291465,15880,128,-152407,-10.99184108,7519.53125,49792,128
-0.129530445,-1796,-165089,-11.90648757,1.164259453,16143,128,-152304,-10.98441255,7539.0625,50432,128
-0.077386508,-1073,-164751,-11.88211046,1.156542439,16036,128,-151614,-10.93464863,7558.59375,51072,128
-0.057480938,-797,-165025,-11.90187179,1.181063793,16376,128,-151801,-10.94813537,7578.125,51712,128
-0.138545649,-1921,-165135,-11.90980517,1.179332874,16352,128,-151707,-10.94135594,7597.65625,52352,128
-0.009159447,-127,-165157,-11.91139184,1.114639773,15455,128,-151305,-10.91236304,7617.1875,52992,128
-0.013919474,-193,-164571,-11.86912857,1.18091955,16374,128,-150699,-10.86865733,7636.71875,53632,128
-0.004110933,-57,-164516,-11.86516188,1.161735196,16108,128,-149654,-10.79329023,7656.25,54272,128
-3.61E-04,-5,-163928,-11.82275436,1.145219343,15879,128,-148757,-10.72859713,7675.78125,54912,128
-0.003461838,-48,-164270,-11.84741996,1.179477117,16354,128,-148662,-10.72174558,7695.3125,55552,128
-0.004615784,-64,-164149,-11.83869324,1.144426005,15868,128,-148137,-10.68388172,7714.84375,56192,128
-0.008726717,-121,-164602,-11.87136434,1.177529833,16327,128,-149054,-10.75001726,7734.375,56832,128
-7.21E-05,-1,-164804,-11.88593291,1.140098708,15808,128,-150567,-10.85913728,7753.90625,57472,128
-0.09123386,-1265,-165197,-11.91427671,1.164331575,16144,128,-151026,-10.89224111,7773.4375,58112,128
-0.01817465,-252,-165048,-11.90353059,1.126179233,15615,128,-151359,-10.91625761,7792.96875,58752,128
-0.074934372,-1039,-165081,-11.9059106,1.120481625,15536,128,-151306,-10.91243516,7812.5,59392,128
-0.111067308,-1540,-165411,-11.92971074,1.150195736,15948,128,-151476,-10.92469584,7832.03125,60032,128
-0.001153946,-16,-165449,-11.93245136,1.111177935,15407,128,-151467,-10.92404675,7851.5625,60672,128
-0.063250668,-877,-164681,-11.87706195,1.179116509,16349,128,-150827,-10.8778889,7871.09375,61312,128
-0.004399419,-61,-165043,-11.90316998,1.140098708,15808,128,-151300,-10.91200243,7890.625,61952,128
-0.09166659,-1271,-165037,-11.90273725,1.125097409,15600,128,-151357,-10.91611337,7910.15625,62592,128
-0.002307892,-32,-165182,-11.91319488,1.125097409,15600,128,-151392,-10.91863762,7929.6875,63232,128
-0.08856536,-1228,-165421,-11.93043195,1.181568644,16383,128,-151715,-10.94193291,7949.21875,63872,128
-0.068443426,-949,-165007,-11.9005736,1.153873939,15999,128,-151486,-10.92541706,7968.75,64512,128
-0.122318282,-1696,-165154,-11.91117548,1.109879745,15389,128,-151549,-10.92996072,7988.28125,65152,128
-0.135083811,-1873,-164949,-11.89639054,1.17738559,16325,128,-151611,-10.93443226,8007.8125,256,128
-0.147560852,-2046,-165208,-11.91507005,1.167144318,16183,128,-151918,-10.9565736,8027.34375,896,128
-0.001153946,-16,-165331,-11.92394101,1.156109709,16030,128,-152071,-10.96760821,8046.875,1536,128
-0.11510612,-1596,-165606,-11.94377446,1.111250056,15408,128,-152327,-10.98607135,8066.40625,2176,128
-0.145974177,-2024,-165451,-11.9325956,1.117524638,15495,128,-152324,-10.98585498,8085.9375,2816,128
-0.076232562,-1057,-165116,-11.90843486,1.172553441,16258,128,-152113,-10.97063732,8105.46875,3456,128
-0.110490335,-1532,-165271,-11.91961371,1.147094506,15905,128,-151327,-10.91394972,8125,4096,128
-0.073780426,-1023,-164719,-11.87980257,1.181496523,16382,128,-150532,-10.85661302,8144.53125,4736,128
-0.11113943,-1541,-165072,-11.90526151,1.163177629,16128,128,-151684,-10.93969714,8164.0625,5376,128
-0.069597372,-965,-165837,-11.96043455,1.177457711,16326,128,-152634,-11.00821269,8183.59375,6016,128
-0.073852548,-1024,-165336,-11.92430162,1.146950262,15903,128,-152492,-10.99797142,8203.125,6656,128
-0.001153946,-16,-166020,-11.97363281,1.181063793,16376,128,-153149,-11.04535533,8222.65625,7296,128
-0.062601574,-868,-164729,-11.88052379,5.05E-04,7,128,-152848,-11.02364672,8242.1875,7936,128
-2.361550613,-32744,-161567,-11.6524752,0.004615784,64,128,-141498,-10.20506623,8261.71875,8576,128
-0.017381313,-241,-167595,-12.08722437,0.590171288,8183,128,-150602,-10.86166154,8281.25,9216,128
-0.230572847,-3197,-166487,-12.00731361,0.562765069,7803,128,-155854,-11.24044433,8300.78125,9856,128
-0.018967988,-263,-165671,-11.94846236,1.123294368,15575,128,-153385,-11.06237603,8320.3125,10496,128
-0.147705096,-2048,-166212,-11.98748016,1.16368248,16135,128,-153364,-11.06086148,8339.84375,11136,128
-0.012765528,-177,-165825,-11.95956909,1.163177629,16128,128,-153174,-11.04715837,8359.375,11776,128
-0.176337382,-2445,-166331,-11.99606264,1.125025287,15599,128,-153393,-11.062953,8378.90625,12416,128
-0.002091527,-29,-165779,-11.9562515,1.170101305,16224,128,-153116,-11.04297531,8398.4375,13056,128
-0.115394606,-1600,-166067,-11.97702253,1.163105507,16127,128,-153042,-11.03763831,8417.96875,13696,128
-0.009015204,-125,-165474,-11.9342544,1.145291465,15880,128,-152491,-10.99789929,8437.5,14336,128
-0.115394606,-1600,-165567,-11.94096171,1.126251355,15616,128,-152312,-10.98498952,8457.03125,14976,128
-0.144099014,-1998,-165094,-11.90684818,1.149330276,15936,128,-151024,-10.89209686,8476.5625,15616,128
-0.073924669,-1025,-164873,-11.8909093,1.108437313,15369,128,-150519,-10.85567544,8496.09375,16256,128
-0.071761021,-995,-164813,-11.886582,1.181568644,16383,128,-149921,-10.81254671,8515.625,16896,128
-0.124626175,-1728,-164601,-11.87129222,1.181568644,16383,128,-149944,-10.81420551,8535.15625,17536,128
-0.110778822,-1536,-165336,-11.92430162,1.066174038,14783,128,-151867,-10.9528954,8554.6875,18176,128
-0.017381313,-241,-165965,-11.96966612,1.181063793,16376,128,-152847,-11.02357459,8574.21875,18816,128
-0.009159447,-127,-165611,-11.94413506,1.107788218,15360,128,-153176,-11.04730261,8593.75,19456,128
-0.002884865,-40,-165873,-11.96303093,1.180414698,16367,128,-153694,-11.08466161,8613.28125,20096,128
-0.008582474,-119,-165879,-11.96346366,1.163249751,16129,128,-153737,-11.08776284,8632.8125,20736,128
-0.012765528,-177,-165684,-11.94939994,1.148969668,15931,128,-153302,-11.05638993,8652.34375,21376,128
-0.147705096,-2048,-165804,-11.95805454,1.125097409,15600,128,-153166,-11.04658139,8671.875,22016,128
-7.21E-05,-1,-165804,-11.95805454,1.109879745,15389,128,-153437,-11.06612635,8691.40625,22656,128
-0.001803041,-25,-165354,-11.9255998,1.166855832,16179,128,-153276,-11.05451477,8710.9375,23296,128
-0.142728703,-1979,-165362,-11.92617678,1.107788218,15360,128,-153568,-11.07557429,8730.46875,23936,128
-7.21E-05,-1,-165791,-11.95711696,1.117019786,15488,128,-153562,-11.07514156,8750,24576,128
-0.14258446,-1977,-165809,-11.95841515,1.18048682,16368,128,-153680,-11.08365191,8769.53125,25216,128
-0.147632974,-2047,-166004,-11.97247886,1.181424401,16381,128,-153947,-11.10290839,8789.0625,25856,128
-0.146334785,-2029,-165226,-11.91636824,1.127405301,15632,128,-153323,-11.05790449,8808.59375,26496,128
-0.147705096,-2048,-165679,-11.94903933,1.179332874,16352,128,-153905,-11.09987928,8828.125,27136,128
-0.147128123,-2040,-166041,-11.97514736,1.149258155,15935,128,-154026,-11.10860599,8847.65625,27776,128
-0.149436015,-2072,-165951,-11.96865642,1.149258155,15935,128,-154096,-11.11365451,8867.1875,28416,128
-0.046229964,-641,-165697,-11.95033752,1.16764917,16190,128,-153899,-11.09944655,8886.71875,29056,128
-0.018463137,-256,-166061,-11.9765898,1.144786614,15873,128,-154099,-11.11387087,8906.25,29696,128
-0.145541447,-2018,-165492,-11.93555259,1.165413399,16159,128,-153914,-11.10052837,8925.78125,30336,128
-0.009231568,-128,-166015,-11.9732722,1.14464237,15871,128,-154177,-11.11949636,8945.3125,30976,128
-0.147272366,-2042,-165206,-11.9149258,1.108293069,15367,128,-152894,-11.02696431,8964.84375,31616,128
-7.21E-05,-1,-165419,-11.93028771,1.112259759,15422,128,-152338,-10.98686468,8984.375,32256,128
-0.13948323,-1934,-165373,-11.92697012,1.108797921,15374,128,-153603,-11.07809854,9003.90625,32896,128
-0.138257162,-1917,-166312,-11.99469232,1.158561845,16064,128,-154474,-11.14091648,9023.4375,33536,128
-0.020843151,-289,-166152,-11.98315286,1.176303765,16310,128,-154659,-11.15425898,9042.96875,34176,128
-0.149940866,-2079,-166504,-12.00853968,1.179260752,16351,128,-154896,-11.17135181,9062.5,34816,128
-0.139555352,-1935,-165789,-11.95697271,0,0,128,-154856,-11.16846695,9082.03125,35456,128
-2.289428984,-31744,-161960,-11.680819,0.004543663,63,128,-139012,-10.02577186,9101.5625,36096,128
-0.034402017,-477,-167313,-12.06688608,0.073852548,1024,128,-146411,-10.55939979,9121.09375,36736,128
-0.295410191,-4096,-166904,-12.03738833,0.5198527,7208,128,-156483,-11.28580884,9140.625,37376,128
-0.00930369,-129,-166732,-12.02498341,1.127982274,15640,128,-154899,-11.17156818,9160.15625,38016,128
-0.168331882,-2334,-166657,-12.01957429,1.125674382,15608,128,-154591,-11.14935471,9179.6875,38656,128
-0.214129116,-2969,-166812,-12.03075314,1.10786034,15361,128,-154634,-11.15245594,9199.21875,39296,128
-0.147777217,-2049,-166754,-12.02657008,1.148753303,15928,128,-154512,-11.14365711,9218.75,39936,128
-0.009808542,-136,-166541,-12.01120818,1.126251355,15616,128,-154229,-11.12324668,9238.28125,40576,128
-7.21E-05,-1,-166196,-11.98632622,1.158633966,16065,128,-153919,-11.10088898,9257.8125,41216,128
-0.001153946,-16,-166134,-11.98185468,1.163177629,16128,128,-153496,-11.07038153,9277.34375,41856,128
-0.01860738,-258,-166234,-11.98906684,1.181568644,16383,128,-153037,-11.0372777,9296.875,42496,128
-0.148859042,-2064,-165698,-11.95040964,1.181568644,16383,128,-151825,-10.94986629,9316.40625,43136,128
-0.133352892,-1849,-165553,-11.93995201,1.181135914,16377,128,-151719,-10.9422214,9335.9375,43776,128
-0.017381313,-241,-165017,-11.90129482,1.181496523,16382,128,-150552,-10.85805546,9355.46875,44416,128
-0.113158836,-1569,-165372,-11.92689799,1.1424066,15840,128,-151566,-10.93118679,9375,45056,128
-0.036998396,-513,-165521,-11.93764412,1.177169225,16322,128,-152638,-11.00850117,9394.53125,45696,128
-0.293390786,-4068,-166311,-11.9946202,1.181496523,16382,128,-154264,-11.12577094,9414.0625,46336,128
-0.002091527,-29,-165982,-11.97089219,1.180775306,16372,128,-154667,-11.15483596,9433.59375,46976,128
-0.028271678,-392,-166388,-12.00017357,1.163393994,16131,128,-154769,-11.16219236,9453.125,47616,128
-0.289928948,-4020,-166067,-11.97702253,1.108797921,15374,128,-154582,-11.14870562,9472.65625,48256,128
-0.013919474,-193,-166262,-11.99108624,1.14464237,15871,128,-154616,-11.15115775,9492.1875,48896,128
-5.05E-04,-7,-165988,-11.97132492,1.163177629,16128,128,-154373,-11.1336322,9511.71875,49536,128
-0.170351287,-2362,-166194,-11.98618197,1.181568644,16383,128,-154627,-11.15195109,9531.25,50176,128
-0.165014287,-2288,-166169,-11.98437893,1.144426005,15868,128,-154704,-11.15750446,9550.78125,50816,128
-0.259060891,-3592,-165991,-11.97154128,1.146950262,15903,128,-154599,-11.14993169,9570.3125,51456,128
-0.036493544,-506,-166015,-11.9732722,1.180414698,16367,128,-154638,-11.15274443,9589.84375,52096,128
-0.156431813,-2169,-166139,-11.98221528,1.144714492,15872,128,-154998,-11.17870822,9609.375,52736,128
-0.036782031,-510,-166209,-11.9872638,1.172914049,16263,128,-154746,-11.16053357,9628.90625,53376,128
-0.032382611,-449,-166361,-11.99822628,1.144714492,15872,128,-155232,-11.19558468,9648.4375,54016,128
-0.14878692,-2063,-166475,-12.00644815,1.125674382,15608,128,-155144,-11.18923797,9667.96875,54656,128
-0.240597754,-3336,-166229,-11.98870623,1.152719993,15983,128,-155035,-11.18137672,9687.5,55296,128
-0.018030407,-250,-166626,-12.01733852,1.147671479,15913,128,-155095,-11.18570401,9707.03125,55936,128
-0.061159141,-848,-166567,-12.01308334,1.174644968,16287,128,-155130,-11.18822827,9726.5625,56576,128
-0.161047597,-2233,-166571,-12.01337183,1.181063793,16376,128,-155111,-11.18685796,9746.09375,57216,128
-7.21E-05,-1,-166452,-12.00478935,1.177169225,16322,128,-155156,-11.19010343,9765.625,57856,128
-0.214633967,-2976,-166816,-12.03104163,1.122789517,15568,128,-155436,-11.21029749,9785.15625,58496,128
-0.295410191,-4096,-166251,-11.99029291,1.172625562,16259,128,-155106,-11.18649735,9804.6875,59136,128
-0.129530445,-1796,-166186,-11.985605,1.164331575,16144,128,-154299,-11.1282952,9824.21875,59776,128
-0.180736802,-2506,-166218,-11.98791289,1.18048682,16368,128,-153882,-11.09822048,9843.75,60416,128
-0.167105814,-2317,-166325,-11.99562991,1.158561845,16064,128,-155304,-11.20077744,9863.28125,61056,128
-0.004615784,-64,-166504,-12.00853968,1.1167313,15484,128,-155524,-11.21664419,9882.8125,61696,128
-0.275576744,-3821,-166744,-12.02584887,0.55879838,7748,128,-155966,-11.24852195,9902.34375,62336,128
-0.295265948,-4094,-167286,-12.06493879,0.570842692,7915,128,-156021,-11.25248864,9921.875,62976,128
-0.163932462,-2273,-164877,-11.89119779,0.027838949,386,128,-154337,-11.13103582,9941.40625,63616,128
-2.363065167,-32765,-163005,-11.7561861,1.070789822,14847,128,-138955,-10.02166093,9960.9375,64256,128
-0.147632974,-2047,-167927,-12.11116876,1.0343684,14342,128,-148764,-10.72910198,9980.46875,64896,128
-0.44499045,-6170,-167496,-12.08008433,0.554110474,7683,128,-157459,-11.35619955,10000,0,128
-0.032526855,-451,-167379,-12.0716461,1.145002978,15876,128,-155644,-11.22529879,10019.53125,640,128
-0.294328367,-4081,-167345,-12.06919397,0.590171288,8183,128,-155609,-11.22277453,10039.0625,1280,128
-0.223865536,-3104,-166936,-12.03969622,1.181568644,16383,128,-155152,-11.18981495,10058.59375,1920,128
-0.263171823,-3649,-167320,-12.06739093,1.165124913,16155,128,-155248,-11.19673862,10078.125,2560,128
-0.008149744,-113,-166994,-12.04387928,1.164259453,16143,128,-154769,-11.16219236,10097.65625,3200,128
-0.214129116,-2969,-166924,-12.03883076,1.163466115,16132,128,-154932,-11.17394819,10117.1875,3840,128
-0.294833218,-4088,-166680,-12.02123308,1.179260752,16351,128,-154211,-11.1219485,10136.71875,4480,128
-0.286250745,-3969,-166539,-12.01106393,1.177529833,16327,128,-154164,-11.11855878,10156.25,5120,128
-0.184703491,-2561,-166022,-11.97377705,1.179837725,16359,128,-152539,-11.00136113,10175.78125,5760,128
-0.150229353,-2083,-166059,-11.97644555,1.144426005,15868,128,-152087,-10.96876216,10195.3125,6400,128
-0.221701887,-3074,-165915,-11.96606004,1.165413399,16159,128,-151530,-10.92859041,10214.84375,7040,128
-0.147705096,-2048,-165792,-11.95718908,1.163177629,16128,128,-151742,-10.94388019,10234.375,7680,128
-0.002380014,-33,-166675,-12.02087248,1.156181831,16031,128,-153664,-11.08249796,10253.90625,8320,128
-0.14835419,-2057,-166361,-11.99822628,1.181568644,16383,128,-154162,-11.11841454,10273.4375,8960,128
-0.009231568,-128,-166783,-12.02866161,1.179260752,16351,128,-154788,-11.16356267,10292.96875,9600,128
-0.242472916,-3362,-167330,-12.06811214,1.167865535,16193,128,-155039,-11.1816652,10312.5,10240,128
-0.073347696,-1017,-166860,-12.03421498,1.181352279,16380,128,-154736,-11.15981235,10332.03125,10880,128
-0.073924669,-1025,-166992,-12.04373503,1.167144318,16183,128,-154691,-11.15656688,10351.5625,11520,128
-0.007140041,-99,-166627,-12.01741064,1.172337076,16255,128,-154262,-11.1256267,10371.09375,12160,128
-0.065847047,-913,-167469,-12.07813705,1.107788218,15360,128,-154788,-11.16356267,10390.625,12800,128
-0.013847353,-192,-167098,-12.05137993,1.172914049,16263,128,-154721,-11.15873053,10410.15625,13440,128
-0.14655115,-2032,-167327,-12.06789578,1.180847428,16373,128,-154646,-11.1533214,10429.6875,14080,128
-0.113014592,-1567,-167467,-12.07799281,1.181568644,16383,128,-154645,-11.15324928,10449.21875,14720,128
-0.009015204,-125,-167501,-12.08044494,1.149258155,15935,128,-154887,-11.17070272,10468.75,15360,128
-0.009087325,-126,-167308,-12.06652547,1.163105507,16127,128,-154614,-11.15101351,10488.28125,16000,128
-0.272403392,-3777,-167634,-12.09003712,1.149186033,15934,128,-155102,-11.18620887,10507.8125,16640,128
-0.129241959,-1792,-167582,-12.08628679,1.144714492,15872,128,-154989,-11.17805912,10527.34375,17280,128
-0.293102299,-4064,-167648,-12.09104682,1.181568644,16383,128,-155037,-11.18152096,10546.875,17920,128
-0.119794025,-1661,-167570,-12.08542133,1.165341278,16158,128,-155141,-11.18902161,10566.40625,18560,128
-0.006995798,-97,-168266,-12.13561799,1.116587057,15482,128,-155574,-11.22025028,10585.9375,19200,128
-0.267715486,-3712,-167527,-12.0823201,1.147310871,15908,128,-155099,-11.1859925,10605.46875,19840,128
-0.26079181,-3616,-167749,-12.09833111,1.162240048,16115,128,-155345,-11.20373442,10625,20480,128
-0.129818932,-1800,-167432,-12.07546855,1.158201237,16059,128,-154973,-11.17690518,10644.53125,21120,128
-7.21E-05,-1,-166915,-12.03818167,1.181063793,16376,128,-153366,-11.06100572,10664.0625,21760,128
-0.174317977,-2417,-166721,-12.02419007,1.179837725,16359,128,-153107,-11.04232622,10683.59375,22400,128
-0.146334785,-2029,-167549,-12.08390678,1.10786034,15361,128,-154464,-11.14019527,10703.125,23040,128
-0.446649247,-6193,-168034,-12.11888577,1.163249751,16129,128,-155115,-11.18714645,10722.65625,23680,128
-0.318489113,-4416,-168252,-12.13460828,1.108870042,15375,128,-155617,-11.22335151,10742.1875,24320,128
-2.374820992,-32928,-167580,-12.08614255,1.180342577,16366,128,-155506,-11.215346,10761.71875,24960,128
-0.002307892,-32,-166998,-12.04416776,0,0,128,-155569,-11.21988967,10781.25,25600,128
-0.001153946,-16,-166517,-12.00947726,0.58627672,8129,128,-137211,-9.895880806,10800.78125,26240,128
-0.143089311,-1984,-169519,-12.22598639,1.038695698,14402,128,-155562,-11.21938482,10820.3125,26880,128
-0.036709909,-509,-168199,-12.13078584,0.586132477,8127,128,-157009,-11.32374481,10839.84375,27520,128
-0.477733669,-6624,-168219,-12.13222827,0.59067614,8190,128,-155840,-11.23943463,10859.375,28160,128
-0.147200244,-2041,-168014,-12.11744334,1.166927954,16180,128,-155442,-11.21073022,10878.90625,28800,128
-0.590820383,-8192,-168422,-12.14686896,1.144714492,15872,128,-155537,-11.21758177,10898.4375,29440,128
-0.115322484,-1599,-167483,-12.07914675,1.181496523,16382,128,-154630,-11.15216746,10917.96875,30080,128
-0.018391015,-255,-167702,-12.09494139,1.149258155,15935,128,-154779,-11.16291358,10937.5,30720,128
-0.027838949,-386,-168194,-12.13042523,1.110312475,15395,128,-154577,-11.14834501,10957.03125,31360,128
-5.05E-04,-7,-168217,-12.13208403,1.14817633,15920,128,-154206,-11.12158789,10976.5625,32000,128
-0.147200244,-2041,-167433,-12.07554067,1.172625562,16259,128,-153421,-11.06497241,10996.09375,32640,128
-0.293246543,-4066,-167106,-12.0519569,1.163177629,16128,128,-152262,-10.98138344,11015.625,33280,128
-0.295193827,-4093,-167101,-12.05159629,1.173058292,16265,128,-151767,-10.94568323,11035.15625,33920,128
-0.239876537,-3326,-167166,-12.0562842,1.11716403,15490,128,-151422,-10.92080127,11054.6875,34560,128
-0.036854152,-511,-167215,-12.05981816,1.112404002,15424,128,-152376,-10.98960531,11074.21875,35200,128
-0.044138437,-612,-167664,-12.09220077,1.12603499,15613,128,-153359,-11.06050087,11093.75,35840,128
-0.277019176,-3841,-167613,-12.08852256,1.109879745,15389,128,-154454,-11.13947405,11113.28125,36480,128
-0.147705096,-2048,-167792,-12.10143234,1.165197035,16156,128,-154856,-11.16846695,11132.8125,37120,128
-0.147632974,-2047,-168000,-12.11643363,1.163177629,16128,128,-155024,-11.18058338,11152.34375,37760,128
-0.22271159,-3088,-167312,-12.06681395,1.180270455,16365,128,-154643,-11.15310504,11171.875,38400,128
-0.276947054,-3840,-167861,-12.10640873,1.145219343,15879,128,-155253,-11.19709923,11191.40625,39040,128
-0.129818932,-1800,-167704,-12.09508563,1.148248452,15921,128,-155087,-11.18512704,11210.9375,39680,128
-0.03231049,-448,-167357,-12.07005943,1.171760103,16247,128,-154794,-11.1639954,11230.46875,40320,128
-0.004615784,-64,-167490,-12.0796516,1.163177629,16128,128,-154800,-11.16442813,11250,40960,128
-7.21E-05,-1,-167185,-12.05765451,1.159138818,16072,128,-154936,-11.17423668,11269.53125,41600,128
-0.288414393,-3999,-167607,-12.08808983,1.163466115,16132,128,-155462,-11.21217265,11289.0625,42240,128
-0.291731988,-4045,-167565,-12.08506073,1.125674382,15608,128,-155440,-11.21058598,11308.59375,42880,128
-0.027766827,-385,-167761,-12.09919657,0.59067614,8190,128,-155821,-11.23806432,11328.125,43520,128
-0.139338987,-1932,-167563,-12.08491648,0.586637328,8134,128,-155698,-11.22919336,11347.65625,44160,128
-0.132775919,-1841,-167477,-12.07871402,0.582670639,8079,128,-156001,-11.25104621,11367.1875,44800,128
-0.004615784,-64,-167740,-12.09768201,0.545744365,7567,128,-156278,-11.2710239,11386.71875,45440,128
-0.146839636,-2036,-167652,-12.09133531,0.586132477,8127,128,-156235,-11.26792267,11406.25,46080,128
-0.131549851,-1824,-167941,-12.11217846,0.559086866,7752,128,-156674,-11.29958407,11425.78125,46720,128
-2.88E-04,-4,-167940,-12.11210634,0.590531896,8188,128,-156904,-11.31617204,11445.3125,47360,128
-0.294544732,-4084,-167417,-12.07438672,0.553894109,7680,128,-156243,-11.26849964,11464.84375,48000,128
-0.001081824,-15,-167195,-12.05837572,1.162600656,16120,128,-155414,-11.20871081,11484.375,48640,128
-0.562692948,-7802,-168010,-12.11715485,1.112115516,15420,128,-155591,-11.22147634,11503.90625,49280,128
-7.21E-05,-1,-168002,-12.11657788,0.517039957,7169,128,-156667,-11.29907922,11523.4375,49920,128
-0.331975857,-4603,-168203,-12.13107432,0.517689051,7178,128,-157430,-11.35410802,11542.96875,50560,128
-0.012981893,-180,-168116,-12.12479974,0.590748261,8191,128,-157789,-11.37999968,11562.5,51200,128
-0.59067614,-8190,-168502,-12.15263869,0.521511498,7231,128,-158289,-11.4160605,11582.03125,51840,128
-0.263099702,-3648,-166086,-11.97839284,0.009159447,127,128,-155617,-11.22335151,11601.5625,52480,128
-0.14655115,-2032,-165262,-11.91896461,0.581011841,8056,128,-140174,-10.10957719,11621.09375,53120,128
-0.1107067,-1535,-169743,-12.24214163,1.164187332,16142,128,-159982,-11.53816241,11640.625,53760,128
-0.585627626,-8120,-168359,-12.1423253,0.589594315,8175,128,-159537,-11.50606829,11660.15625,54400,128
-0.459559019,-6372,-168615,-12.16078844,0.531680647,7372,128,-158500,-11.43127816,11679.6875,55040,128
-0.588800977,-8164,-168356,-12.14210893,0.55569715,7705,128,-158191,-11.40899258,11699.21875,55680,128
-0.456890518,-6335,-168117,-12.12487186,0.589017342,8167,128,-157849,-11.38432698,11718.75,56320,128
-0.489056765,-6781,-168376,-12.14355137,0.549278325,7616,128,-158011,-11.39601068,11738.28125,56960,128
-2.418743064,-33537,-168545,-12.15573992,0.590748261,8191,128,-157966,-11.39276521,11757.8125,57600,128
-0.297718084,-4128,-168500,-12.15249445,0.585483382,8118,128,-157694,-11.37314813,11777.34375,58240,128
-2.371431276,-32881,-168181,-12.12948765,0.553894109,7680,128,-157169,-11.33528427,11796.875,58880,128
-0.004904271,-68,-168012,-12.11729909,0.588728856,8163,128,-156729,-11.30355076,11816.40625,59520,128
-2.418743064,-33537,-167745,-12.09804262,0.588512491,8160,128,-155680,-11.22789517,11835.9375,60160,128
-0.017597677,-244,-167111,-12.05231751,1.17031767,16227,128,-155037,-11.18152096,11855.46875,60800,128
-0.29533807,-4095,-167375,-12.07135762,1.149907249,15944,128,-154936,-11.17423668,11875,61440,128
-0.146767515,-2035,-167411,-12.07395399,1.170173427,16225,128,-155295,-11.20012834,11894.53125,62080,128
-1.44E-04,-2,-168065,-12.12112154,0.59024341,8184,128,-157347,-11.34812192,11914.0625,62720,128
-0.582310031,-8074,-168236,-12.13345434,0.59024341,8184,128,-158176,-11.40791075,11933.59375,63360,128
-0.004110933,-57,-168161,-12.12804522,0.556706853,7719,128,-158554,-11.43517273,11953.125,64000,128
-0.36709909,-5090,-168556,-12.15653326,0.521511498,7231,128,-158681,-11.44433218,11972.65625,64640,128
-0.295554435,-4098,-168226,-12.13273312,0.556129879,7711,128,-158689,-11.44490915,11992.1875,65280,128
-0.027766827,-385,-168211,-12.1316513,0.523603025,7260,128,-158636,-11.4410867,12011.71875,384,128
-0.013775231,-191,-168127,-12.12559308,0.561683245,7788,128,-158516,-11.43243211,12031.25,1024,128
-0.015001299,-208,-168048,-12.11989547,0.521439376,7230,128,-158600,-11.43849032,12050.78125,1664,128
-0.018463137,-256,-167924,-12.11095239,0.554182596,7684,128,-158652,-11.44224065,12070.3125,2304,128
-0.036421423,-505,-168381,-12.14391197,0.581588814,8064,128,-159091,-11.47390204,12089.84375,2944,128
-9.38E-04,-13,-168157,-12.12775673,0.567741462,7872,128,-159038,-11.4700796,12109.375,3584,128
-7.21E-05,-1,-168019,-12.11780395,0.572285124,7935,128,-159078,-11.47296446,12128.90625,4224,128
-0.297718084,-4128,-168470,-12.1503308,0.530815188,7360,128,-159552,-11.50715011,12148.4375,4864,128
-0.534926121,-7417,-168171,-12.12876643,0.570049354,7904,128,-159519,-11.5047701,12167.96875,5504,128
-0.064332493,-892,-168572,-12.15768721,0.293030178,4063,128,-159841,-11.52799327,12187.5,6144,128
-5.77E-04,-8,-168200,-12.13085796,0.55836565,7742,128,-159686,-11.51681441,12207.03125,6784,128
-1.44E-04,-2,-168141,-12.12660278,0.29533807,4095,128,-159627,-11.51255924,12226.5625,7424,128
-0.032454733,-450,-168258,-12.13504101,0.290578042,4029,128,-159939,-11.53506118,12246.09375,8064,128
-0.299593246,-4154,-168269,-12.13583435,0.256680877,3559,128,-159981,-11.53809029,12265.625,8704,128
-0.586493085,-8132,-168411,-12.14607562,0.287188326,3982,128,-159862,-11.52950782,12285.15625,9344,128
-0.036926274,-512,-167871,-12.10712994,0.558654136,7746,128,-159138,-11.47729176,12304.6875,9984,128
-0.286250745,-3969,-167596,-12.0872965,0.589666437,8176,128,-157743,-11.37668209,12324.21875,10624,128
-0.018463137,-256,-168076,-12.12191488,0.553605622,7676,128,-158356,-11.42089265,12343.75,11264,128
-1.44E-04,-2,-168366,-12.14283015,0.277451906,3847,128,-159930,-11.53441209,12363.28125,11904,128
-0.304786003,-4226,-168624,-12.16143753,0.236486821,3279,128,-160561,-11.57992084,12382.8125,12544,128
-2.367897316,-32832,-168755,-12.17088546,0.294184124,4079,128,-160899,-11.60429795,12402.34375,13184,128
-0.065270074,-905,-168844,-12.17730429,0.267715486,3712,128,-161104,-11.61908288,12421.875,13824,128
-0.159605164,-2213,-166061,-11.9765898,0.133785621,1855,128,-157889,-11.38721185,12441.40625,14464,128
-0.445206814,-6173,-168185,-12.12977614,0.125058904,1734,128,-145716,-10.50927526,12460.9375,15104,128
-2.372585222,-32897,-170113,-12.26882664,0.054235465,752,128,-163152,-11.76678798,12480.46875,15744,128
-0.046157842,-640,-168664,-12.1643224,0.286611353,3974,128,-161106,-11.61922713,12500,16384,128
-0.322311559,-4469,-168774,-12.17225578,0.292308961,4053,128,-160811,-11.59795125,12519.53125,17024,128
-2.363858505,-32776,-168828,-12.17615034,0.281418595,3902,128,-160685,-11.58886392,12539.0625,17664,128
-0.51675147,-7165,-168917,-12.18256917,0.226173428,3136,128,-160698,-11.5898015,12558.59375,18304,128
-2.403669644,-33328,-168496,-12.15220596,0.279254947,3872,128,-160412,-11.56917472,12578.125,18944,128
-2.365589424,-32800,-168767,-12.17175092,0.253868133,3520,128,-160315,-11.56217892,12597.65625,19584,128
-0.50831324,-7048,-168718,-12.16821696,0.258844526,3589,128,-160107,-11.54717762,12617.1875,20224,128
-0.581660936,-8065,-168353,-12.14189257,0.58981068,8178,128,-159242,-11.48479241,12636.71875,20864,128
-0.332264344,-4607,-168397,-12.14506592,0.567597218,7870,128,-159042,-11.47036808,12656.25,21504,128
-0.297718084,-4128,-168026,-12.1183088,0.589738558,8177,128,-157759,-11.37783603,12675.78125,22144,128
-0.129169837,-1791,-167613,-12.08852256,0.572573611,7939,128,-157341,-11.34768919,12695.3125,22784,128
-0.29533807,-4095,-167913,-12.11015905,0.572429368,7937,128,-157267,-11.34235219,12714.84375,23424,128
-2.367897316,-32832,-168063,-12.1209773,0.553749866,7678,128,-158212,-11.41050713,12734.375,24064,128
-0.298367178,-4137,-168235,-12.13338222,0.553749866,7678,128,-159338,-11.49171609,12753.90625,24704,128
-0.477805791,-6625,-168330,-12.14023377,0.291659867,4044,128,-160291,-11.560448,12773.4375,25344,128
-2.373667046,-32912,-168589,-12.15891327,0.221629765,3073,128,-160621,-11.58424814,12792.96875,25984,128
-2.435114674,-33764,-168804,-12.17441942,0.29533807,4095,128,-160770,-11.59499426,12812.5,26624,128
-0.553966231,-7681,-168529,-12.15458598,0.267571243,3710,128,-160674,-11.58807058,12832.03125,27264,128
-0.069236764,-960,-168981,-12.18718495,0.238938956,3313,128,-160837,-11.59982641,12851.5625,27904,128
-2.372585222,-32897,-168119,-12.12501611,0.277019176,3841,128,-160489,-11.57472808,12871.09375,28544,128
-0.364935442,-5060,-168524,-12.15422537,0.226173428,3136,128,-160679,-11.58843119,12890.625,29184,128
-2.367248221,-32823,-168311,-12.13886346,0.293246543,4066,128,-160798,-11.59701366,12910.15625,29824,128
-0.349934143,-4852,-168692,-12.1663418,0.221557644,3072,128,-160662,-11.58720512,12929.6875,30464,128
-0.581805179,-8067,-168727,-12.16886606,0.286322866,3970,128,-161094,-11.61836167,12949.21875,31104,128
-0.499081671,-6920,-168528,-12.15451385,0.29490534,4089,128,-160791,-11.59650881,12968.75,31744,128
-2.399775076,-33274,-168314,-12.13907983,0.281418595,3902,128,-160964,-11.60898585,12988.28125,32384,128
-0.49857682,-6913,-168481,-12.15112414,0.291010772,4035,128,-160937,-11.60703857,13007.8125,33024,128
-0.07039071,-976,-169080,-12.19432499,0.29533807,4095,128,-160804,-11.59744639,13027.34375,33664,128
-0.448885018,-6224,-168544,-12.1556678,0.295049583,4091,128,-161173,-11.62405927,13046.875,34304,128
-3.61E-04,-5,-168453,-12.14910473,0.258483918,3584,128,-160696,-11.58965726,13066.40625,34944,128
-0.29887203,-4144,-168432,-12.14759018,0.277379784,3846,128,-160924,-11.60610099,13085.9375,35584,128
-0.016155245,-224,-168602,-12.15985085,0.286106501,3967,128,-160929,-11.6064616,13105.46875,36224,128
-0.31170968,-4322,-168610,-12.16042783,0.257906945,3576,128,-160342,-11.5641262,13125,36864,128
-0.296636259,-4113,-167985,-12.11535181,0.590748261,8191,128,-159027,-11.46928626,13144.53125,37504,128
-0.295482313,-4097,-168069,-12.12141003,0.590748261,8191,128,-158771,-11.45082312,13164.0625,38144,128
-0.461362059,-6397,-168681,-12.16554846,0.278677974,3864,128,-159919,-11.53361875,13183.59375,38784,128
-0.367171212,-5091,-168847,-12.17752065,0.286178623,3968,128,-160879,-11.60285552,13203.125,39424,128
-0.295482313,-4097,-168802,-12.17427518,0.261224539,3622,128,-161114,-11.6198041,13222.65625,40064,128
-0.008149744,-113,-168806,-12.17456367,0.29533807,4095,128,-160821,-11.59867246,13242.1875,40704,128
-0.014135839,-196,-166852,-12.033638,0.065630682,910,128,-159842,-11.52806539,13261.71875,41344,128
-0.108759416,-1508,-165187,-11.91355549,0.293102299,4064,128,-145024,-10.45936709,13281.25,41984,128
-0.221701887,-3074,-170336,-12.28490976,0.036854152,511,128,-161978,-11.68211719,13300.78125,42624,128
-0.00930369,-129,-169096,-12.19547894,0.064693101,897,128,-163071,-11.76094613,13320.3125,43264,128
-0.027838949,-386,-169010,-12.18927648,0.258123309,3579,128,-160976,-11.60985131,13339.84375,43904,128
-0.07616044,-1056,-169023,-12.19021406,0.294256245,4080,128,-160880,-11.60292764,13359.375,44544,128
-0.368180915,-5105,-168673,-12.16497149,0.29533807,4095,128,-160555,-11.57948811,13378.90625,45184,128
-0.060005195,-832,-168745,-12.17016425,0.292813813,4060,128,-160292,-11.56052012,13398.4375,45824,128
-0.408208419,-5660,-168988,-12.1876898,0.260719688,3615,128,-160641,-11.58569057,13417.96875,46464,128
-0.008798839,-122,-169052,-12.19230559,0.294761097,4087,128,-160139,-11.54948551,13437.5,47104,128
-0.461794789,-6403,-168731,-12.16915454,0.559447474,7757,128,-159651,-11.51429016,13457.03125,47744,128
-1.44E-04,-2,-168546,-12.15581204,0.58670945,8135,128,-158842,-11.45594376,13476.5625,48384,128
-0.295987164,-4104,-167855,-12.105976,0.590748261,8191,128,-158046,-11.39853494,13496.09375,49024,128
-0.517039957,-7169,-167977,-12.11477484,0.572501489,7938,128,-157366,-11.34949223,13515.625,49664,128
-2.363281532,-32768,-4194304,-302.5000361,0,0,155,-167927,-12.11116876,13535.15625,50304,128
-0.073852548,-1024,-168177,-12.12919916,1.126251355,15616,128,-157659,-11.37062387,13554.6875,50944,0
-0.017309191,-240,-168365,-12.14275803,0.531247918,7366,128,-159110,-11.47527235,13574.21875,51584,128
-2.363497897,-32771,-168339,-12.14088287,0.547475284,7591,128,-160048,-11.54292244,13593.75,52224,128
-7.21E-05,-1,-168731,-12.16915454,0.253796012,3519,128,-160669,-11.58770997,13613.28125,52864,128
-0.558437772,-7743,-169035,-12.19107952,0.286178623,3968,128,-160780,-11.59571547,13632.8125,53504,128
-0.069381007,-962,-168706,-12.1673515,0.225884941,3132,128,-160724,-11.59167666,13652.34375,54144,128
-2.363353653,-32769,-168787,-12.17319336,0.267571243,3710,128,-160650,-11.58633966,13671.875,54784,128
-2.367969438,-32833,-168652,-12.16345694,0.277235541,3844,128,-160407,-11.56881411,13691.40625,55424,128
-2.432878903,-33733,-168786,-12.17312123,0.230212239,3192,128,-160554,-11.57941599,13710.9375,56064,128
-2.418743064,-33537,-168830,-12.17629459,0.254084498,3523,128,-160592,-11.58215661,13730.46875,56704,128
-2.368474289,-32840,-169166,-12.20052745,0.222134617,3080,128,-160696,-11.58965726,13750,57344,128
-2.436629228,-33785,-168920,-12.18278553,0.225019482,3120,128,-160733,-11.59232576,13769.53125,57984,128
-0.512424172,-7105,-168737,-12.16958727,0.286178623,3968,128,-160347,-11.56448681,13789.0625,58624,128
-2.508606614,-34783,-168845,-12.17737641,0.272403392,3777,128,-160437,-11.57097776,13808.59375,59264,128
-0.590315532,-8185,-169376,-12.215673,0.221557644,3072,128,-160832,-11.5994658,13828.125,59904,128
-2.449250513,-33960,-169289,-12.20939841,0.239732294,3324,128,-160504,-11.57580991,13847.65625,60544,128
-0.517905416,-7181,-169119,-12.19713774,0.239732294,3324,128,-160507,-11.57602627,13867.1875,61184,128
-2.400207806,-33280,-169491,-12.22396698,0.29533807,4095,128,-160836,-11.59975429,13886.71875,61824,128
-0.58627672,-8129,-169334,-12.21264389,0.225524333,3127,128,-160637,-11.58540208,13906.25,62464,128
-2.51019329,-34805,-168807,-12.17463579,0.262955459,3646,128,-159460,-11.50051492,13925.78125,63104,128
-0.470809993,-6528,-169029,-12.19064679,0.519203606,7199,128,-158816,-11.4540686,13945.3125,63744,128
-2.368113681,-32835,-169047,-12.19194498,0.587286423,8143,128,-158769,-11.45067888,13964.84375,64384,128
-2.363930626,-32777,-170102,-12.2680333,0.290794407,4032,128,-161021,-11.61309679,13984.375,65024,128
-0.452274734,-6271,-169773,-12.24430528,0.258483918,3584,128,-161229,-11.62809809,14003.90625,128,128
-0.534926121,-7417,-170222,-12.27668789,0.244564443,3391,128,-161614,-11.65586491,14023.4375,768,128
-0.460712965,-6388,-170127,-12.26983634,0.225524333,3127,128,-162076,-11.68918511,14042.96875,1408,128
-0.303559936,-4209,-166231,-11.98885047,0.00223577,31,128,-153034,-11.03706134,14062.5,2048,128
-0.295410191,-4096,-169912,-12.25433019,0.093397509,1295,128,-145759,-10.51237649,14082.03125,2688,128
-2.364579721,-32786,-171220,-12.34866528,1.44E-04,2,128,-164481,-11.86263762,14101.5625,3328,128
-0.517905416,-7181,-170688,-12.31029657,0.015001299,208,128,-162664,-11.73159262,14121.09375,3968,128
-0.219321873,-3041,-170592,-12.3033729,0.106163038,1472,128,-162013,-11.68464144,14140.625,4608,128
-0.44325953,-6146,-170544,-12.29991106,0.140565054,1949,128,-161820,-11.67072197,14160.15625,5248,128
-0.295410191,-4096,-170672,-12.30914263,0.143594163,1991,128,-161706,-11.6625001,14179.6875,5888,128
-0.46980029,-6514,-170710,-12.31188325,0.146479028,2031,128,-161774,-11.66740437,14199.21875,6528,128
-0.443187409,-6145,-170832,-12.32068209,0.222567346,3086,128,-161378,-11.63884421,14218.75,7168,128
-0.572717854,-7941,-170981,-12.33142821,0.235621361,3267,128,-161615,-11.65593703,14238.28125,7808,128
-0.156936664,-2176,-170660,-12.30827717,0.274494919,3806,128,-160926,-11.60624523,14257.8125,8448,128
-0.589738558,-8177,-170472,-12.2947183,0.240092902,3329,128,-160463,-11.57285292,14277.34375,9088,128
-0.149868745,-2078,-169865,-12.25094047,0.526127282,7295,128,-159002,-11.46748322,14296.875,9728,128
-0.443475895,-6149,-170507,-12.29724256,0.556129879,7711,128,-159169,-11.47952753,14316.40625,10368,128
-0.002380014,-33,-170250,-12.2787073,0.590748261,8191,128,-159059,-11.47159415,14335.9375,11008,128
-0.295410191,-4096,-170729,-12.31325356,0.517977538,7182,128,-160232,-11.55619282,14355.46875,11648,128
-0.202084804,-2802,-171364,-12.35905079,0.219466116,3043,128,-161995,-11.68334325,14375,12288,128
-0.553894109,-7680,-171410,-12.36236839,0.080776224,1120,128,-162603,-11.7271932,14394.53125,12928,128
-0.581588814,-8064,-171884,-12.39655404,0.073852548,1024,128,-162750,-11.73779508,14414.0625,13568,128
-0.555192298,-7698,-171659,-12.38032667,0.035772328,496,128,-162697,-11.73397264,14433.59375,14208,128
-0.586565207,-8133,-171718,-12.38458185,0.032598976,452,128,-163068,-11.76072976,14453.125,14848,128
-0.5225212,-7245,-171579,-12.37455694,0.073852548,1024,128,-162936,-11.75120971,14472.65625,15488,128
-2.510986627,-34816,-171707,-12.38378851,0.036854152,511,128,-162875,-11.74681029,14492.1875,16128,128
-0.895390021,-12415,-171869,-12.39547222,0.009159447,127,128,-163172,-11.76823041,14511.71875,16768,128
-2.640228586,-36608,-171637,-12.37874,0.036782031,510,128,-163300,-11.77746198,14531.25,17408,128
-0.262378485,-3638,-171744,-12.38645701,4.33E-04,6,128,-163463,-11.7892178,14550.78125,18048,128
-2.656311709,-36831,-172217,-12.42057054,7.93E-04,11,128,-163676,-11.80457971,14570.3125,18688,128
-0.895606386,-12418,-172200,-12.41934448,1.181568644,16383,128,-163974,-11.82607196,14589.84375,19328,128
-2.380879209,-33012,-172487,-12.44004338,1.179332874,16352,128,-164079,-11.83364473,14609.375,19968,128
-2.395808386,-33219,-172255,-12.42331116,1.153873939,15999,128,-164237,-11.84503995,14628.90625,20608,128
-2.506442965,-34753,-172149,-12.41566627,1.163177629,16128,128,-164049,-11.83148108,14648.4375,21248,128
-2.381744669,-33024,-172321,-12.42807119,1.181568644,16383,128,-164394,-11.85636304,14667.96875,21888,128
-2.363858505,-32776,-172581,-12.44682282,1.146950262,15903,128,-164552,-11.86775826,14687.5,22528,128
-2.40792482,-33387,-172771,-12.46052593,1.116370692,15479,128,-164676,-11.87670134,14707.03125,23168,128
-2.363353653,-32769,-172616,-12.44934707,1.128487125,15647,128,-164581,-11.86984979,14726.5625,23808,128
-2.365012451,-32792,-172226,-12.42121964,1.14464237,15871,128,-164466,-11.8615558,14746.09375,24448,128
-1.171904346,-16249,-172410,-12.43449002,1.181496523,16382,128,-164056,-11.83198593,14765.625,25088,128
-2.363353653,-32769,-171818,-12.39179401,0.064765223,898,128,-162772,-11.73938176,14785.15625,25728,128
-2.658475358,-36861,-171749,-12.38681762,0.138473527,1920,128,-162609,-11.72762593,14804.6875,26368,128
-2.366166397,-32808,-172347,-12.42994635,0.032598976,452,128,-164197,-11.84215508,14824.21875,27008,128
-2.367392465,-32825,-172928,-12.47184902,1.121635571,15552,128,-165154,-11.91117548,14843.75,27648,128
-2.378643439,-32981,-172642,-12.45122224,1.179332874,16352,128,-164824,-11.88737534,14863.28125,28288,128
-2.432806782,-33732,-173041,-12.47999876,1.164764305,16150,128,-165483,-11.93490349,14882.8125,28928,128
-2.658186872,-36857,-171881,-12.39633768,2.362199707,32753,128,-164879,-11.89134203,14902.34375,29568,128
-0.517039957,-7169,-170354,-12.28620795,1.125097409,15600,128,-146332,-10.55370218,14921.875,30208,128
-0.904982198,-12548,-174398,-12.57786782,1.025785926,14223,128,-163984,-11.82679317,14941.40625,30848,128
-2.47434884,-34308,-173410,-12.50661165,1.163754602,16136,128,-166547,-12.01164091,14960.9375,31488,128
-2.381456182,-33020,-173666,-12.52507478,1.119327679,15520,128,-165697,-11.95033752,14980.46875,32128,128
-2.488628923,-34506,-173730,-12.52969057,1.1424066,15840,128,-165751,-11.95423209,15000,32768,128
-1.172697684,-16260,-173392,-12.50531346,1.181496523,16382,128,-165448,-11.93237924,15019.53125,33408,128
-2.395736265,-33218,-173462,-12.51036197,1.180991671,16375,128,-165275,-11.9199022,15039.0625,34048,128
-2.476224002,-34334,-173877,-12.54029245,1.145796316,15887,128,-165574,-11.94146656,15058.59375,34688,128
-2.616284205,-36276,-174372,-12.57599265,1.143560546,15856,128,-165391,-11.9282683,15078.125,35328,128
-2.476224002,-34334,-173431,-12.5081262,1.163105507,16127,128,-164771,-11.8835529,15097.65625,35968,128
-1.144858735,-15874,-173684,-12.52637297,1.111827029,15416,128,-164384,-11.85564182,15117.1875,36608,128
-1.107788218,-15360,-172914,-12.47083932,0.017309191,240,128,-163256,-11.77428863,15136.71875,37248,128
-0.886302696,-12289,-172821,-12.46413201,0.073564061,1020,128,-162704,-11.73447749,15156.25,37888,128
-2.446221405,-33918,-172858,-12.46680051,0.147632974,2047,128,-162747,-11.73757872,15175.78125,38528,128
-0.720206585,-9986,-173353,-12.50250071,0.036277179,503,128,-163669,-11.80407486,15195.3125,39168,128
-2.5088951,-34787,-173231,-12.49370187,1.140315073,15811,128,-164450,-11.86040185,15214.84375,39808,128
-1.029896859,-14280,-173870,-12.5397876,1.126251355,15616,128,-165846,-11.96108365,15234.375,40448,128
-2.363570018,-32772,-174051,-12.55284161,1.179332874,16352,128,-166171,-11.98452318,15253.90625,41088,128
-1.172120711,-16252,-174247,-12.56697745,1.144714492,15872,128,-166376,-11.99930811,15273.4375,41728,128
-1.179981968,-16361,-173798,-12.53459484,1.181568644,16383,128,-166066,-11.9769504,15292.96875,42368,128
-1.117091908,-15489,-173821,-12.53625364,1.172409197,16256,128,-166232,-11.98892259,15312.5,43008,128
-1.164908548,-16152,-173813,-12.53567666,1.172553441,16258,128,-166024,-11.9739213,15332.03125,43648,128
-1.178828022,-16345,-173906,-12.54238397,1.172481319,16257,128,-166111,-11.98019588,15351.5625,44288,128
-1.179404995,-16353,-174364,-12.57541568,1.135699288,15747,128,-166558,-12.01243425,15371.09375,44928,128
-1.176448009,-16312,-174007,-12.54966826,1.143488424,15855,128,-166577,-12.01380456,15390.625,45568,128
-1.051316983,-14577,-174355,-12.57476659,1.123943463,15584,128,-166809,-12.03053677,15410.15625,46208,128
-2.363353653,-32769,-174458,-12.58219511,1.111754908,15415,128,-167129,-12.0536157,15429.6875,46848,128
-1.108004583,-15363,-174514,-12.58623392,1.16764917,16190,128,-167174,-12.05686117,15449.21875,47488,128
-2.550220794,-35360,-174522,-12.5868109,1.144570249,15870,128,-167310,-12.06666971,15468.75,48128,128
-1.126323477,-15617,-174402,-12.5781563,1.126684085,15622,128,-167642,-12.09061409,15488.28125,48768,128
-2.400207806,-33280,-174669,-12.59741278,1.1167313,15484,128,-167647,-12.0909747,15507.8125,49408,128
-1.17962136,-16356,-174307,-12.57130475,1.125962868,15612,128,-167700,-12.09479715,15527.34375,50048,128
-2.390110778,-33140,-174676,-12.59791763,1.108004583,15363,128,-167826,-12.10388447,15546.875,50688,128
-1.169019481,-16209,-174934,-12.61652501,1.172914049,16263,128,-168041,-12.11939062,15566.40625,51328,128
-2.636189775,-36552,-174694,-12.59921582,1.179332874,16352,128,-167997,-12.11621727,15585.9375,51968,128
-2.514592709,-34866,-174539,-12.58803696,1.170678278,16232,128,-167908,-12.10979844,15605.46875,52608,128
-2.423286727,-33600,-175164,-12.63311298,1.154234547,16004,128,-168188,-12.1299925,15625,53248,128
-2.516756358,-34896,-174589,-12.59164305,1.16368248,16135,128,-167992,-12.11585666,15644.53125,53888,128
-2.371936127,-32888,-174712,-12.60051401,1.179332874,16352,128,-167958,-12.11340453,15664.0625,54528,128
-2.512068452,-34831,-173945,-12.54519672,2.06787134,28672,128,-166381,-11.99966872,15683.59375,55168,128
-2.386144088,-33085,-174386,-12.57700236,1.149258155,15935,128,-166357,-11.9979378,15703.125,55808,128
-2.373450681,-32909,-174791,-12.60621162,1.144930857,15875,128,-167591,-12.08693589,15722.65625,56448,128
-2.493172585,-34569,-175417,-12.65135975,1.181496523,16382,128,-168214,-12.13186766,15742.1875,57088,128
-2.649460155,-36736,-175558,-12.6615289,1.144353884,15867,128,-168693,-12.16641392,15761.71875,57728,128
-2.381744669,-33024,-175203,-12.63592573,1.175871036,16304,128,-168676,-12.16518786,15781.25,58368,128
-2.382898615,-33040,-174366,-12.57555992,1.772461149,24576,128,-168631,-12.16194238,15800.78125,59008,128
-2.517982425,-34913,-171613,-12.37700908,0.036998396,513,128,-151216,-10.90594422,15820.3125,59648,128
-2.68732401,-37261,-176409,-12.72290441,0.070318588,975,128,-162929,-11.75070485,15839.84375,60288,128
-3.249872714,-45061,-175641,-12.667515,1.172625562,16259,128,-170579,-12.30243531,15859.375,60928,128
-2.617221787,-36289,-175366,-12.64768155,1.112331881,15423,128,-168903,-12.18155947,15878.90625,61568,128
-2.439514093,-33825,-175187,-12.63477178,1.148825425,15929,128,-168460,-12.14960958,15898.4375,62208,128
-2.363353653,-32769,-175849,-12.6825163,1.108365191,15368,128,-168702,-12.16706302,15917.96875,62848,128
-2.478748259,-34369,-175461,-12.65453311,1.181352279,16380,128,-168276,-12.1363392,15937.5,63488,128
-2.370493695,-32868,-175666,-12.66931804,1.172481319,16257,128,-168221,-12.13237251,15957.03125,64128,128
-2.397972035,-33249,-175078,-12.62691052,1.107788218,15360,128,-167821,-12.10352386,15976.5625,64768,128
-2.657537777,-36848,-175241,-12.63866635,1.140026586,15807,128,-167526,-12.08224798,15996.09375,65408,128
-2.630997018,-36480,-175220,-12.63715179,1.163177629,16128,128,-167168,-12.05642844,16015.625,512,128
-2.381744669,-33024,-174654,-12.59633095,1.144714492,15872,128,-165846,-11.96108365,16035.15625,1152,128
-2.539907401,-35217,-174485,-12.5841424,1.174428603,16284,128,-165475,-11.93432652,16054.6875,1792,128
-2.511202992,-34819,-174279,-12.56928534,1.181352279,16380,128,-165049,-11.90360271,16074.21875,2432,128
-1.108148826,-15365,-174113,-12.55731315,1.108293069,15367,128,-165219,-11.91586338,16093.75,3072,128
-2.547912901,-35328,-174452,-12.58176238,1.162528534,16119,128,-166249,-11.99014866,16113.28125,3712,128
-2.419464281,-33547,-174849,-12.61039467,1.168658873,16204,128,-167693,-12.09429229,16132.8125,4352,128
-2.658475358,-36861,-174462,-12.5824836,1.145291465,15880,128,-167847,-12.10539903,16152.34375,4992,128
-1.163249751,-16129,-174916,-12.61522682,1.163249751,16129,128,-168308,-12.1386471,16171.875,5632,128
-2.425378254,-33629,-174941,-12.61702986,1.181568644,16383,128,-168346,-12.14138772,16191.40625,6272,128
-1.166711589,-16177,-174807,-12.60736556,1.159138818,16072,128,-168396,-12.1449938,16210.9375,6912,128
-1.105768812,-15332,-174668,-12.59734066,1.146733898,15900,128,-168037,-12.11910213,16230.46875,7552,128
-2.372585222,-32897,-174814,-12.60787041,1.181568644,16383,128,-168334,-12.14052226,16250,8192,128
-1.043311482,-14466,-174587,-12.5914988,1.164043088,16140,128,-167942,-12.11225058,16269.53125,8832,128
-2.373450681,-32909,-175246,-12.63902696,1.144065397,15863,128,-168460,-12.14960958,16289.0625,9472,128
-1.070284971,-14840,-174939,-12.61688562,1.17738559,16325,128,-168387,-12.1443447,16308.59375,10112,128
-2.575102755,-35705,-174937,-12.61674137,1.181568644,16383,128,-168361,-12.14246954,16328.125,10752,128
-2.3725131,-32896,-175276,-12.64119061,1.181496523,16382,128,-168542,-12.15552356,16347.65625,11392,128
-2.515386047,-34877,-174781,-12.6054904,1.16368248,16135,128,-168377,-12.14362349,16367.1875,12032,128
-1.115793719,-15471,-175014,-12.62229474,1.10786034,15361,128,-168648,-12.16316845,16386.71875,12672,128
-2.629266099,-36456,-175132,-12.63080509,1.112331881,15423,128,-168788,-12.17326548,16406.25,13312,128
-1.124015584,-15585,-175305,-12.64328213,1.108942164,15376,128,-168750,-12.17052486,16425.78125,13952,128
-2.43713408,-33792,-175406,-12.65056642,1.108942164,15376,128,-168866,-12.17889096,16445.3125,14592,128
-2.372657343,-32898,-175034,-12.62373717,1.144786614,15873,128,-168817,-12.17535701,16464.84375,15232,128
-2.3981884,-33252,-175188,-12.6348439,1.121707692,15553,128,-168889,-12.18054976,16484.375,15872,128
-1.11716403,-15490,-175234,-12.6381615,1.114711894,15456,128,-168863,-12.1786746,16503.90625,16512,128
-2.622126057,-36357,-174990,-12.62056382,1.179332874,16352,128,-168872,-12.17932369,16523.4375,17152,128
-2.538753455,-35201,-175394,-12.64970096,1.112187637,15421,128,-168943,-12.18444433,16542.96875,17792,128
-1.177024982,-16320,-175166,-12.63325723,1.135482923,15744,128,-168664,-12.1643224,16562.5,18432,128
-2.54784078,-35327,-174919,-12.61544318,1.140892046,15819,128,-167306,-12.06638122,16582.03125,19072,128
-1.178178928,-16336,-174795,-12.6065001,1.124159828,15587,128,-167545,-12.08361829,16601.5625,19712,128
-2.399702954,-33273,-175407,-12.65063854,1.108293069,15367,128,-168990,-12.18783405,16621.09375,20352,128
-2.509904803,-34801,-175921,-12.68770906,1.113413705,15438,128,-169892,-12.25288776,16640.625,20992,128
-2.423214605,-33599,-175949,-12.68972846,1.111250056,15408,128,-169852,-12.25000289,16660.15625,21632,128
-1.177601955,-16328,-175624,-12.66628893,1.181568644,16383,128,-169998,-12.26053265,16679.6875,22272,128
-2.508606614,-34783,-172092,-12.41155534,2.068520435,28681,128,-161018,-11.61288042,16699.21875,22912,128
-2.363570018,-32772,-174907,-12.61457772,1.144714492,15872,128,-153659,-11.08213736,16718.75,23552,128
-2.473988232,-34303,-177421,-12.7958915,0.581877301,8068,128,-172388,-12.43290334,16738.28125,24192,128
-3.250666052,-45072,-175994,-12.69297393,0.586204599,8128,128,-171595,-12.37571089,16757.8125,24832,128
-2.677803955,-37129,-176473,-12.72752019,1.16764917,16190,128,-171210,-12.34794406,16777.34375,25472,128
-3.240352659,-44929,-176214,-12.70884069,1.172409197,16256,128,-170621,-12.30546442,16796.875,26112,128
-2.640805559,-36616,-175887,-12.68525692,1.153873939,15999,128,-170402,-12.28966979,16816.40625,26752,128
-2.888326989,-40048,-175902,-12.68633874,1.174572846,16286,128,-170154,-12.27178362,16835.9375,27392,128
-2.677082739,-37119,-176285,-12.71396133,1.173491022,16271,128,-170327,-12.28426066,16855.46875,28032,128
-3.093585145,-42894,-176010,-12.69412788,1.11009611,15392,128,-169944,-12.25663808,16875,28672,128
-2.653859574,-36797,-175929,-12.68828603,1.140098708,15808,128,-169539,-12.22742882,16894.53125,29312,128
-2.962828632,-41081,-175337,-12.64559002,1.166495224,16174,128,-168914,-12.1823528,16914.0625,29952,128
-2.363353653,-32769,-175029,-12.62337656,1.181568644,16383,128,-167893,-12.10871662,16933.59375,30592,128
-2.365733667,-32802,-174626,-12.59431155,1.172409197,16256,128,-167293,-12.06544364,16953.125,31232,128
-2.548057145,-35330,-174740,-12.60253341,1.172409197,16256,128,-167647,-12.0909747,16972.65625,31872,128
-2.372585222,-32897,-174741,-12.60260553,1.176448009,16312,128,-168021,-12.11794819,16992.1875,32512,128
-2.588373135,-35889,-175257,-12.63982029,1.149546641,15939,128,-169777,-12.24459377,17011.71875,33152,128
-2.437350444,-33795,-175718,-12.67306837,1.108797921,15374,128,-170559,-12.30099288,17031.25,33792,128
-2.624073341,-36384,-175189,-12.63491602,1.151566047,15967,128,-170401,-12.28959767,17050.78125,34432,128
-2.364363356,-32783,-175194,-12.63527663,1.181352279,16380,128,-170557,-12.30084864,17070.3125,35072,128
-3.011222245,-41752,-175639,-12.66737076,1.125674382,15608,128,-170792,-12.31779722,17089.84375,35712,128
-2.441749864,-33856,-175079,-12.62698264,1.181352279,16380,128,-170681,-12.30979172,17109.375,36352,128
-2.510986627,-34816,-175350,-12.64652761,1.164043088,16140,128,-170740,-12.3140469,17128.90625,36992,128
-2.381744669,-33024,-175329,-12.64501305,1.136781113,15762,128,-170762,-12.31563357,17148.4375,37632,128
-2.954390401,-40964,-175627,-12.6665053,1.18048682,16368,128,-171149,-12.34354464,17167.96875,38272,128
-2.62356849,-36377,-175642,-12.66758712,1.180991671,16375,128,-171274,-12.35255985,17187.5,38912,128
-2.419247916,-33544,-175454,-12.65402826,1.15394606,16000,128,-171194,-12.34679012,17207.03125,39552,128
-2.655229885,-36816,-175696,-12.67148169,1.145579951,15884,128,-171512,-12.36972479,17226.5625,40192,128
-2.640877681,-36617,-175954,-12.69008907,1.144930857,15875,128,-171849,-12.39402978,17246.09375,40832,128
-2.658619602,-36863,-175863,-12.683526,1.140098708,15808,128,-171771,-12.3884043,17265.625,41472,128
-2.36587791,-32804,-175972,-12.69138726,0.588728856,8163,128,-171989,-12.40412681,17285.15625,42112,128
-2.621837571,-36353,-175746,-12.67508777,1.17031767,16227,128,-171929,-12.39979951,17304.6875,42752,128
-2.510914506,-34815,-175983,-12.6921806,0.581660936,8065,128,-172155,-12.416099,17324.21875,43392,128
-2.653787452,-36796,-176091,-12.69996973,0.59067614,8190,128,-172569,-12.44595736,17343.75,44032,128
-2.508606614,-34783,-175775,-12.6771793,0.572285124,7935,128,-172306,-12.42698937,17363.28125,44672,128
-2.658763845,-36865,-175805,-12.67934295,0.518626633,7191,128,-172402,-12.43391304,17382.8125,45312,128
-2.658619602,-36863,-176053,-12.69722911,0.534565512,7412,128,-172924,-12.47156053,17402.34375,45952,128
-2.371359154,-32880,-176256,-12.7118698,0.55439896,7687,128,-172854,-12.46651202,17421.875,46592,128
-2.493244707,-34570,-175994,-12.69297393,0.555841393,7707,128,-172869,-12.46759384,17441.40625,47232,128
-2.481056152,-34401,-175518,-12.65864404,0.582165787,8072,128,-172101,-12.41220443,17460.9375,47872,128
-2.510914506,-34815,-175857,-12.68309327,1.180775306,16372,128,-171644,-12.37924485,17480.46875,48512,128
-2.654364425,-36804,-175683,-12.67054411,1.172625562,16259,128,-171385,-12.36056535,17500,49152,128
-2.623207882,-36372,-175828,-12.68100174,0.554471082,7688,128,-172766,-12.46016532,17519.53125,49792,128
-2.380085871,-33001,-176362,-12.71951469,0.576396057,7992,128,-173447,-12.50928015,17539.0625,50432,128
-2.658763845,-36865,-176889,-12.75752279,0.519780579,7207,128,-173894,-12.54151851,17558.59375,51072,128
-2.377273128,-32962,-176326,-12.71691832,0.534204904,7407,128,-173685,-12.52644509,17578.125,51712,128
-2.629915193,-36465,-173832,-12.53704697,1.217990067,16888,128,-170923,-12.32724516,17597.65625,52352,128
-0.941692107,-13057,-172854,-12.46651202,0.583824585,8095,128,-155747,-11.23272732,17617.1875,52992,128
-2.363353653,-32769,-177609,-12.80945037,1.157407899,16048,128,-168796,-12.17384245,17636.71875,53632,128
-2.428046754,-33666,-176682,-12.74259362,0.585916112,8124,128,-174940,-12.61695774,17656.25,54272,128
-2.951866144,-40929,-177057,-12.76963923,0.583247612,8087,128,-174185,-12.56250591,17675.78125,54912,128
-2.808127738,-38936,-176533,-12.73184749,0.583896707,8096,128,-173511,-12.51389593,17695.3125,55552,128
-2.672611198,-37057,-176517,-12.73069355,0.554903812,7694,128,-173364,-12.50329405,17714.84375,56192,128
-3.249584228,-45057,-176507,-12.72997233,0.544662541,7552,128,-173337,-12.50134677,17734.375,56832,128
-2.661071737,-36897,-176747,-12.74728152,0.581588814,8064,128,-173434,-12.50834257,17753.90625,57472,128
-3.544850176,-49151,-176576,-12.73494872,0.572357246,7936,128,-173074,-12.48237878,17773.4375,58112,128
-2.398549008,-33257,-176396,-12.72196683,0.534781877,7415,128,-172843,-12.46571868,17792.96875,58752,128
-2.811373211,-38981,-176205,-12.7081916,0.563125677,7808,128,-172356,-12.43059545,17812.5,59392,128
-2.958717699,-41024,-175674,-12.66989501,1.18048682,16368,128,-171260,-12.35155014,17832.03125,60032,128
-2.588373135,-35889,-175537,-12.66001435,1.179981968,16361,128,-171061,-12.33719794,17851.5625,60672,128
-2.619529679,-36321,-175649,-12.66809197,1.172914049,16263,128,-170657,-12.3080608,17871.09375,61312,128
-2.455380852,-34045,-175337,-12.64559002,1.145002978,15876,128,-170979,-12.33128397,17890.625,61952,128
-2.656600196,-36835,-176056,-12.69744548,0.59024341,8184,128,-172530,-12.44314461,17910.15625,62592,128
-2.920637479,-40496,-176236,-12.71042737,0.553605622,7676,128,-173576,-12.51858384,17929.6875,63232,128
-3.250738174,-45073,-176309,-12.71569225,0.516967835,7168,128,-173948,-12.54541308,17949.21875,63872,128
-3.267975243,-45312,-176312,-12.71590861,0.59067614,8190,128,-174090,-12.55565435,17968.75,64512,128
-3.069063791,-42554,-175850,-12.68258842,0.553894109,7680,128,-173566,-12.51786262,17988.28125,65152,128
-3.252396971,-45096,-176427,-12.7242026,0.516967835,7168,128,-174097,-12.5561592,18007.8125,256,128
-3.250161201,-45065,-176234,-12.71028313,0.557355947,7728,128,-173901,-12.54202337,18027.34375,896,128
-2.659340818,-36873,-175996,-12.69311818,0.554038352,7682,128,-174064,-12.55377919,18046.875,1536,128
-3.472223696,-48144,-176144,-12.70379218,0.573727557,7955,128,-174253,-12.56741018,18066.40625,2176,128
-2.400207806,-33280,-175957,-12.69030543,0.582742761,8080,128,-174352,-12.57455022,18085.9375,2816,128
-3.253983647,-45118,-176486,-12.72845778,0.526127282,7295,128,-174851,-12.61053891,18105.46875,3456,128
-2.924387804,-40548,-176227,-12.70977827,0.527209106,7310,128,-174966,-12.6188329,18125,4096,128
-3.430104665,-47560,-176582,-12.73538145,0.518121781,7184,128,-174958,-12.61825593,18144.53125,4736,128
-2.807406522,-38926,-176154,-12.7045134,0.588512491,8160,128,-175064,-12.62590082,18164.0625,5376,128
-2.658763845,-36865,-176095,-12.70025822,0.558509893,7744,128,-174778,-12.60527403,18183.59375,6016,128
-2.888976084,-40057,-176353,-12.7188656,0.589666437,8176,128,-175146,-12.63181479,18203.125,6656,128
-2.510986627,-34816,-176267,-12.71266314,0.561322637,7783,128,-175164,-12.63311298,18222.65625,7296,128
-3.266821297,-45296,-176622,-12.73826632,0.581660936,8065,128,-175325,-12.64472457,18242.1875,7936,128
-2.369051262,-32848,-176221,-12.70934554,0.556274123,7713,128,-175057,-12.62539597,18261.71875,8576,128
-3.472223696,-48144,-176192,-12.70725402,0.519131484,7198,128,-175076,-12.62676628,18281.25,9216,128
-2.402227211,-33308,-176796,-12.75081548,0.590748261,8191,128,-175105,-12.62885781,18300.78125,9856,128
-2.376263425,-32948,-176372,-12.72023591,0.554326839,7686,128,-175114,-12.6295069,18320.3125,10496,128
-2.921791425,-40512,-176684,-12.74273786,0.572934219,7944,128,-175270,-12.64075788,18339.84375,11136,128
-2.363353653,-32769,-175765,-12.67645808,0.588512491,8160,128,-173545,-12.51634807,18359.375,11776,128
-2.585993121,-35856,-175579,-12.66304346,0.5171842,7171,128,-173045,-12.48028725,18378.90625,12416,128
-1.145435708,-15882,-176298,-12.71489891,0.516967835,7168,128,-174064,-12.55377919,18398.4375,13056,128
-2.715162959,-37647,-176939,-12.76112887,0.582093666,8071,128,-175187,-12.63477178,18417.96875,13696,128
-2.3725131,-32896,-176455,-12.72622201,1.181857131,16387,128,-175437,-12.65280219,18437.5,14336,128
-2.368257924,-32837,-176454,-12.72614988,0.572213003,7934,128,-175366,-12.64768155,18457.03125,14976,128
-2.658691723,-36864,-176034,-12.6958588,1.217413094,16880,128,-175661,-12.66895743,18476.5625,15616,128
-2.377417371,-32964,-172851,-12.46629566,2.068376192,28679,128,-159036,-11.46993535,18496.09375,16256,128
-2.363353653,-32769,-177940,-12.83332262,1.162961264,16125,128,-168707,-12.16742363,18515.625,16896,128
-2.4832198,-34431,-176895,-12.75795552,0.143089311,1984,128,-177258,-12.78413567,18535.15625,17536,128
-1.181496523,-16382,-176306,-12.71547588,0.581588814,8064,128,-175180,-12.63426693,18554.6875,18176,128
-2.824643591,-39165,-176874,-12.75644097,0.581588814,8064,128,-175226,-12.63758452,18574.21875,18816,128
-2.436845593,-33788,-176972,-12.76350889,0.558437772,7743,128,-175041,-12.62424202,18593.75,19456,128
-2.926984182,-40584,-176782,-12.74980578,0.58670945,8135,128,-174881,-12.61270256,18613.28125,20096,128
-3.251315147,-45081,-176306,-12.71547588,1.183660171,16412,128,-174459,-12.58226723,18632.8125,20736,128
-2.363786383,-32775,-176455,-12.72622201,0.572357246,7936,128,-174590,-12.59171517,18652.34375,21376,128
-3.406593014,-47234,-175924,-12.68792542,0.590748261,8191,128,-173639,-12.5231275,18671.875,22016,128
-2.501899302,-34690,-176004,-12.69369515,0.570049354,7904,128,-173339,-12.50149101,18691.40625,22656,128
-3.091926347,-42871,-175975,-12.69160362,0.556129879,7711,128,-172969,-12.47480601,18710.9375,23296,128
-1.15171029,-15969,-175204,-12.63599785,1.774769041,24608,128,-171612,-12.37693696,18730.46875,23936,128
-2.444129878,-33889,-175341,-12.64587851,1.180703185,16371,128,-171581,-12.37470119,18750,24576,128
-2.371936127,-32888,-175352,-12.64667185,1.168298265,16199,128,-171707,-12.38378851,18769.53125,25216,128
-2.593854379,-35965,-175589,-12.66376468,0.553894109,7680,128,-173035,-12.47956604,18789.0625,25856,128
-3.084497819,-42768,-175996,-12.69311818,0.578054855,8015,128,-174616,-12.59359033,18808.59375,26496,128
-2.649027425,-36730,-175994,-12.69297393,0.554975933,7695,128,-174881,-12.61270256,18828.125,27136,128
-3.267975243,-45312,-176214,-12.70884069,0.561250515,7782,128,-175189,-12.63491602,18847.65625,27776,128
-2.510409654,-34808,-175605,-12.66491862,1.183876536,16415,128,-174821,-12.60837526,18867.1875,28416,128
-3.071804413,-42592,-175699,-12.67169805,0.590748261,8191,128,-175065,-12.62597294,18886.71875,29056,128
-2.509904803,-34801,-175969,-12.69117089,0.553894109,7680,128,-175072,-12.62647779,18906.25,29696,128
-3.249512106,-45056,-175998,-12.69326242,0.579280922,8032,128,-175040,-12.6241699,18925.78125,30336,128
-3.092647564,-42881,-176024,-12.69513758,0.588728856,8163,128,-175134,-12.63094933,18945.3125,30976,128
-2.644772249,-36671,-175971,-12.69131514,0.572213003,7934,128,-174946,-12.61739047,18964.84375,31616,128
-3.027954463,-41984,-176127,-12.70256611,0.524179998,7268,128,-175306,-12.64335425,18984.375,32256,128
-3.249512106,-45056,-176024,-12.69513758,0.574593016,7967,128,-175331,-12.64515729,19003.90625,32896,128
-3.407530595,-47247,-176283,-12.71381709,0.553894109,7680,128,-175367,-12.64775367,19023.4375,33536,128
-3.519535484,-48800,-176284,-12.71388921,0.588800977,8164,128,-175644,-12.66773136,19042.96875,34176,128
-3.092647564,-42881,-176049,-12.69694062,0.5712033,7920,128,-175372,-12.64811428,19062.5,34816,128
-3.249584228,-45057,-176171,-12.70573946,0.553894109,7680,128,-175602,-12.66470226,19082.03125,35456,128
-2.65854748,-36862,-176090,-12.69989761,0.581949423,8069,128,-175315,-12.64400335,19101.5625,36096,128
-2.919483533,-40480,-176057,-12.6975176,0.544662541,7552,128,-175545,-12.66059132,19121.09375,36736,128
-3.249584228,-45057,-176347,-12.71843287,0.583824585,8095,128,-175593,-12.66405316,19140.625,37376,128
-2.66078325,-36893,-176409,-12.72290441,0.59024341,8184,128,-175429,-12.65222521,19160.15625,38016,128
-3.247348457,-45026,-176100,-12.70061883,0.574088165,7960,128,-175304,-12.64321001,19179.6875,38656,128
-2.509976925,-34802,-176082,-12.69932064,0.562188096,7795,128,-174493,-12.58471937,19199.21875,39296,128
-3.082622657,-42742,-175814,-12.67999204,0.554326839,7686,128,-173476,-12.51137167,19218.75,39936,128
-2.433023147,-33735,-175887,-12.68525692,0.55793292,7736,128,-173518,-12.51440078,19238.28125,40576,128
-3.249584228,-45057,-176522,-12.73105415,0.583319734,8088,128,-175557,-12.66145678,19257.8125,41216,128
-2.363425775,-32770,-176674,-12.74201664,0.58050699,8049,128,-175759,-12.67602535,19277.34375,41856,128
-2.676577887,-37112,-176959,-12.76257131,0.295049583,4091,128,-176410,-12.72297653,19296.875,42496,128
-2.658763845,-36865,-176257,-12.71194192,0.590748261,8191,128,-175907,-12.68669935,19316.40625,43136,128
-2.405112076,-33348,-173644,-12.52348811,1.80484376,25025,128,-171583,-12.37484543,19335.9375,43776,128
-2.501755059,-34688,-177276,-12.78543386,1.144714492,15872,128,-165213,-11.91543065,19355.46875,44416,128
-2.50665933,-34756,-178055,-12.84161661,0.094551455,1311,128,-178893,-12.90205454,19375,45056,128
-2.728866068,-37837,-177037,-12.76819679,0.281274352,3900,128,-176528,-12.73148688,19394.53125,45696,128
-2.732544271,-37888,-176701,-12.74396393,0.562548704,7800,128,-176014,-12.69441637,19414.0625,46336,128
-2.418743064,-33537,-176882,-12.75701794,0.554471082,7688,128,-176126,-12.70249399,19433.59375,46976,128
-2.429128579,-33681,-176915,-12.75939795,0.29533807,4095,128,-176157,-12.70472976,19453.125,47616,128
-2.94948613,-40896,-176572,-12.73466024,0.572068759,7932,128,-175943,-12.68929573,19472.65625,48256,128
-2.435114674,-33764,-177092,-12.77216348,0.530670945,7358,128,-175948,-12.68965634,19492.1875,48896,128
-2.658763845,-36865,-176641,-12.73963663,0.587286423,8143,128,-175729,-12.6738617,19511.71875,49536,128
-2.661071737,-36897,-176481,-12.72809717,0.517833295,7180,128,-175092,-12.62792023,19531.25,50176,128
-2.381744669,-33024,-176368,-12.71994742,0.590748261,8191,128,-174592,-12.59185941,19550.78125,50816,128
-2.658619602,-36863,-176077,-12.69896003,0.539686148,7483,128,-173789,-12.53394574,19570.3125,51456,128
-2.657321412,-36845,-175497,-12.65712949,0.586348842,8130,128,-173174,-12.48959094,19589.84375,52096,128
-2.660999615,-36896,-176114,-12.70162853,0.518049659,7183,128,-173819,-12.53610939,19609.375,52736,128
-2.381744669,-33024,-176094,-12.7001861,0.548701352,7608,128,-174669,-12.59741278,19628.90625,53376,128
-2.723312703,-37760,-176720,-12.74533424,0.526127282,7295,128,-176011,-12.6942,19648.4375,54016,128
-2.436052255,-33777,-176820,-12.7525464,0.221557644,3072,128,-176807,-12.75160882,19667.96875,54656,128
-2.896476733,-40161,-176515,-12.7305493,0.260286958,3609,128,-176999,-12.76545617,19687.5,55296,128
-2.665759643,-36962,-177258,-12.78413567,0.279254947,3872,128,-177375,-12.7925739,19707.03125,55936,128
-3.254704863,-45128,-176711,-12.74468514,0.267427,3708,128,-177028,-12.7675477,19726.5625,56576,128
-2.366815492,-32817,-176674,-12.74201664,0.258772404,3588,128,-177116,-12.7738944,19746.09375,57216,128
-2.80776713,-38931,-176819,-12.75247428,0.292164718,4051,128,-177197,-12.77973625,19765.625,57856,128
-3.249656349,-45058,-176518,-12.73076567,0.266417297,3694,128,-177042,-12.7685574,19785.15625,58496,128
-2.917247762,-40449,-176717,-12.74511787,0.277451906,3847,128,-177393,-12.79387209,19804.6875,59136,128
-3.544778054,-49150,-177142,-12.77576956,0.222134617,3080,128,-177782,-12.82192741,19824.21875,59776,128
-2.695113146,-37369,-176937,-12.76098463,0.25458935,3530,128,-177846,-12.82654319,19843.75,60416,128
-3.50914997,-48656,-176686,-12.7428821,0.267787608,3713,128,-177489,-12.80079577,19863.28125,61056,128
-2.838707309,-39360,-176957,-12.76242706,0.240525632,3335,128,-177915,-12.83151958,19882.8125,61696,128
-3.528839174,-48929,-176938,-12.76105675,0.147560852,2046,128,-178186,-12.85106455,19902.34375,62336,128
-3.471358236,-48132,-176829,-12.75319549,0.239515929,3321,128,-177826,-12.82510076,19921.875,62976,128
-3.258743675,-45184,-177012,-12.76639375,0.138473527,1920,128,-178296,-12.85899792,19941.40625,63616,128
-3.284707461,-45544,-177127,-12.77468774,0.138401406,1919,128,-178339,-12.86209915,19960.9375,64256,128
-3.466526087,-48065,-176849,-12.75463793,0.143594163,1991,128,-178297,-12.85907005,19980.46875,64896,128
-3.250089079,-45064,-176896,-12.75802764,0.145902055,2023,128,-178555,-12.87767743,20000,0,128
-3.387985633,-46976,-177249,-12.78348658,0.092027198,1276,128,-178948,-12.90602123,20019.53125,640,128
-3.461910303,-48001,-177042,-12.7685574,0.147128123,2040,128,-178576,-12.87919198,20039.0625,1280,128
-3.272591027,-45376,-176504,-12.72975597,0.294833218,4088,128,-177501,-12.80166123,20058.59375,1920,128
-3.263647945,-45252,-176544,-12.73264083,0.237929253,3299,128,-176921,-12.75983068,20078.125,2560,128
-2.815628387,-39040,-176336,-12.71763953,0.258483918,3584,128,-176639,-12.73949239,20097.65625,3200,128
-3.258166702,-45176,-176885,-12.75723431,0.147416609,2044,128,-178259,-12.85632942,20117.1875,3840,128
-2.894385206,-40132,-177296,-12.7868763,0.074429521,1032,128,-178823,-12.89700602,20136.71875,4480,128
-3.25852731,-45181,-177261,-12.78435204,0.034618382,480,128,-179295,-12.93104743,20156.25,5120,128
-2.907367099,-40312,-177528,-12.80360851,0.004038811,56,128,-179408,-12.93919718,20175.78125,5760,128
-3.083343873,-42752,-173775,-12.53293604,1.294150507,17944,128,-174480,-12.58378179,20195.3125,6400,128
-2.649532276,-36737,-175105,-12.62885781,0.288414393,3999,128,-160097,-11.5464564,20214.84375,7040,128
-2.859622581,-39650,-178922,-12.90414606,0.036854152,511,128,-177761,-12.82041285,20234.375,7680,128
-3.527540985,-48911,-177419,-12.79574726,8.65E-04,12,128,-180211,-12.99711084,20253.90625,8320,128
302.4271211,4193293,-177536,-12.80418549,1.116442813,15480,128,-179871,-12.97258949,20273.4375,8960,0
-2.921935668,-40514,-177384,-12.793223,0.076016197,1054,128,-179229,-12.9262874,20312.5,10240,128
-3.392168688,-47034,-177319,-12.78853509,0.075871953,1052,128,-178962,-12.90703093,20332.03125,10880,128
-2.887317286,-40034,-177527,-12.80353639,0.074285278,1030,128,-178832,-12.89765512,20351.5625,11520,128
-3.471141871,-48129,-177541,-12.80454609,0.105009091,1456,128,-178750,-12.89174114,20371.09375,12160,128
-2.732616393,-37889,-177167,-12.77757261,0.147632974,2047,128,-177974,-12.83577476,20390.625,12800,128
-2.671601495,-37043,-177263,-12.78449628,0.221557644,3072,128,-177734,-12.81846557,20410.15625,13440,128
-2.409223009,-33405,-176502,-12.72961172,0.276947054,3840,128,-176355,-12.71900984,20429.6875,14080,128
-2.694752538,-37364,-176477,-12.72780868,0.280408893,3888,128,-175964,-12.69081029,20449.21875,14720,128
-2.691290699,-37316,-176556,-12.73350629,0.52381939,7263,128,-175924,-12.68792542,20468.75,15360,128
-2.37604706,-32945,-176807,-12.75160882,0.517112078,7170,128,-176459,-12.72651049,20488.28125,16000,128
-2.821398118,-39120,-177267,-12.78478477,0.220980671,3064,128,-178079,-12.84334753,20507.8125,16640,128
-2.695329511,-37372,-177199,-12.7798805,0.129169837,1791,128,-178673,-12.88618778,20527.34375,17280,128
-2.887245165,-40033,-177347,-12.7905545,0.073852548,1024,128,-179160,-12.92131101,20546.875,17920,128
-2.686170064,-37245,-177029,-12.76761982,0.083084116,1152,128,-179146,-12.92030131,20566.40625,18560,128
-3.256796391,-45157,-177164,-12.77735624,0.00887096,123,128,-179314,-12.93241774,20585.9375,19200,128
-2.670808157,-37032,-176830,-12.75326762,0.092315685,1280,128,-178781,-12.89397691,20605.46875,19840,128
-2.921719303,-40511,-177094,-12.77230773,0.073852548,1024,128,-179237,-12.92686438,20625,20480,128
-2.695545875,-37375,-177016,-12.76668224,0.081858049,1135,128,-178837,-12.89801573,20644.53125,21120,128
-2.920709601,-40497,-176656,-12.74071845,0.12931408,1793,128,-178649,-12.88445686,20664.0625,21760,128
-2.693670713,-37349,-177111,-12.77353379,0.03454626,479,128,-179149,-12.92051767,20683.59375,22400,128
-2.952370996,-40936,-177247,-12.78334234,0.036854152,511,128,-179321,-12.93292259,20703.125,23040,128
-3.47106975,-48128,-176990,-12.76480708,0.071905264,997,128,-179041,-12.91272854,20722.65625,23680,128
-2.935783021,-40706,-176872,-12.75629672,0.055894262,775,128,-179273,-12.92946076,20742.1875,24320,128
-3.524511877,-48869,-177375,-12.7925739,0.020626786,286,128,-179432,-12.94092809,20761.71875,24960,128
-2.732544271,-37888,-177177,-12.77829382,0.02791107,387,128,-179384,-12.93746626,20781.25,25600,128
-3.544850176,-49151,-177059,-12.76978347,0.032743219,454,128,-179435,-12.94114446,20800.78125,26240,128
-2.728216973,-37828,-177010,-12.76624951,0.017886164,248,128,-179274,-12.92953288,20820.3125,26880,128
-3.540378635,-49089,-177102,-12.7728847,0.036782031,510,128,-179453,-12.94244265,20839.84375,27520,128
-2.732472149,-37887,-177087,-12.77180288,0.009159447,127,128,-179461,-12.94301962,20859.375,28160,128
-3.544633811,-49148,-177170,-12.77778897,0.020626786,286,128,-179582,-12.95174634,20878.90625,28800,128
-3.249584228,-45057,-176845,-12.75434944,0.071544656,992,128,-179410,-12.93934142,20898.4375,29440,128
-3.462775762,-48013,-176774,-12.74922881,0.070102223,972,128,-178961,-12.90695881,20917.96875,30080,128
-3.521338525,-48825,-176318,-12.71634134,0.138112919,1915,128,-177947,-12.83382748,20937.5,30720,128
-3.42015188,-47422,-176382,-12.72095713,0.278028879,3855,128,-177384,-12.793223,20957.03125,31360,128
-3.508933605,-48653,-176902,-12.75846037,0.25682512,3561,128,-178469,-12.87147497,20976.5625,32000,128
-3.508068145,-48641,-177286,-12.78615508,0.038008098,527,128,-179681,-12.95888638,20996.09375,32640,128
-3.544778054,-49150,-177362,-12.79163632,0.03584445,497,128,-180031,-12.98412895,21015.625,33280,128
-3.543335622,-49130,-177197,-12.77973625,0.036493544,506,128,-179968,-12.97958529,21035.15625,33920,128
-3.522203985,-48837,-175693,-12.67126532,1.183948658,16416,128,-179126,-12.91885888,21054.6875,34560,128
-2.381528304,-33021,-173076,-12.48252302,1.240564137,17201,128,-164091,-11.83451019,21074.21875,35200,128
-3.416257312,-47368,-178269,-12.85705064,0.555048055,7696,128,-180328,-13.00554907,21093.75,35840,128
-3.535762851,-49025,-177987,-12.83671234,1.14464237,15871,128,-182459,-13.15924026,21113.28125,36480,128
-3.378826187,-46849,-177216,-12.78110657,0.004543663,63,128,-180055,-12.98585987,21132.8125,37120,128
-3.471141871,-48129,-177522,-12.80317578,0.014352204,199,128,-180153,-12.99292779,21152.34375,37760,128
-3.325456181,-46109,-177182,-12.77865443,0.035772328,496,128,-179887,-12.97374344,21171.875,38400,128
-3.538142864,-49058,-177529,-12.80368063,0.004543663,63,128,-180076,-12.98737442,21191.40625,39040,128
-3.249584228,-45057,-177564,-12.80620489,0.013919474,193,128,-179869,-12.97244525,21210.9375,39680,128
-3.542686527,-49121,-177357,-12.79127571,0.018391015,255,128,-179459,-12.94287538,21230.46875,40320,128
-2.949630374,-40898,-176795,-12.75074336,0.110778822,1536,128,-178851,-12.89902543,21250,40960,128
-3.473161277,-48157,-176737,-12.7465603,0.143305676,1987,128,-178341,-12.8622434,21269.53125,41600,128
-2.843323093,-39424,-176649,-12.7402136,0.239804416,3325,128,-177714,-12.81702314,21289.0625,42240,128
-3.406304527,-47230,-176510,-12.7301887,0.229851631,3187,128,-177049,-12.76906225,21308.59375,42880,128
-2.695617997,-37376,-176258,-12.71201404,0.258195431,3580,128,-176586,-12.73566994,21328.125,43520,128
-3.257589729,-45168,-176458,-12.72643837,0.221557644,3072,128,-177072,-12.77072105,21347.65625,44160,128
-2.723889676,-37768,-176827,-12.75305125,0.235909848,3271,128,-178423,-12.86815737,21367.1875,44800,128
-2.658763845,-36865,-177119,-12.77411077,0.074357399,1031,128,-179406,-12.93905293,21386.71875,45440,128
-2.948981279,-40889,-177657,-12.8129122,0.056110627,778,128,-179942,-12.97771013,21406.25,46080,128
-2.880321488,-39937,-177311,-12.78795812,0.0230068,319,128,-180100,-12.98910534,21425.78125,46720,128
-3.28643838,-45568,-177149,-12.77627442,0.031805638,441,128,-179791,-12.96681976,21445.3125,47360,128
-2.83877943,-39361,-177149,-12.77627442,0.022934678,318,128,-179625,-12.95484757,21464.84375,48000,128
-3.249584228,-45057,-176795,-12.75074336,0.032815341,455,128,-179451,-12.94229841,21484.375,48640,128
-2.788005804,-38657,-177254,-12.78384719,0,0,128,-179687,-12.95931911,21503.90625,49280,128
-2.843323093,-39424,-176732,-12.7461997,0.055389411,768,128,-179483,-12.9446063,21523.4375,49920,128
-2.65898021,-36868,-177318,-12.78846297,4.33E-04,6,128,-179735,-12.96278095,21542.96875,50560,128
-2.945014589,-40834,-177320,-12.78860721,0.025603178,355,128,-179769,-12.96523308,21562.5,51200,128
-2.74177584,-38016,-177036,-12.76812467,0.027694705,384,128,-179591,-12.95239543,21582.03125,51840,128
-2.871378406,-39813,-177251,-12.78363082,0.032815341,455,128,-179788,-12.96660339,21601.5625,52480,128
-2.681410036,-37179,-177459,-12.79863212,0.002380014,33,128,-180063,-12.98643684,21621.09375,53120,128
-2.947466725,-40868,-177098,-12.77259621,0,0,128,-180076,-12.98737442,21640.625,53760,128
-2.749348611,-38121,-177322,-12.78875146,0.010313393,143,128,-180069,-12.98686957,21660.15625,54400,128
-2.919483533,-40480,-177117,-12.77396652,1.164043088,16140,128,-180124,-12.99083626,21679.6875,55040,128
-3.431835584,-47584,-176649,-12.7402136,5.05E-04,7,128,-179757,-12.96436762,21699.21875,55680,128
-2.919988384,-40487,-177612,-12.80966673,1.146950262,15903,128,-180444,-13.01391518,21718.75,56320,128
-3.480229197,-48255,-177346,-12.79048238,1.165341278,16158,128,-180539,-13.02076674,21738.28125,56960,128
-2.728000608,-37825,-177086,-12.77173075,7.21E-05,1,128,-179944,-12.97785437,21757.8125,57600,128
-3.400751162,-47153,-176988,-12.76466283,0.035772328,496,128,-179459,-12.94287538,21777.34375,58240,128
-2.677659712,-37127,-176415,-12.72333714,0.143522041,1990,128,-178484,-12.87255679,21796.875,58880,128
-3.424695542,-47485,-176929,-12.76040766,0.103783024,1439,128,-179049,-12.91330551,21816.40625,59520,128
-3.251243025,-45080,-177067,-12.77036044,8.65E-04,12,128,-180334,-13.0059818,21835.9375,60160,128
-3.361372752,-46607,-177356,-12.79120359,1.111827029,15416,128,-181139,-13.06403971,21855.46875,60800,128
-3.31788341,-46004,-177314,-12.78817448,1.107788218,15360,128,-181517,-13.09130169,21875,61440,128
-3.488451062,-48369,-176822,-12.75269064,1.151638168,15968,128,-181730,-13.1066636,21894.53125,62080,128
-3.230616239,-44794,-173361,-12.50307769,1.19952693,16632,128,-173771,-12.53264755,21914.0625,62720,128
-2.696771943,-37392,-176720,-12.74533424,1.181496523,16382,128,-164934,-11.89530872,21933.59375,63360,128
-3.541171973,-49100,-178007,-12.83815477,1.15394606,16000,128,-184515,-13.30752233,21953.125,64000,128
-3.507563294,-48634,-177642,-12.81183038,1.179260752,16351,128,-182569,-13.16717364,21972.65625,64640,128
-3.506914199,-48625,-177527,-12.80353639,1.145291465,15880,128,-181984,-13.12498249,21992.1875,65280,128
-3.323292532,-46079,-176957,-12.76242706,1.179332874,16352,128,-181447,-13.08625318,22011.71875,384,128
-3.392673539,-47041,-177602,-12.80894551,1.109519137,15384,128,-182005,-13.12649705,22031.25,1024,128
-3.488955914,-48376,-177179,-12.77843806,1.181424401,16381,128,-181583,-13.09606172,22050.78125,1664,128
-3.36259882,-46624,-177376,-12.79264603,1.181568644,16383,128,-181637,-13.09995629,22070.3125,2304,128
-3.535979216,-49028,-177095,-12.77237985,1.107788218,15360,128,-181331,-13.07788707,22089.84375,2944,128
-3.50914997,-48656,-177199,-12.7798805,1.128487125,15647,128,-180967,-13.05163479,22109.375,3584,128
-3.252108485,-45092,-176654,-12.74057421,1.181352279,16380,128,-180205,-12.99667811,22128.90625,4224,128
-3.285356556,-45553,-176594,-12.73624691,0.031517152,437,128,-179419,-12.93999051,22148.4375,4864,128
-3.247492701,-45028,-176421,-12.72376987,0.078035602,1082,128,-179184,-12.92304193,22167.96875,5504,128
-2.879744515,-39929,-176385,-12.72117349,0.02791107,387,128,-179214,-12.92520558,22187.5,6144,128
-3.256507904,-45153,-176660,-12.74100694,0.014352204,199,128,-180736,-13.0349747,22207.03125,6784,128
-3.286510502,-45569,-176975,-12.76372525,1.107788218,15360,128,-181447,-13.08625318,22226.5625,7424,128
-3.249656349,-45058,-177156,-12.77677927,1.03393567,14336,128,-182267,-13.14539291,22246.09375,8064,128
-3.323653141,-46084,-177061,-12.76992771,1.181280158,16379,128,-182566,-13.16695728,22265.625,8704,128
-3.50914997,-48656,-177307,-12.78766963,1.172914049,16263,128,-182635,-13.17193367,22285.15625,9344,128
-3.334399263,-46233,-177128,-12.77475986,1.158561845,16064,128,-182699,-13.17654946,22304.6875,9984,128
-2.880321488,-39937,-176996,-12.76523981,1.164331575,16144,128,-182494,-13.16176452,22324.21875,10624,128
-3.405366946,-47217,-176701,-12.74396393,1.164259453,16143,128,-182490,-13.16147604,22343.75,11264,128
-2.93794667,-40736,-177350,-12.79077086,1.18048682,16368,128,-183116,-13.20662417,22363.28125,11904,128
-3.251603633,-45085,-177241,-12.78290961,1.109951867,15390,128,-183042,-13.20128717,22382.8125,12544,128
-2.880321488,-39937,-177369,-12.79214117,1.109807624,15388,128,-183246,-13.21599999,22402.34375,13184,128
-3.526675526,-48899,-177427,-12.79632423,1.108870042,15375,128,-183233,-13.21506241,22421.875,13824,128
-2.951938266,-40930,-177316,-12.78831873,1.177097103,16321,128,-183466,-13.23186674,22441.40625,14464,128
-3.397000837,-47101,-177509,-12.8022382,1.108437313,15369,128,-183285,-13.21881273,22460.9375,15104,128
-2.938018791,-40737,-177574,-12.80692611,1.145796316,15887,128,-183685,-13.24766138,22480.46875,15744,128
-2.949558252,-40897,-177311,-12.78795812,1.181424401,16381,128,-183369,-13.22487095,22500,16384,128
-3.28643838,-45568,-177507,-12.80209396,1.181063793,16376,128,-183540,-13.23720375,22519.53125,17024,128
-2.911550154,-40370,-177298,-12.78702054,1.180703185,16371,128,-183611,-13.24232438,22539.0625,17664,128
-2.939533346,-40758,-177974,-12.83577476,1.119039192,15516,128,-183912,-13.26403299,22558.59375,18304,128
-2.948981279,-40889,-177297,-12.78694842,1.181424401,16381,128,-183627,-13.24347833,22578.125,18944,128
-3.249656349,-45058,-177314,-12.78817448,1.177024982,16320,128,-183612,-13.2423965,22597.65625,19584,128
-2.938884251,-40749,-177702,-12.81615768,1.128487125,15647,128,-183981,-13.26900938,22617.1875,20224,128
-3.527036134,-48904,-177425,-12.79617999,1.175871036,16304,128,-183859,-13.26021055,22636.71875,20864,128
-3.251819998,-45088,-177321,-12.78867934,1.164331575,16144,128,-183137,-13.20813873,22656.25,21504,128
-3.469987925,-48113,-176886,-12.75730643,1.153585452,15995,128,-181975,-13.1243334,22675.78125,22144,128
-2.806396819,-38912,-177331,-12.78940055,1.13577141,15748,128,-181980,-13.124694,22695.3125,22784,128
-3.393755364,-47056,-177864,-12.82784138,1.18048682,16368,128,-183306,-13.22032728,22714.84375,23424,128
-3.394981431,-47073,-177889,-12.82964442,1.126179233,15615,128,-184067,-13.27521184,22734.375,24064,128
