Device,Device,Device,Device,Device,Device,Device,Device,Device,Device,Device,Device
ECG Vx-RL,ECG Vx-RL,ECG LA-RA,ECG LA-RA,ExG2 CH1,ExG2 CH1,EXG1 Status,ECG LL-RA,ECG LL-RA,Timestamp,Timestamp,EXG2 Status
CAL,RAW,RAW,CAL,CAL,RAW,RAW,CAL,RAW,RAW,CAL,RAW
mV,No Units,No Units,mV,mV,No Units,No Units,mV,No Units,No Units,mSecs,No Units
-9.420310786,-130617,-253216,-18.26235035,0.360031171,4992,128,-7.77197096,-107762,3200,6097.65625,128
-8.857762081,-122817,-252591,-18.21727433,0.588873099,8165,128,-7.746007174,-107402,3840,6117.1875,128
-9.452621275,-131065,-251976,-18.17291953,0.589738558,8177,128,-7.733818619,-107233,4480,6136.71875,128
-9.452765519,-131067,-251541,-18.14154662,0.589738558,8177,128,-7.72148582,-107062,5120,6156.25,128
-8.825740078,-122373,-251927,-18.16938557,0.558437772,7743,128,-7.729924051,-107179,5760,6175.78125,128
-9.453126127,-131072,-251634,-18.14825394,0.590387653,8186,128,-7.727616158,-107147,6400,6195.3125,128
-9.44396668,-130945,-251876,-18.16570737,0.574160287,7961,128,-7.73785743,-107289,7040,6214.84375,128
-8.419190457,-116736,-251335,-18.12668957,0.580795477,8053,128,-7.720908847,-107054,7680,6234.375,128
-8.272639307,-114704,-251410,-18.13209869,0.554975933,7695,128,-7.712831225,-106942,8320,6253.90625,128
-9.416271975,-130561,-251319,-18.12553562,0.555480785,7702,128,-7.705402697,-106839,8960,6273.4375,128
-8.854228122,-122768,-251040,-18.10541369,0.588296126,8157,128,-7.67013522,-106350,9600,6292.96875,128
-4.726490942,-65535,-251051,-18.10620703,0.917242875,12718,128,-7.649652678,-106066,10240,6312.5,128
-4.439446859,-61555,-250676,-18.07916142,0.932244174,12926,128,-7.620154932,-105657,10880,6332.03125,128
-4.431224994,-61441,-250527,-18.06841529,0.957847352,13281,128,-7.633497433,-105842,11520,6351.5625,128
-3.563241191,-49406,-250719,-18.08226265,0.888754831,12323,128,-7.673452815,-106396,12160,6371.09375,128
-3.61675544,-50148,-251008,-18.1031058,0.59067614,8190,128,-7.694079601,-106682,12800,6390.625,128
-4.65379234,-64527,-251023,-18.10418762,0.5712033,7920,128,-7.704248751,-106823,13440,6410.15625,128
-4.689708911,-65025,-251342,-18.12719442,0.590748261,8191,128,-7.723000374,-107083,14080,6429.6875,128
-4.578353116,-63481,-250797,-18.08788813,0.517472686,7175,128,-7.706268156,-106851,14720,6449.21875,128
-3.803550458,-52738,-246871,-17.80473862,1.772461149,24576,128,-7.488028108,-103825,15360,6468.75,128
-4.113457097,-57035,-251099,-18.10966886,0.609427763,8450,128,-7.58820505,-105214,16000,6488.28125,128
-4.026766899,-55833,-251652,-18.14955212,0.590748261,8191,128,-7.687083803,-106585,16640,6507.8125,128
-3.970728394,-55056,-251215,-18.11803497,0.887240277,12302,128,-7.705619062,-106842,17280,6527.34375,128
-3.86694537,-53617,-250951,-18.09899486,0.554975933,7695,128,-7.669990977,-106348,17920,6546.875,128
-4.080569635,-56579,-250989,-18.10173548,0.900077927,12480,128,-7.682900749,-106527,18560,6566.40625,128
-3.91389655,-54268,-250707,-18.08139719,0.906568874,12570,128,-7.652753908,-106109,19200,6585.9375,128
-4.107975853,-56959,-250594,-18.07324744,0.920776835,12767,128,-7.664437612,-106271,19840,6605.46875,128
-3.992653369,-55360,-250557,-18.07057894,1.043022995,14462,128,-7.647921759,-106042,20480,6625,128
-3.692338907,-51196,-249594,-18.00112581,1.040859346,14432,128,-7.61034639,-105521,21120,6644.53125,128
-3.581848572,-49664,-249060,-17.96261286,1.112331881,15423,128,-7.588132928,-105213,21760,6664.0625,128
-3.748954385,-51981,-248267,-17.90542041,1.162312169,16116,128,-7.525603476,-104346,22400,6683.59375,128
-3.591368627,-49796,-248552,-17.92597508,1.033863549,14335,128,-7.537070815,-104505,23040,6703.125,128
-3.803766823,-52741,-249742,-18.01179981,1.029319886,14272,128,-7.579189846,-105089,23680,6722.65625,128
-3.988686679,-55305,-250731,-18.0831281,0.964626785,13375,128,-7.647921759,-106042,24320,6742.1875,128
-4.117351665,-57089,-251551,-18.14226784,0.589017342,8167,128,-7.689463817,-106618,24960,6761.71875,128
-4.502769649,-62433,-251971,-18.17255892,0.589666437,8176,128,-7.713119711,-106946,25600,6781.25,128
-4.062106498,-56323,-251923,-18.16909709,0.588728856,8163,128,-7.721413698,-107061,26240,6800.78125,128
-4.597321105,-63744,-252163,-18.18640628,0.586781572,8136,128,-7.732231943,-107211,26880,6820.3125,128
-4.135526316,-57341,-251897,-18.16722192,0.53535885,7423,128,-7.709585751,-106897,27520,6839.84375,128
-4.578785846,-63487,-251816,-18.16138007,0.576035449,7987,128,-7.691915952,-106652,28160,6859.375,128
-4.099970353,-56848,-251656,-18.14984061,1.034079913,14338,128,-7.684703789,-106552,28800,6878.90625,128
-4.431441358,-61444,-251482,-18.13729145,0.588584612,8161,128,-7.706051791,-106848,29440,6898.4375,128
-4.477959809,-62089,-251591,-18.14515271,0.590604018,8189,128,-7.694512331,-106688,30080,6917.96875,128
-4.459568794,-61834,-251658,-18.14998485,0.590315532,8185,128,-7.682323776,-106519,30720,6937.5,128
-4.690790736,-65040,-251557,-18.14270057,0.579208801,8031,128,-7.697469318,-106729,31360,6957.03125,128
-4.125429288,-57201,-251512,-18.1394551,0.58981068,8178,128,-7.706773008,-106858,32000,6976.5625,128
-4.567246385,-63327,-251549,-18.1421236,0.565361448,7839,128,-7.709369386,-106894,32640,6996.09375,128
-4.449543887,-61695,-251461,-18.13577689,0.556202001,7712,128,-7.706917251,-106860,33280,7015.625,128
-4.445288711,-61636,-251408,-18.13195445,0.5712033,7920,128,-7.706340278,-106852,33920,7035.15625,128
-4.133723275,-57316,-251376,-18.12964656,0.574593016,7967,128,-7.729202834,-107169,34560,7054.6875,128
-4.44745236,-61666,-251357,-18.12827624,0.587358545,8144,128,-7.696387493,-106714,35200,7074.21875,128
-4.521521273,-62693,-251407,-18.13188233,1.034729008,14347,128,-7.676409802,-106437,35840,7093.75,128
-4.126655355,-57218,-251018,-18.10382701,1.041941171,14447,128,-7.635733203,-105873,36480,7113.28125,128
-4.509116353,-62521,-250621,-18.07519473,1.034007792,14337,128,-7.610274268,-105520,37120,7132.8125,128
-4.441610508,-61585,-250747,-18.08428205,1.060981281,14711,128,-7.627511338,-105759,37760,7152.34375,128
-4.431224994,-61441,-251214,-18.11796285,0.589666437,8176,128,-7.693430506,-106673,38400,7171.875,128
-4.098888528,-56833,-251424,-18.13310839,0.577910611,8013,128,-7.698334777,-106741,39040,7191.40625,128
-4.670740923,-64762,-251327,-18.1261126,0.584401558,8103,128,-7.694584452,-106689,39680,7210.9375,128
-4.541931694,-62976,-251376,-18.12964656,0.564207502,7823,128,-7.71925005,-107031,40320,7230.46875,128
-4.113817705,-57040,-251084,-18.10858704,0.572357246,7936,128,-7.696820223,-106720,40960,7250,128
-3.77571151,-52352,-246774,-17.79774282,1.791140651,24835,128,-7.41150706,-102764,41600,7269.53125,128
-4.694252574,-65088,-252672,-18.22311619,0.733332721,10168,128,-7.594551753,-105302,42240,7289.0625,128
-4.579002211,-63490,-251442,-18.13440658,0.581805179,8067,128,-7.694440209,-106687,42880,7308.59375,128
-4.467862781,-61949,-251131,-18.11197676,1.03393567,14336,128,-7.683189235,-106531,43520,7328.125,128
-4.440961413,-61576,-250876,-18.09358574,1.070284971,14840,128,-7.661120017,-106225,44160,7347.65625,128
-4.431297115,-61442,-250836,-18.09070088,1.042301779,14452,128,-7.6523933,-106104,44800,7367.1875,128
-4.134660856,-57329,-250444,-18.0624292,1.052110321,14588,128,-7.647921759,-106042,45440,7386.71875,128
-4.435768656,-61504,-250336,-18.05464006,1.070789822,14847,128,-7.648715097,-106053,46080,7406.25,128
-4.062034376,-56322,-249862,-18.02045441,1.069563755,14830,128,-7.608399106,-105494,46720,7425.78125,128
-3.806868053,-52784,-249340,-17.98280692,1.143632667,15857,128,-7.579406211,-105092,47360,7445.3125,128
-3.75537321,-52070,-248686,-17.93563937,1.172914049,16263,128,-7.539522951,-104539,48000,7464.84375,128
-3.83946703,-53236,-248057,-17.89027487,1.03393567,14336,128,-7.50937611,-104121,48640,7484.375,128
-3.616611197,-50146,-248117,-17.89460217,1.070789822,14847,128,-7.483772932,-103766,49280,7503.90625,128
-3.775134537,-52344,-249509,-17.99499547,1.179404995,16353,128,-7.548682397,-104666,49920,7523.4375,128
-3.989119409,-55311,-250422,-18.06084252,1.016626479,14096,128,-7.584526847,-105163,50560,7542.96875,128
-4.075737485,-56512,-251063,-18.10707249,1.041652684,14443,128,-7.629170135,-105782,51200,7562.5,128
-4.468295511,-61955,-251523,-18.14024843,1.042013293,14448,128,-7.683621965,-106537,51840,7582.03125,128
-4.135526316,-57341,-251470,-18.13642599,1.036892657,14377,128,-7.650013286,-106071,52480,7601.5625,128
-4.496927797,-62352,-251568,-18.14349391,1.038479333,14399,128,-7.672731599,-106386,53120,7621.09375,128
-4.131703869,-57288,-251542,-18.14161875,1.034224157,14340,128,-7.655855138,-106152,53760,7640.625,128
-4.577992508,-63476,-251439,-18.13419022,1.068554052,14816,128,-7.638545947,-105912,54400,7660.15625,128
-4.433460764,-61472,-251600,-18.1458018,1.066318281,14785,128,-7.655133922,-106142,55040,7679.6875,128
-4.135742681,-57344,-251284,-18.12301137,1.088171135,15088,128,-7.625924662,-105737,55680,7699.21875,128
-4.131199018,-57281,-251576,-18.14407088,1.050451523,14565,128,-7.625275567,-105728,56320,7718.75,128
-4.105812205,-56929,-251457,-18.13548841,1.042013293,14448,128,-7.637896852,-105903,56960,7738.28125,128
-4.468079146,-61952,-251703,-18.15323033,1.042157536,14450,128,-7.638834433,-105916,57600,7757.8125,128
-4.127015963,-57223,-251653,-18.14962425,1.053624875,14609,128,-7.62361677,-105705,58240,7777.34375,128
-4.558231182,-63202,-251537,-18.14125814,1.046701198,14513,128,-7.628881649,-105778,58880,7796.875,128
-4.576477954,-63455,-251602,-18.14594604,1.052326685,14591,128,-7.620299175,-105659,59520,7816.40625,128
-4.134011761,-57320,-251306,-18.12459804,1.070284971,14840,128,-7.600537849,-105385,60160,7835.9375,128
-4.431297115,-61442,-251596,-18.14551331,1.061774619,14722,128,-7.616476728,-105606,60800,7855.46875,128
-4.117279544,-57088,-251552,-18.14233996,1.107932461,15362,128,-7.606091214,-105462,61440,7875,128
-4.097373974,-56812,-251194,-18.11652042,1.158561845,16064,128,-7.528560463,-104387,62080,7894.53125,128
-4.077540526,-56537,-251289,-18.12337197,1.040426617,14426,128,-7.526468936,-104358,62720,7914.0625,128
-4.135742681,-57344,-251190,-18.11623193,1.051821834,14584,128,-7.517381611,-104232,63360,7933.59375,128
-4.135526316,-57341,-251537,-18.14125814,1.03393567,14336,128,-7.563827939,-104876,64000,7953.125,128
-4.135454194,-57340,-251647,-18.14919152,1.140603559,15815,128,-7.573997089,-105017,64640,7972.65625,128
-4.135093586,-57335,-251564,-18.14320542,1.164259453,16143,128,-7.573420116,-105009,65280,7992.1875,128
-4.135382072,-57339,-251641,-18.14875879,1.146950262,15903,128,-7.568587967,-104942,384,8011.71875,128
-4.439302616,-61553,-251924,-18.16916921,1.127333179,15631,128,-7.606596065,-105469,1024,8031.25,128
-3.88641821,-53887,-250459,-18.06351102,1.170101305,16224,128,-7.526036206,-104352,1664,8050.78125,128
-3.588772248,-49760,-251077,-18.10808219,1.116947665,15487,128,-7.416916182,-102839,2304,8070.3125,128
-4.126799599,-57220,-253595,-18.28968445,1.16144671,16104,128,-7.596787524,-105333,2944,8089.84375,128
-3.988542436,-55303,-251508,-18.13916661,1.177529833,16327,128,-7.545797532,-104626,3584,8109.375,128
-4.11843349,-57104,-251755,-18.15698065,1.181063793,16376,128,-7.577603171,-105067,4224,8128.90625,128
-4.50500542,-62464,-251568,-18.14349391,1.177601955,16328,128,-7.562169142,-104853,4864,8148.4375,128
-3.988037585,-55296,-251071,-18.10764946,1.173491022,16271,128,-7.543994492,-104601,5504,8167.96875,128
-4.119587436,-57120,-251200,-18.11695315,1.179044387,16348,128,-7.536133234,-104492,6144,8187.5,128
-4.135526316,-57341,-250692,-18.08031536,1.047710901,14527,128,-7.511107029,-104145,6784,8207.03125,128
-3.860598667,-53529,-250161,-18.04201878,1.066318281,14785,128,-7.500577271,-103999,7424,8226.5625,128
-3.848482233,-53361,-249680,-18.00732827,1.144930857,15875,128,-7.467617687,-103542,8064,8246.09375,128
-3.690031015,-51164,-248924,-17.95280432,1.163466115,16132,128,-7.416699817,-102836,8704,8265.625,128
-3.835428218,-53180,-248896,-17.95078492,1.162600656,16120,128,-7.406891275,-102700,9344,8285.15625,128
-3.570309111,-49504,-249341,-17.98287904,1.179332874,16352,128,-7.405448843,-102680,9984,8304.6875,128
-3.858867748,-53505,-250744,-18.08406569,1.177024982,16320,128,-7.50497669,-104060,10624,8324.21875,128
-4.011116506,-55616,-251141,-18.11269797,1.052398807,14592,128,-7.549043006,-104671,11264,8343.75,128
-4.439230494,-61552,-251337,-18.12683381,1.180414698,16367,128,-7.566640683,-104915,11904,8363.28125,128
-3.91432928,-54274,-251396,-18.13108899,1.144930857,15875,128,-7.580199549,-105103,12544,8382.8125,128
-4.130045072,-57265,-251316,-18.12531926,1.177024982,16320,128,-7.5780359,-105073,13184,8402.34375,128
-4.108047975,-56960,-251421,-18.13289203,1.118173733,15504,128,-7.591089915,-105254,13824,8421.875,128
-4.571140953,-63381,-251444,-18.13455083,1.144137519,15864,128,-7.59707601,-105337,14464,8441.40625,128
-4.505077541,-62465,-251133,-18.112121,1.175871036,16304,128,-7.570895859,-104974,15104,8460.9375,128
-3.932143322,-54521,-251093,-18.10923613,1.181568644,16383,128,-7.57313163,-105005,15744,8480.46875,128
-4.096580636,-56801,-251176,-18.11522223,1.181496523,16382,128,-7.574646184,-105026,16384,8500,128
-4.098888528,-56833,-250872,-18.09329725,1.177024982,16320,128,-7.563467331,-104871,17024,8519.53125,128
-4.052947051,-56196,-250811,-18.08889783,1.145724195,15886,128,-7.565703102,-104902,17664,8539.0625,128
-4.062250741,-56325,-250802,-18.08824874,1.181568644,16383,128,-7.574574062,-105025,18304,8558.59375,128
-4.075809607,-56513,-251011,-18.10332216,1.163033386,16126,128,-7.593397807,-105286,18944,8578.125,128
-4.468079146,-61952,-250847,-18.09149421,1.181496523,16382,128,-7.568660089,-104943,19584,8597.65625,128
-3.955438609,-54844,-250984,-18.10137488,1.177097103,16321,128,-7.588421415,-105217,20224,8617.1875,128
-4.135742681,-57344,-251052,-18.10627915,1.146950262,15903,128,-7.589647483,-105234,20864,8636.71875,128
-4.059293754,-56284,-250926,-18.09719182,1.172409197,16256,128,-7.579983184,-105100,21504,8656.25,128
-4.071410188,-56452,-251011,-18.10332216,1.172625562,16259,128,-7.558130331,-104797,22144,8675.78125,128
-3.840476732,-53250,-250716,-18.08204628,1.042878752,14460,128,-7.517886462,-104239,22784,8695.3125,128
-3.88641821,-53887,-250607,-18.07418502,1.05874551,14680,128,-7.508727015,-104112,23424,8714.84375,128
-4.131631748,-57287,-250432,-18.06156374,1.052110321,14588,128,-7.520843449,-104280,24064,8734.375,128
-3.915411105,-54289,-250897,-18.09510029,1.145868438,15888,128,-7.55942852,-104815,24704,8753.90625,128
-4.119659557,-57121,-251207,-18.117458,1.140098708,15808,128,-7.584454725,-105162,25344,8773.4375,128
-3.970656272,-55055,-251287,-18.12322773,1.136348383,15756,128,-7.601980281,-105405,25984,8792.96875,128
-4.087349068,-56673,-251241,-18.11991014,1.16058125,16092,128,-7.595561456,-105316,26624,8812.5,128
-3.858362896,-53498,-251092,-18.10916401,1.14904179,15932,128,-7.589286874,-105229,27264,8832.03125,128
-3.825908163,-53048,-248119,-17.89474641,1.883744822,26119,128,-7.417637398,-102849,27904,8851.5625,128
-3.610697223,-50064,-253076,-18.25225332,1.181568644,16383,128,-7.49610573,-103937,28544,8871.09375,128
-4.108047975,-56960,-252024,-18.17638137,1.144714492,15872,128,-7.562169142,-104853,29184,8890.625,128
-4.013424398,-55648,-252237,-18.19174328,1.181568644,16383,128,-7.553009695,-104726,29824,8910.15625,128
-3.988614558,-55304,-252299,-18.19621482,1.144786614,15873,128,-7.56873221,-104944,30464,8929.6875,128
-4.690718614,-65039,-252447,-18.20688882,1.14464237,15871,128,-7.584382604,-105161,31104,8949.21875,128
-3.991499423,-55344,-251853,-18.16404857,1.177241347,16323,128,-7.555245466,-104757,31744,8968.75,128
-4.134660856,-57329,-251638,-18.14854242,1.17298617,16264,128,-7.54038841,-104551,32384,8988.28125,128
-3.988037585,-55296,-250999,-18.1024567,1.038407211,14398,128,-7.526685301,-104361,33024,9007.8125,128
-3.843794327,-53296,-250349,-18.05557764,1.06624616,14784,128,-7.50980884,-104127,33664,9027.34375,128
-3.868027195,-53632,-249628,-18.00357795,1.070717701,14846,128,-7.482979594,-103755,34304,9046.875,128
-3.546076244,-49168,-248943,-17.95417463,1.164259453,16143,128,-7.43985086,-103157,34944,9066.40625,128
-3.609615399,-50049,-248864,-17.94847702,1.179332874,16352,128,-7.420594385,-102890,35584,9085.9375,128
-3.675029716,-50956,-249555,-17.99831307,1.12560226,15607,128,-7.451534563,-103319,36224,9105.46875,128
-4.134588734,-57328,-250602,-18.07382441,1.051461226,14579,128,-7.51514584,-104201,36864,9125,128
-4.098816407,-56832,-251390,-18.13065626,1.153008479,15987,128,-7.600682092,-105387,37504,9144.53125,128
-4.457765753,-61809,-251761,-18.15741338,1.070789822,14847,128,-7.611644579,-105539,38144,9164.0625,128
-4.121895328,-57152,-251852,-18.16397645,1.061630376,14720,128,-7.626645878,-105747,38784,9183.59375,128
-4.116774692,-57081,-251537,-18.14125814,1.097835433,15222,128,-7.619073107,-105642,39424,9203.125,128
-4.115476503,-57063,-251431,-18.13361324,1.087017189,15072,128,-7.631478027,-105814,40064,9222.65625,128
-3.950822824,-54780,-251387,-18.13043989,1.107499731,15356,128,-7.618568256,-105635,40704,9242.1875,128
-3.951760406,-54793,-251484,-18.13743569,1.089829932,15111,128,-7.624770716,-105721,41344,9261.71875,128
-4.127088085,-57224,-251231,-18.11918892,1.163177629,16128,128,-7.630035595,-105794,41984,9281.25,128
-4.431297115,-61442,-251142,-18.11277009,1.089757811,15110,128,-7.620227053,-105658,42624,9300.78125,128
-4.439230494,-61552,-251367,-18.12899746,1.043095117,14463,128,-7.640276866,-105936,43264,9320.3125,128
-4.126583234,-57217,-251297,-18.12394895,1.039633279,14415,128,-7.638185339,-105907,43904,9339.84375,128
-4.432667426,-61461,-251519,-18.13995995,1.080598364,14983,128,-7.646623569,-106024,44544,9359.375,128
-4.477238593,-62079,-251609,-18.14645089,1.06978012,14833,128,-7.654917557,-106139,45184,9378.90625,128
-4.135670559,-57343,-251800,-18.16022613,1.03393567,14336,128,-7.664437612,-106271,45824,9398.4375,128
-4.490653216,-62265,-251667,-18.15063395,1.043095117,14463,128,-7.664149125,-106267,46464,9417.96875,128
-3.989119409,-55311,-251917,-18.16866436,1.035017495,14351,128,-7.675327978,-106422,47104,9437.5,128
-4.43237894,-61457,-251601,-18.14587392,1.034729008,14347,128,-7.67056795,-106356,47744,9457.03125,128
-4.135742681,-57344,-251505,-18.13895025,1.093868744,15167,128,-7.634579257,-105857,48384,9476.5625,128
-3.985946058,-55267,-251402,-18.13152172,1.090334784,15118,128,-7.624626473,-105719,49024,9496.09375,128
-4.13350691,-57313,-251109,-18.11039008,1.10786034,15361,128,-7.604288173,-105437,49664,9515.625,128
-3.860526545,-53528,-251347,-18.12755503,1.070140728,14838,128,-7.645181137,-106004,50304,9535.15625,128
-4.43461471,-61488,-251566,-18.14334966,0.589882802,8179,128,-7.686290465,-106574,50944,9554.6875,128
-4.100547326,-56856,-251416,-18.13253142,0.581660936,8065,128,-7.688670479,-106607,51584,9574.21875,128
-4.487047134,-62215,-251677,-18.15135517,0.59067614,8190,128,-7.705186332,-106836,52224,9593.75,128
-4.117279544,-57088,-251561,-18.14298906,0.561250515,7782,128,-7.710234846,-106906,52864,9613.28125,128
-4.07638658,-56521,-251037,-18.10519732,0.586060355,8126,128,-7.664077003,-106266,53504,9632.8125,128
-3.554153866,-49280,-246515,-17.77906332,1.855473144,25727,128,-7.431556872,-103042,54144,9652.34375,128
-3.614375426,-50115,-251934,-18.16989042,0.877143249,12162,128,-7.511034907,-104144,54784,9671.875,128
-3.572689125,-49537,-248710,-17.93737029,1.14464237,15871,128,-7.501659095,-104014,55424,9691.40625,128
-3.692555272,-51199,-247393,-17.84238611,1.108653678,15372,128,-7.44605332,-103243,56064,9710.9375,128
-3.6282949,-50308,-246936,-17.80942652,1.177024982,16320,128,-7.422181061,-102912,56704,9730.46875,128
-3.549538082,-49216,-246336,-17.76615355,1.108942164,15376,128,-7.381648705,-102350,57344,9750,128
-2.949558252,-40897,-245630,-17.71523568,1.061702497,14721,128,-7.362969203,-102091,57984,9769.53125,128
-2.641310411,-36623,-245549,-17.70939382,1.051821834,14584,128,-7.37479715,-102255,58624,9789.0625,128
-2.658691723,-36864,-245559,-17.71011504,1.034007792,14337,128,-7.382153557,-102357,59264,9808.59375,128
-2.509904803,-34801,-244756,-17.65220137,1.181424401,16381,128,-7.341332715,-101791,59904,9828.125,128
-2.502332032,-34696,-243462,-17.55887599,1.128487125,15647,128,-7.28623179,-101027,60544,9847.65625,128
-2.365517302,-32799,-242715,-17.50500113,1.116947665,15487,128,-7.22954419,-100241,61184,9867.1875,128
-2.393356251,-33185,-242094,-17.4602136,1.160941858,16097,128,-7.184107564,-99611,61824,9886.71875,128
-2.43713408,-33792,-242444,-17.48545617,1.103172434,15296,128,-7.173072955,-99458,62464,9906.25,128
-1.154162425,-16003,-243331,-17.54942805,1.052110321,14588,128,-7.208701039,-99952,63104,9925.78125,128
-2.497211396,-34625,-243279,-17.54567773,1.037397508,14384,128,-7.22687569,-100204,63744,9945.3125,128
-2.510698141,-34812,-242996,-17.52526731,1.05297578,14600,128,-7.216057446,-100054,64384,9964.84375,128
-2.436629228,-33785,-242362,-17.47954219,1.109735502,15387,128,-7.211946513,-99997,65024,9984.375,128
-1.145868438,-15888,-242205,-17.4682191,1.069058903,14823,128,-7.201849485,-99857,128,10003.90625,128
-0.886807547,-12296,-242124,-17.46237725,1.069563755,14830,128,-7.217283513,-100071,768,10023.4375,128
-2.365084572,-32793,-241948,-17.44968384,1.044249063,14479,128,-7.226298717,-100196,1408,10042.96875,128
-1.178755901,-16344,-241941,-17.44917899,1.03393567,14336,128,-7.233943609,-100302,2048,10062.5,128
-2.372296735,-32893,-241940,-17.44910687,1.034656886,14346,128,-7.228246001,-100223,2688,10082.03125,128
-1.181424401,-16381,-242109,-17.46129542,1.16498067,16153,128,-7.249594003,-100519,3328,10101.5625,128
-2.365012451,-32792,-242248,-17.47132033,1.173346779,16269,128,-7.259258301,-100653,3968,10121.09375,128
-2.399125981,-33265,-242035,-17.45595842,1.164908548,16152,128,-7.26805714,-100775,4608,10140.625,128
-1.163105507,-16127,-242348,-17.47853249,1.172337076,16255,128,-7.293876683,-101133,5248,10160.15625,128
-2.419608524,-33549,-242265,-17.4725464,1.181568644,16383,128,-7.278298411,-100917,5888,10179.6875,128
-2.420473983,-33561,-242513,-17.49043256,1.146445411,15896,128,-7.310031928,-101357,6528,10199.21875,128
-2.363353653,-32769,-242842,-17.51416058,1.036748414,14375,128,-7.359363122,-102041,7168,10218.75,128
-2.43713408,-33792,-243312,-17.54805774,1.181280158,16379,128,-7.385687516,-102406,7808,10238.28125,128
-2.602220488,-36081,-244119,-17.6062599,1.153369087,15992,128,-7.418070128,-102855,8448,10257.8125,128
-2.620683625,-36337,-244146,-17.60820718,1.177241347,16323,128,-7.431268386,-103038,9088,10277.34375,128
-2.365445181,-32798,-244294,-17.61888118,1.177024982,16320,128,-7.455068523,-103368,9728,10296.875,128
-2.931022993,-40640,-244902,-17.66273113,1.038551454,14400,128,-7.51911253,-104256,10368,10316.40625,128
-2.49252349,-34560,-245526,-17.70773503,1.125025287,15599,128,-7.608399106,-105494,11008,10335.9375,128
-2.954101915,-40960,-245757,-17.72439512,1.071222552,14853,128,-7.62895377,-105779,11648,10355.46875,128
-3.581848572,-49664,-246176,-17.75461409,1.036243562,14368,128,-7.654917557,-106139,12288,10375,128
-3.544994419,-49153,-246240,-17.75922987,0.572285124,7935,128,-7.690617763,-106634,12928,10394.53125,128
-3.56230361,-49393,-246179,-17.75483045,0.589594315,8175,128,-7.709585751,-106897,13568,10414.0625,128
-2.363570018,-32772,-241367,-17.40778117,1.845736724,25592,128,-7.422108939,-102911,14208,10433.59375,128
-3.78371701,-52463,-249071,-17.9634062,0.608922912,8443,128,-7.662634571,-106246,14848,10453.125,128
-3.58177645,-49663,-246918,-17.80812833,0.567957827,7875,128,-7.770384284,-107740,15488,10472.65625,128
-3.58177645,-49663,-246557,-17.78209243,0.512424172,7105,128,-7.772187325,-107765,16128,10492.1875,128
-3.547158068,-49183,-246935,-17.8093544,0.444197112,6159,128,-7.808031775,-108262,16768,10511.71875,128
-3.600960803,-49929,-246601,-17.78526578,0.478887615,6640,128,-7.793463206,-108060,17408,10531.25,128
-3.566991516,-49458,-246578,-17.78360698,0.465617235,6456,128,-7.805868126,-108232,18048,10550.78125,128
-3.582137058,-49668,-246353,-17.76737961,0.461362059,6397,128,-7.805651761,-108229,18688,10570.3125,128
-2.949558252,-40897,-245703,-17.72050056,0.517400565,7174,128,-7.753507823,-107506,19328,10589.84375,128
-2.954101915,-40960,-244847,-17.65876444,0.519564214,7204,128,-7.742040484,-107347,19968,10609.375,128
-2.54740805,-35321,-244154,-17.60878415,0.565361448,7839,128,-7.707205737,-106864,20608,10628.90625,128
-2.658475358,-36861,-243792,-17.58267612,0.585916112,8124,128,-7.699200237,-106753,21248,10648.4375,128
-2.824787834,-39167,-243867,-17.58808524,0.554110474,7683,128,-7.702662075,-106801,21888,10667.96875,128
-2.948620671,-40884,-244916,-17.66374083,0.447442585,6204,128,-7.761441202,-107616,22528,10687.5,128
-3.573193976,-49544,-246031,-17.74415645,0.553966231,7681,128,-7.859166009,-108971,23168,10707.03125,128
-3.581848572,-49664,-246771,-17.79752645,0.368180915,5105,128,-7.914699663,-109741,23808,10726.5625,128
-3.573266098,-49545,-247113,-17.82219205,0.447370463,6203,128,-7.95703506,-110328,24448,10746.09375,128
-3.625987008,-50276,-247012,-17.81490777,0.443475895,6149,128,-7.975714561,-110587,25088,10765.625,128
-3.582064936,-49667,-247309,-17.83632789,0.294328367,4081,128,-8.016968133,-111159,25728,10785.15625,128
-3.683467946,-51073,-247187,-17.82752905,0.290794407,4032,128,-8.021079066,-111216,26368,10804.6875,128
-3.674669108,-50951,-247301,-17.83575092,0.276442203,3833,128,-8.034854297,-111407,27008,10824.21875,128
-3.546148365,-49169,-247317,-17.83690486,0.216941859,3008,128,-8.057933218,-111727,27648,10843.75,128
-4.201301241,-58253,-247325,-17.83748184,0.183477424,2544,128,-8.061467178,-111776,28288,10863.28125,128
-3.683684311,-51076,-247342,-17.8387079,0.217013981,3009,128,-8.067164787,-111855,28928,10882.8125,128
-4.136896627,-57360,-247819,-17.87310992,0.184559248,2559,128,-8.092767965,-112210,29568,10902.34375,128
-3.54723019,-49184,-247527,-17.85205041,0.179727099,2492,128,-8.095364344,-112246,30208,10921.875,128
-4.15341248,-57589,-247957,-17.88306271,0.156864543,2175,128,-8.116063251,-112533,30848,10941.40625,128
-4.136319654,-57352,-247913,-17.87988935,0.068587669,951,128,-8.158326525,-113119,31488,10960.9375,128
-4.154133696,-57599,-248011,-17.88695727,0.038657193,536,128,-8.150176781,-113006,32128,10980.46875,128
-4.144974249,-57472,-247936,-17.88154815,0.04031599,559,128,-8.153061647,-113046,32768,11000,128
-4.1401421,-57405,-247861,-17.87613903,0.069164642,959,128,-8.138276713,-112841,33408,11019.53125,128
-4.265345247,-59141,-247565,-17.85479103,0.064693101,897,128,-8.139286415,-112855,34048,11039.0625,128
-4.144757884,-57469,-247632,-17.85962318,0.069164642,959,128,-8.134742753,-112792,34688,11058.59375,128
-4.250127584,-58930,-247414,-17.84390066,0.056038506,777,128,-8.141450064,-112885,35328,11078.125,128
-4.282870803,-59384,-247899,-17.87887965,0.035772328,496,128,-8.236290006,-114200,35968,11097.65625,128
-4.172668954,-57856,-248239,-17.90340101,0.018391015,255,128,-8.253671319,-114441,36608,11117.1875,128
-3.701931083,-51329,-248197,-17.9003719,1.178178928,16336,128,-8.274730834,-114733,37248,11136.71875,128
-4.297872102,-59592,-248277,-17.90614163,1.163393994,16131,128,-8.289227282,-114934,37888,11156.25,128
-3.577377031,-49602,-248212,-17.90145372,1.164259453,16143,128,-8.301848567,-115109,38528,11175.78125,128
-3.407602716,-47248,-243852,-17.58700342,1.218422797,16894,128,-8.015886309,-111144,39168,11195.3125,128
-4.428917101,-61409,-249774,-18.01410771,0.014063718,195,128,-8.206720138,-113790,39808,11214.84375,128
-3.831389407,-53124,-248889,-17.95028006,1.165413399,16159,128,-8.332644502,-115536,40448,11234.375,128
-4.413194586,-61191,-248671,-17.93455755,1.163538237,16133,128,-8.321321407,-115379,41088,11253.90625,128
-4.137545721,-57369,-248222,-17.90217494,1.181568644,16383,128,-8.316561379,-115313,41728,11273.4375,128
-4.139204519,-57392,-248107,-17.89388095,1.179332874,16352,128,-8.329038421,-115486,42368,11292.96875,128
-3.56230361,-49393,-248002,-17.88630818,1.181496523,16382,128,-8.326009312,-115444,43008,11312.5,128
-4.283447776,-59392,-247677,-17.86286865,1.16764917,16190,128,-8.318652906,-115342,43648,11332.03125,128
-3.660677512,-50757,-247501,-17.85017524,1.181135914,16377,128,-8.319302001,-115351,44288,11351.5625,128
-3.660316904,-50752,-246899,-17.80675802,1.181063793,16376,128,-8.297377026,-115047,44928,11371.09375,128
-3.549321717,-49213,-246462,-17.77524087,1.167288562,16185,128,-8.281077538,-114821,45568,11390.625,128
-3.547158068,-49183,-245614,-17.71408173,0.03231049,448,128,-8.225039032,-114044,46208,11410.15625,128
-3.549321717,-49213,-245801,-17.72756847,0.069308885,961,128,-8.223957208,-114029,46848,11429.6875,128
-3.616611197,-50146,-246754,-17.79630039,1.177529833,16327,128,-8.273865375,-114721,47488,11449.21875,128
-4.168125292,-57793,-248129,-17.89546763,1.034152035,14339,128,-8.357887072,-115886,48128,11468.75,128
-3.831173042,-53121,-249105,-17.96585834,1.036171441,14367,128,-8.408588577,-116589,48768,11488.28125,128
-4.72288486,-65485,-249181,-17.97133958,1.180991671,16375,128,-8.420993497,-116761,49408,11507.8125,128
-4.690213763,-65032,-249407,-17.98763907,1.144858735,15874,128,-8.445875459,-117106,50048,11527.34375,128
-4.282077465,-59373,-249636,-18.00415492,1.179693482,16357,128,-8.45784765,-117272,50688,11546.875,128
-4.264984639,-59136,-249526,-17.99622154,1.152503628,15980,128,-8.448255473,-117139,51328,11566.40625,128
-4.718557563,-65425,-249619,-18.00292885,1.144786614,15873,128,-8.455467636,-117239,51968,11585.9375,128
-4.396606612,-60961,-249377,-17.98547542,1.168154021,16197,128,-8.451140338,-117179,52608,11605.46875,128
-4.144469398,-57465,-249577,-17.99989974,1.175294063,16296,128,-8.471695003,-117464,53248,11625,128
-4.689708911,-65025,-249557,-17.99845731,1.153873939,15999,128,-8.483883558,-117633,53888,11644.53125,128
-4.139853613,-57401,-249139,-17.96831047,1.163393994,16131,128,-8.455611879,-117241,54528,11664.0625,128
-4.394082355,-60926,-249246,-17.97602749,1.16411521,16141,128,-8.473642286,-117491,55168,11683.59375,128
-4.724327293,-65505,-249325,-17.98172509,1.16058125,16092,128,-8.477969584,-117551,55808,11703.125,128
-4.377782867,-60700,-249174,-17.97083473,1.181568644,16383,128,-8.491672694,-117741,56448,11722.65625,128
-4.153989453,-57597,-249277,-17.97826326,1.163249751,16129,128,-8.487056909,-117677,57088,11742.1875,128
-4.357660932,-60421,-249254,-17.97660446,1.1450751,15877,128,-8.486335693,-117667,57728,11761.71875,128
-4.265056761,-59137,-249410,-17.98785543,1.144930857,15875,128,-8.455900366,-117245,58368,11781.25,128
-4.394226598,-60928,-249184,-17.97155594,1.163105507,16127,128,-8.437797837,-116994,59008,11800.78125,128
-4.430071048,-61425,-248817,-17.94508731,1.037109022,14380,128,-8.411689807,-116632,59648,11820.3125,128
-4.359896703,-60452,-249000,-17.95828557,1.149258155,15935,128,-8.447390014,-117127,60288,11839.84375,128
-4.427763155,-61393,-249461,-17.99153364,1.145363587,15881,128,-8.505447925,-117932,60928,11859.375,128
-4.256330044,-59016,-249496,-17.99405789,1.071366795,14855,128,-8.519078913,-118121,61568,11878.90625,128
-4.690141641,-65031,-249359,-17.98417723,1.09855665,15232,128,-8.52650744,-118224,62208,11898.4375,128
-4.694036209,-65085,-249401,-17.98720634,1.052903658,14599,128,-8.546989983,-118508,62848,11917.96875,128
-4.144108789,-57460,-248692,-17.9360721,1.145579951,15884,128,-8.489004193,-117704,63488,11937.5,128
-3.526531282,-48897,-245089,-17.67621788,0.075583467,1048,128,-8.16647627,-113232,64128,11957.03125,128
-4.431224994,-61441,-251283,-18.12293924,0.941475742,13054,128,-8.440105729,-117026,64768,11976.5625,128
-4.37525861,-60665,-248969,-17.95604979,1.098917258,15237,128,-8.501913965,-117883,65408,11996.09375,128
-4.209595228,-58368,-248672,-17.93462967,1.105985177,15335,128,-8.49946183,-117849,512,12015.625,128
-3.822157839,-52996,-248664,-17.9340527,1.163177629,16128,128,-8.507755817,-117964,1152,12035.15625,128
-4.398337531,-60985,-248441,-17.91796957,1.102739704,15290,128,-8.507323087,-117958,1792,12054.6875,128
-4.136680262,-57357,-248429,-17.91710412,1.144786614,15873,128,-8.492105423,-117747,2432,12074.21875,128
-4.578930089,-63489,-248070,-17.89121245,1.107283367,15353,128,-8.495278775,-117791,3072,12093.75,128
-3.618774845,-50176,-247677,-17.86286865,1.172409197,16256,128,-8.483595071,-117629,3712,12113.28125,128
-4.239597826,-58784,-247191,-17.82781754,1.14904179,15932,128,-8.451789433,-117188,4352,12132.8125,128
-4.143892425,-57457,-246742,-17.79543493,1.034440522,14343,128,-8.418108632,-116721,4992,12152.34375,128
-3.543768352,-49136,-245421,-17.70016226,1.112548245,15426,128,-8.321826258,-115386,5632,12171.875,128
-2.953597063,-40953,-245724,-17.72201511,1.171327373,16241,128,-8.319878974,-115359,6272,12191.40625,128
-3.581271598,-49656,-246200,-17.756345,1.107716096,15359,128,-8.34584276,-115719,6912,12210.9375,128
-4.486758648,-62211,-247659,-17.86157046,1.140315073,15811,128,-8.46051615,-117309,7552,12230.46875,128
-4.357588811,-60420,-248132,-17.89568399,1.144714492,15872,128,-8.492898761,-117758,8192,12250,128
-4.582968901,-63545,-248380,-17.91357016,1.078939566,14960,128,-8.521891656,-118160,8832,12269.53125,128
-3.822013595,-52994,-248602,-17.92958116,1.052182442,14589,128,-8.54864878,-118531,9472,12289.0625,128
-4.319869199,-59897,-248313,-17.90873801,1.061774619,14722,128,-8.539056604,-118398,10112,12308.59375,128
-4.355064554,-60385,-248451,-17.91869079,1.03393567,14336,128,-8.561270065,-118706,10752,12328.125,128
-4.583473752,-63552,-248219,-17.90195857,1.039633279,14415,128,-8.544465726,-118473,11392,12347.65625,128
-4.357372446,-60417,-248226,-17.90246342,1.108870042,15375,128,-8.549802726,-118547,12032,12367.1875,128
-3.725298491,-51653,-248262,-17.9050598,1.040859346,14432,128,-8.541436618,-118431,12672,12386.71875,128
-4.209090377,-58361,-247787,-17.87080203,1.107499731,15356,128,-8.512371601,-118028,13312,12406.25,128
-4.209955837,-58373,-247213,-17.82940421,1.109374894,15382,128,-8.482369004,-117612,13952,12425.78125,128
-4.209595228,-58368,-246749,-17.79593978,1.144786614,15873,128,-8.439600878,-117019,14592,12445.3125,128
-4.153123993,-57585,-246197,-17.75612864,1.108293069,15367,128,-8.40959828,-116603,15232,12464.84375,128
-2.949774617,-40900,-245639,-17.71588477,1.163321872,16130,128,-8.360771937,-115926,15872,12484.375,128
-3.527036134,-48904,-245264,-17.68883916,1.115793719,15471,128,-8.337332408,-115601,16512,12503.90625,128
-3.503452361,-48577,-245057,-17.67390998,1.172841927,16262,128,-8.316200771,-115308,17152,12523.4375,128
-3.554153866,-49280,-245854,-17.73139092,1.180991671,16375,128,-8.311584987,-115244,17792,12542.96875,128
-2.954101915,-40960,-245476,-17.70412895,1.109951867,15390,128,-8.320095339,-115362,18432,12562.5,128
-3.545138662,-49155,-245795,-17.72713574,1.171255251,16240,128,-8.338414233,-115616,19072,12582.03125,128
-4.191276335,-58114,-246274,-17.76168201,1.043095117,14463,128,-8.401232171,-116487,19712,12601.5625,128
-3.564106651,-49418,-246618,-17.78649185,1.173563143,16272,128,-8.445731216,-117104,20352,12621.09375,128
-4.437860183,-61533,-247005,-17.81440292,1.180342577,16366,128,-8.466646489,-117394,20992,12640.625,128
-4.246521502,-58880,-247228,-17.83048604,1.181496523,16382,128,-8.481070814,-117594,21632,12660.15625,128
-3.577521274,-49604,-247236,-17.83106301,1.179981968,16361,128,-8.467007097,-117399,22272,12679.6875,128
-2.817431428,-39065,-244369,-17.6242903,0.018318894,254,128,-8.332211772,-115530,22912,12699.21875,128
-1.108076705,-15364,-243502,-17.56176085,0.138185041,1916,128,-8.181910298,-113446,23552,12718.75,0
-4.172957441,-57860,-247246,-17.83178423,1.108004583,15363,128,-8.469675597,-117436,24832,12757.8125,128
-4.283447776,-59392,-247028,-17.81606171,1.116659178,15483,128,-8.476382908,-117529,25472,12777.34375,128
-4.138050573,-57376,-246951,-17.81050835,1.181135914,16377,128,-8.478258071,-117555,26112,12796.875,128
-4.135959045,-57347,-246602,-17.7853379,1.18048682,16368,128,-8.46361738,-117352,26752,12816.40625,128
-4.209523107,-58367,-246589,-17.78440032,1.179260752,16351,128,-8.458785231,-117285,27392,12835.9375,128
-4.140358465,-57408,-246152,-17.75288317,1.144786614,15873,128,-8.446163946,-117110,28032,12855.46875,128
-3.573193976,-49544,-245749,-17.72381815,1.153873939,15999,128,-8.433759026,-116938,28672,12875,128
-3.511529983,-48689,-244936,-17.66518327,1.109519137,15384,128,-8.392505454,-116366,29312,12894.53125,128
-2.949558252,-40897,-244309,-17.619963,1.148104208,15919,128,-8.367046519,-116013,29952,12914.0625,128
-2.824859956,-39168,-243719,-17.57741124,1.10346092,15300,128,-8.310070432,-115223,30592,12933.59375,128
-2.945519441,-40841,-243734,-17.57849307,1.175871036,16304,128,-8.295213377,-115017,31232,12953.125,128
-2.954029793,-40959,-244988,-17.66893359,1.107788218,15360,128,-8.367695614,-116022,31872,12972.65625,128
-3.544489568,-49146,-245568,-17.71076414,1.045186644,14492,128,-8.416882565,-116704,32512,12992.1875,128
-4.137834208,-57373,-246247,-17.75973472,1.177024982,16320,128,-8.463473137,-117350,33152,13011.71875,128
-4.168125292,-57793,-246199,-17.75627288,1.146950262,15903,128,-8.468088921,-117414,33792,13031.25,128
-3.581848572,-49664,-246259,-17.76060018,1.162889142,16124,128,-8.49859637,-117837,34432,13050.78125,128
-4.176202914,-57905,-246544,-17.78115484,1.152719993,15983,128,-8.500976384,-117870,35072,13070.3125,128
-4.135814802,-57345,-246081,-17.74776253,1.181352279,16380,128,-8.478330192,-117556,35712,13089.84375,128
-4.144974249,-57472,-246200,-17.756345,1.172625562,16259,128,-8.470036205,-117441,36352,13109.375,128
-4.17245259,-57853,-246153,-17.75295529,1.172625562,16259,128,-8.463545258,-117351,36992,13128.90625,128
-4.142594235,-57439,-246239,-17.75915775,1.159066696,16071,128,-8.48352295,-117628,37632,13148.4375,128
-4.135814802,-57345,-246236,-17.75894138,1.162600656,16120,128,-8.480205355,-117582,38272,13167.96875,128
-4.153989453,-57597,-246057,-17.74603161,1.160941858,16097,128,-8.480493841,-117586,38912,13187.5,128
-4.137545721,-57369,-245989,-17.74112734,1.18048682,16368,128,-8.482369004,-117612,39552,13207.03125,128
-3.540595,-49092,-245764,-17.72489997,1.177024982,16320,128,-8.476815638,-117535,40192,13226.5625,128
-2.939749711,-40761,-245700,-17.72028419,1.177024982,16320,128,-8.471911367,-117467,40832,13246.09375,128
-4.136319654,-57352,-245405,-17.69900831,1.178683779,16343,128,-8.453087622,-117206,41472,13265.625,128
-3.497682631,-48497,-245062,-17.67427059,1.034152035,14339,128,-8.397049117,-116429,42112,13285.15625,128
-3.532228891,-48976,-244947,-17.6659766,1.070284971,14840,128,-8.390053319,-116332,42752,13304.6875,128
-2.953597063,-40953,-244326,-17.62118907,1.150412101,15951,128,-8.346059125,-115722,43392,13324.21875,128
-2.898712504,-40192,-244352,-17.62306423,1.144714492,15872,128,-8.360483451,-115922,44032,13343.75,128
-3.408756662,-47264,-244136,-17.60748596,1.105408204,15327,128,-8.375989601,-116137,44672,13363.28125,128
-2.824859956,-39168,-243630,-17.57099242,1.147022384,15904,128,-8.346347612,-115726,45312,13382.8125,128
-3.411136676,-47297,-244028,-17.59969683,1.075477728,14912,128,-8.37728779,-116155,45952,13402.34375,128
-2.95302009,-40945,-243576,-17.56709785,1.107283367,15353,128,-8.343462747,-115686,46592,13421.875,128
-2.880321488,-39937,-242949,-17.52187759,1.181568644,16383,128,-8.307618297,-115189,47232,13441.40625,128
-2.436052255,-33777,-238529,-17.20309999,0.289856826,4019,128,-8.045961028,-111561,47872,13460.9375,128
-2.916670789,-40441,-245121,-17.67852577,0.005120636,71,128,-8.208306814,-113812,48512,13480.46875,128
-2.896404612,-40160,-242851,-17.51480967,1.177024982,16320,128,-8.259152563,-114517,49152,13500,128
-2.730813352,-37864,-242271,-17.47297913,1.172625562,16259,128,-8.274947199,-114736,49792,13519.53125,128
-2.808704711,-38944,-242024,-17.45516508,0.016876461,234,128,-8.26347986,-114577,50432,13539.0625,128
-2.663307507,-36928,-241710,-17.43251889,0.025098327,348,128,-8.244151264,-114309,51072,13558.59375,128
-2.658763845,-36865,-241550,-17.42097943,0.018391015,255,128,-8.242997318,-114293,51712,13578.125,128
-2.658619602,-36863,-241657,-17.42869645,0.005048514,70,128,-8.24754098,-114356,52352,13597.65625,128
-2.655229885,-36816,-242042,-17.45646327,0.034834747,483,128,-8.217249896,-113936,52992,13617.1875,128
-2.815628387,-39040,-242014,-17.45444387,0.071544656,992,128,-8.201383138,-113716,53632,13636.71875,128
-2.806973792,-38920,-241306,-17.40338175,0.005120636,71,128,-8.178304217,-113396,54272,13656.25,128
-2.453577811,-34020,-240926,-17.37597553,0.05712033,792,128,-8.17577996,-113361,54912,13675.78125,128
-2.508750857,-34785,-241464,-17.41477697,0.03497899,485,128,-8.196767354,-113652,55552,13695.3125,128
-2.806468941,-38913,-242287,-17.47413307,0.017309191,240,128,-8.258070738,-114502,56192,13714.84375,128
-2.945952171,-40847,-243742,-17.57907004,1.112836732,15430,128,-8.347068828,-115736,56832,13734.375,128
-2.825220564,-39173,-243976,-17.5959465,1.052110321,14588,128,-8.375556871,-116131,57472,13753.90625,128
-2.937369697,-40728,-244246,-17.61541934,1.043383603,14467,128,-8.409237672,-116598,58112,13773.4375,128
-3.535762851,-49025,-244642,-17.64397951,1.181496523,16382,128,-8.446524554,-117115,58752,13792.96875,128
-3.43298953,-47600,-244672,-17.64614316,1.144714492,15872,128,-8.430946282,-116899,59392,13812.5,128
-3.542686527,-49121,-244771,-17.6532832,1.145796316,15887,128,-8.453231866,-117208,60032,13832.03125,128
-2.946312779,-40852,-244469,-17.63150247,1.163177629,16128,128,-8.430513552,-116893,60672,13851.5625,128
-3.509222091,-48657,-244754,-17.65205713,1.144714492,15872,128,-8.443206959,-117069,61312,13871.09375,128
-2.950423712,-40909,-244708,-17.64873953,1.163177629,16128,128,-8.44811123,-117137,61952,13890.625,128
-3.397433567,-47107,-244331,-17.62154968,1.181063793,16376,128,-8.427268079,-116848,62592,13910.15625,128
-3.526531282,-48897,-244313,-17.62025149,1.148825425,15929,128,-8.441980891,-117052,63232,13929.6875,128
-2.919555654,-40481,-244325,-17.62111695,1.146445411,15896,128,-8.454169447,-117221,63872,13949.21875,128
-3.399525094,-47136,-244063,-17.60222108,1.181352279,16380,128,-8.446236068,-117111,64512,13968.75,128
-3.475685534,-48192,-244161,-17.609289,1.144714492,15872,128,-8.463833745,-117355,65152,13988.28125,128
-3.430104665,-47560,-244359,-17.62356909,1.153873939,15999,128,-8.462102826,-117331,256,14007.8125,128
-3.450875694,-47848,-244600,-17.6409504,1.153585452,15995,128,-8.46138161,-117321,896,14027.34375,128
-3.408179689,-47256,-244409,-17.62717517,1.181568644,16383,128,-8.433759026,-116938,1536,14046.875,128
-2.921719303,-40511,-244116,-17.60604353,1.107788218,15360,128,-8.434696607,-116951,2176,14066.40625,128
-2.926407209,-40576,-243831,-17.58548887,1.070789822,14847,128,-8.398130941,-116444,2816,14085.9375,128
-2.88039361,-39938,-244351,-17.62299211,1.150772709,15956,128,-8.48972541,-117714,3456,14105.46875,128
-3.434143476,-47616,-244579,-17.63943584,1.107716096,15359,128,-8.506962479,-117953,4096,14125,128
-3.420224001,-47423,-244722,-17.64974924,1.080309877,14979,128,-8.53314263,-118316,4736,14144.53125,128
-3.431979827,-47586,-244617,-17.64217647,1.052182442,14589,128,-8.543095415,-118454,5376,14164.0625,128
-3.43875926,-47680,-244721,-17.64967712,1.036171441,14367,128,-8.548071807,-118523,6016,14183.59375,128
-3.452101761,-47865,-243864,-17.58786888,1.144930857,15875,128,-8.514246763,-118054,6656,14203.125,128
-2.510986627,-34816,-239572,-17.27832285,0.073275575,1016,128,-8.231674222,-114136,7296,14222.65625,128
-4.136680262,-57357,-246961,-17.81122956,0.886446939,12291,128,-8.50523156,-117929,7936,14242.1875,128
-3.507419051,-48632,-245079,-17.67549666,1.107788218,15360,128,-8.541508739,-118432,8576,14261.71875,128
-3.541532581,-49105,-244595,-17.64058979,1.042878752,14460,128,-8.54951424,-118543,9216,14281.25,128
-3.406737257,-47236,-244362,-17.62378545,1.043095117,14463,128,-8.542951172,-118452,9856,14300.78125,128
-3.531074945,-48960,-244304,-17.6196024,1.052038199,14587,128,-8.549802726,-118547,10496,14320.3125,128
-2.953813428,-40956,-244185,-17.61101992,1.052326685,14591,128,-8.547855443,-118520,11136,14339.84375,128
-3.414526393,-47344,-243853,-17.58707554,1.054634578,14623,128,-8.545331185,-118485,11776,14359.375,128
-3.471358236,-48132,-243470,-17.55945296,1.068770417,14819,128,-8.522468629,-118168,12416,14378.90625,128
-2.952370996,-40936,-243181,-17.53860981,1.149258155,15935,128,-8.516626777,-118087,13056,14398.4375,128
-2.949414009,-40895,-242058,-17.45761722,1.18048682,16368,128,-8.462535556,-117337,13696,14417.96875,128
-2.823922375,-39155,-242071,-17.4585548,1.179404995,16353,128,-8.458208258,-117277,14336,14437.5,128
-3.250016958,-45063,-242287,-17.47413307,1.181568644,16383,128,-8.460732515,-117312,14976,14457.03125,128
-3.25412789,-45120,-243407,-17.5549093,1.033791427,14334,128,-8.522108021,-118163,15616,14476.5625,128
-3.406737257,-47236,-244689,-17.64736922,1.034152035,14339,128,-8.593724798,-119156,16256,14496.09375,128
-2.898351896,-40187,-244783,-17.65414866,1.181568644,16383,128,-8.616875841,-119477,16896,14515.625,128
-3.50914997,-48656,-245276,-17.68970462,1.088171135,15088,128,-8.660076697,-120076,17536,14535.15625,128
-3.50828451,-48644,-245252,-17.6879737,1.104254258,15311,128,-8.671039184,-120228,18176,14554.6875,128
-3.53352708,-48994,-245058,-17.6739821,1.099710596,15248,128,-8.66728886,-120176,18816,14574.21875,128
-3.507779659,-48637,-244957,-17.66669782,1.093868744,15167,128,-8.667360981,-120177,19456,14593.75,128
-2.950640076,-40912,-244686,-17.64715286,1.070501336,14843,128,-8.649186331,-119925,20096,14613.28125,128
-3.540522878,-49091,-245101,-17.67708333,1.069563755,14830,128,-8.677818618,-120322,20736,14632.8125,128
-3.540378635,-49089,-245057,-17.67390998,1.075405607,14911,128,-8.680487118,-120359,21376,14652.34375,128
-3.526531282,-48897,-245226,-17.68609854,1.070861944,14848,128,-8.66728886,-120176,22016,14671.875,128
-3.544561689,-49147,-245396,-17.69835922,1.070284971,14840,128,-8.721812811,-120932,22656,14691.40625,128
-3.527613107,-48912,-245037,-17.67246755,1.06978012,14833,128,-8.678756199,-120335,23296,14710.9375,128
-3.540378635,-49089,-245185,-17.68314155,1.052326685,14591,128,-8.698012674,-120602,23936,14730.46875,128
-3.508068145,-48641,-245252,-17.6879737,1.042950874,14461,128,-8.705585445,-120707,24576,14750,128
-3.48260921,-48288,-245390,-17.69792649,1.038479333,14399,128,-8.72087523,-120919,25216,14769.53125,128
-3.526603404,-48898,-245507,-17.70636472,1.18048682,16368,128,-8.717774,-120876,25856,14789.0625,128
-3.541244095,-49101,-245028,-17.67181846,1.108365191,15368,128,-8.672193131,-120244,26496,14808.59375,128
-3.514126362,-48725,-245181,-17.68285306,1.090406905,15119,128,-8.669813117,-120211,27136,14828.125,128
-3.510303916,-48672,-244927,-17.66453417,1.107499731,15356,128,-8.643272357,-119843,27776,14847.65625,128
-3.535979216,-49028,-245267,-17.68905552,1.088748108,15096,128,-8.701474512,-120650,28416,14867.1875,128
-4.1401421,-57405,-245793,-17.7269915,1.150412101,15951,128,-8.745973557,-121267,29056,14886.71875,128
-4.135886924,-57346,-245928,-17.73672792,1.151638168,15968,128,-8.756863923,-121418,29696,14906.25,128
-4.135886924,-57346,-245890,-17.7339873,1.18048682,16368,128,-8.757296652,-121424,30336,14925.78125,128
-4.431297115,-61442,-246142,-17.75216195,1.172409197,16256,128,-8.771432492,-121620,30976,14945.3125,128
-4.139925735,-57402,-245530,-17.70802351,1.179765604,16358,128,-8.75808999,-121435,31616,14964.84375,128
-2.950063103,-40904,-242581,-17.49533683,0.018391015,255,128,-8.462535556,-117337,32256,14984.375,128
-4.138050573,-57376,-248721,-17.93816363,0.885869966,12283,128,-8.722029176,-120935,32896,15003.90625,128
-4.209090377,-58361,-246673,-17.79045854,1.108870042,15375,128,-8.778211925,-121714,33536,15023.4375,128
-4.135814802,-57345,-245712,-17.72114965,1.181496523,16382,128,-8.752103895,-121352,34176,15042.96875,128
-3.533454959,-48993,-245573,-17.71112474,1.15394606,16000,128,-8.778933141,-121724,34816,15062.5,128
-3.536195581,-49031,-245609,-17.71372112,1.180558941,16369,128,-8.765734883,-121541,35456,15082.03125,128
-3.544922298,-49152,-245477,-17.70420107,1.177097103,16321,128,-8.754339666,-121383,36096,15101.5625,128
-3.510087551,-48669,-244949,-17.66612085,1.1734189,16270,128,-8.75275299,-121361,36736,15121.09375,128
-3.473377642,-48160,-244923,-17.66424568,1.153873939,15999,128,-8.745396584,-121259,37376,15140.625,128
-3.40644877,-47232,-244060,-17.60200472,1.03393567,14336,128,-8.713302459,-120814,38016,15160.15625,128
-3.544417446,-49145,-243372,-17.55238504,1.10786034,15361,128,-8.67882832,-120336,38656,15179.6875,128
-3.284707461,-45544,-243086,-17.53175825,1.106057299,15336,128,-8.660797913,-120086,39296,15199.21875,128
-3.485566197,-48329,-243471,-17.55952508,1.10786034,15361,128,-8.645003276,-119867,39936,15218.75,128
-3.432412557,-47592,-244136,-17.60748596,1.17695286,16319,128,-8.682506523,-120387,40576,15238.28125,128
-3.516722741,-48761,-245679,-17.71876964,1.107788218,15360,128,-8.785351966,-121813,41216,15257.8125,128
-4.147282141,-57504,-246117,-17.75035891,1.054346091,14619,128,-8.798405981,-121994,41856,15277.34375,128
-4.209595228,-58368,-246572,-17.78317425,1.073169836,14880,128,-8.83735166,-122534,42496,15296.875,128
-4.496855676,-62351,-246688,-17.79154036,1.051461226,14579,128,-8.849107486,-122697,43136,15316.40625,128
-4.207359458,-58337,-246754,-17.79630039,1.039633279,14415,128,-8.84752081,-122675,43776,15335.9375,128
-4.209595228,-58368,-246981,-17.812672,1.034224157,14340,128,-8.840380769,-122576,44416,15355.46875,128
-4.282942925,-59385,-247001,-17.81411443,1.035161738,14353,128,-8.842616539,-122607,45056,15375,128
-4.505293906,-62468,-246998,-17.81389806,1.052326685,14591,128,-8.832519511,-122467,45696,15394.53125,128
-4.523540678,-62721,-247041,-17.81699929,1.034152035,14339,128,-8.831509808,-122453,46336,15414.0625,128
-4.247603327,-58895,-247437,-17.84555946,0.581660936,8065,128,-8.860286338,-122852,46976,15433.59375,128
-4.43814867,-61537,-247267,-17.83329878,1.040859346,14432,128,-8.855742676,-122789,47616,15453.125,128
-4.137834208,-57373,-247357,-17.83978973,1.038479333,14399,128,-8.854444486,-122771,48256,15472.65625,128
-4.711633886,-65329,-247329,-17.83777032,0.588584612,8161,128,-8.845357161,-122645,48896,15492.1875,128
-4.468079146,-61952,-247801,-17.87181173,0.589882802,8179,128,-8.872186407,-123017,49536,15511.71875,128
-4.440672927,-61572,-247671,-17.86243592,0.568823286,7887,128,-8.877234921,-123087,50176,15531.25,128
-4.57806463,-63477,-247782,-17.87044142,1.042590266,14456,128,-8.856463892,-122799,50816,15550.78125,128
-4.282149587,-59374,-247542,-17.85313223,1.104398501,15313,128,-8.80987332,-122153,51456,15570.3125,128
-4.53731591,-62912,-247224,-17.83019755,1.103677285,15303,128,-8.792131399,-121907,52096,15589.84375,128
-4.255536706,-59005,-247631,-17.85955106,1.075694093,14915,128,-8.83735166,-122534,52736,15609.375,128
-4.358237905,-60429,-247939,-17.88176452,1.035955076,14364,128,-8.880119786,-123127,53376,15628.90625,128
-4.416223695,-61233,-248161,-17.89777552,0.590531896,8188,128,-8.906732667,-123496,54016,15648.4375,128
-4.431152872,-61440,-248412,-17.91587805,0.59024341,8184,128,-8.92764794,-123786,54656,15667.96875,128
-4.647229272,-64436,-248375,-17.91320955,0.563053556,7807,128,-8.931109778,-123834,55296,15687.5,128
-4.375763461,-60672,-248309,-17.90844952,0.507736267,7040,128,-8.941134684,-123973,55936,15707.03125,128
-3.471213993,-48130,-245042,-17.67282816,0.036854152,511,128,-8.753906936,-121377,56576,15726.5625,128
-4.563784547,-63279,-250993,-18.10202397,0.71999022,9983,128,-8.892164098,-123294,57216,15746.09375,128
-4.435696535,-61503,-248984,-17.95713162,0.516823592,7166,128,-8.955414767,-124171,57856,15765.625,128
-4.580084035,-63505,-248467,-17.91984474,0.582454274,8076,128,-8.925123683,-123751,58496,15785.15625,128
-4.315830388,-59841,-248356,-17.91183924,0.572357246,7936,128,-8.951520199,-124117,59136,15804.6875,128
-4.394370841,-60930,-248342,-17.91082953,0.556706853,7719,128,-8.928729764,-123801,59776,15824.21875,128
-4.616072728,-64004,-248355,-17.91176711,0.572862097,7943,128,-8.924835196,-123747,60416,15843.75,128
-4.374753758,-60658,-247954,-17.88284634,0.516967835,7168,128,-8.902982343,-123444,61056,15863.28125,128
-4.578857968,-63488,-247747,-17.86791716,0.522376957,7243,128,-8.906227816,-123489,61696,15882.8125,128
-4.181972645,-57985,-247441,-17.84584795,0.525550309,7287,128,-8.909256924,-123531,62336,15902.34375,128
-4.168197413,-57794,-246726,-17.79428098,1.10786034,15361,128,-8.853002054,-122751,62976,15921.875,128
-4.192213916,-58127,-246254,-17.76023957,1.112331881,15423,128,-8.820691564,-122303,63616,15941.40625,128
-4.144397276,-57464,-246120,-17.75057527,1.102667582,15289,128,-8.804536319,-122079,64256,15960.9375,128
-4.207575823,-58340,-247386,-17.84188126,1.061630376,14720,128,-8.84795354,-122681,64896,15980.46875,128
-4.313450374,-59808,-248216,-17.90174221,0.585050653,8112,128,-8.887692557,-123232,0,16000,128
-4.655955989,-64557,-249220,-17.97415232,0.459270532,6368,128,-8.968973633,-124359,640,16019.53125,128
-4.670668801,-64761,-249329,-17.98201358,0.443331652,6147,128,-8.982099769,-124541,1280,16039.0625,128
-4.722235766,-65476,-249766,-18.01353073,0.461434181,6398,128,-8.995658636,-124729,1920,16058.59375,128
-4.689708911,-65025,-249557,-17.99845731,0.452346856,6272,128,-9.002798677,-124828,2560,16078.125,128
-4.708172048,-65281,-249447,-17.99052393,0.448812896,6223,128,-9.004601718,-124853,3200,16097.65625,128
-4.726563063,-65536,-249621,-18.0030731,0.450543815,6247,128,-9.020684841,-125076,3840,16117.1875,128
-4.693387114,-65076,-249507,-17.99485123,0.444846206,6168,128,-9.005972028,-124872,4480,16136.71875,128
-4.725481239,-65521,-249352,-17.98367238,0.463525708,6427,128,-8.993134379,-124694,5120,16156.25,128
-4.428917101,-61409,-249221,-17.97422445,0.462660249,6415,128,-8.989600419,-124645,5760,16175.78125,128
-4.725481239,-65521,-249456,-17.99117303,0.443115287,6144,128,-9.012462975,-124962,6400,16195.3125,128
-4.696704709,-65122,-249414,-17.98814392,0.444197112,6159,128,-8.990610122,-124659,7040,16214.84375,128
-4.722380009,-65478,-249806,-18.0164156,0.589305829,8171,128,-9.013905408,-124982,7680,16234.375,128
-4.690790736,-65040,-249355,-17.98388874,0.447442585,6204,128,-9.001067758,-124804,8320,16253.90625,128
-4.431152872,-61440,-249319,-17.98129236,0.478022156,6628,128,-8.98433554,-124572,8960,16273.4375,128
-4.726563063,-65536,-249186,-17.97170019,0.461578424,6400,128,-8.96132874,-124253,9600,16292.96875,128
-4.680549464,-64898,-249098,-17.96535348,0.590315532,8185,128,-8.918200006,-123655,10240,16312.5,128
-4.725697604,-65524,-248971,-17.95619404,0.588656734,8162,128,-8.909617532,-123536,10880,16332.03125,128
-4.717692103,-65413,-248749,-17.94018304,0.563125677,7808,128,-8.923464885,-123728,11520,16351.5625,128
-4.709325994,-65297,-249387,-17.98619664,0.45119291,6256,128,-8.994721054,-124716,12160,16371.09375,128
-4.698363507,-65145,-249428,-17.98915362,0.44765895,6207,128,-9.002365947,-124822,12800,16390.625,128
-4.707018102,-65265,-249526,-17.99622154,0.445928031,6183,128,-9.007414461,-124892,13440,16410.15625,128
-4.722235766,-65476,-249661,-18.00595796,0.583896707,8096,128,-9.021766665,-125091,14080,16429.6875,128
-4.7086769,-65288,-249631,-18.00379431,0.588007639,8153,128,-9.022055152,-125095,14720,16449.21875,128
-4.168702265,-57801,-245044,-17.6729724,2.16E-04,3,128,-8.669019779,-120200,15360,16468.75,128
-4.565010615,-63296,-251710,-18.15373518,0.445351058,6175,128,-8.963925119,-124289,16000,16488.28125,128
-4.65379234,-64527,-249791,-18.01533377,0.571780273,7928,128,-9.014410259,-124989,16640,16507.8125,128
-4.724327293,-65505,-249519,-17.99571669,0.445351058,6175,128,-9.005467177,-124865,17280,16527.34375,128
-4.684876762,-64958,-249262,-17.97718143,0.590748261,8191,128,-9.01664603,-125020,17920,16546.875,128
-4.725553361,-65522,-249341,-17.98287904,0.590315532,8185,128,-9.022632125,-125103,18560,16566.40625,128
-4.430720142,-61434,-248826,-17.9457364,0.452346856,6272,128,-8.999192595,-124778,19200,16585.9375,128
-4.652782637,-64513,-248902,-17.95121765,0.447154098,6200,128,-8.999336839,-124780,19840,16605.46875,128
-4.611240579,-63937,-248785,-17.94277941,0.461362059,6397,128,-8.980513094,-124519,20480,16625,128
-4.364296122,-60513,-248001,-17.88623606,0.512352051,7104,128,-8.941495292,-123978,21120,16644.53125,128
-4.242122083,-58819,-247179,-17.82695208,0.590171288,8183,128,-8.912646641,-123578,21760,16664.0625,128
-4.435696535,-61503,-246719,-17.79377613,0.556706853,7719,128,-8.865118487,-122919,22400,16683.59375,128
-4.283375655,-59391,-247091,-17.82060538,0.589882802,8179,128,-8.872474894,-123021,23040,16703.125,128
-4.504428447,-62456,-247752,-17.86827777,0.518626633,7191,128,-8.909112681,-123529,23680,16722.65625,128
-4.356146378,-60400,-249112,-17.96636319,0.461362059,6397,128,-8.994288325,-124710,24320,16742.1875,128
-4.431152872,-61440,-249652,-18.00530887,0.590748261,8191,128,-9.039292221,-125334,24960,16761.71875,128
-4.726563063,-65536,-249912,-18.02406049,0.575242111,7976,128,-9.069006332,-125746,25600,16781.25,128
-4.724327293,-65505,-249804,-18.01627135,0.572429368,7937,128,-9.058981426,-125607,26240,16800.78125,128
-4.431585602,-61446,-249574,-17.99968338,0.589017342,8167,128,-9.056457169,-125572,26880,16820.3125,128
-4.654729921,-64540,-249916,-18.02434898,0.586637328,8134,128,-9.063813575,-125674,27520,16839.84375,128
-4.717331495,-65408,-249728,-18.01079011,0.571780273,7928,128,-9.068285116,-125736,28160,16859.375,128
-4.431152872,-61440,-249627,-18.00350583,0.59024341,8184,128,-9.068285116,-125736,28800,16878.90625,128
-4.445072346,-61633,-250002,-18.03055144,0.517039957,7169,128,-9.083791266,-125951,29440,16898.4375,128
-4.717692103,-65413,-249609,-18.00220764,0.588368248,8158,128,-9.066770562,-125715,30080,16917.96875,128
-4.708172048,-65281,-249609,-18.00220764,0.581588814,8064,128,-9.073910603,-125814,30720,16937.5,128
-4.721947279,-65472,-249721,-18.01028526,0.571780273,7928,128,-9.078742752,-125881,31360,16957.03125,128
-4.689781033,-65026,-249474,-17.99247122,0.516967835,7168,128,-9.062948115,-125662,32000,16976.5625,128
-4.725553361,-65522,-249910,-18.02391625,0.571996638,7931,128,-9.081339131,-125917,32640,16996.09375,128
-4.724327293,-65505,-249835,-18.01850713,0.517039957,7169,128,-9.060712345,-125631,33280,17015.625,128
-4.4129061,-61187,-249607,-18.00206339,0.59024341,8184,128,-9.013905408,-124982,33920,17035.15625,128
-4.708027805,-65279,-249739,-18.01158345,0.45919841,6367,128,-9.017872097,-125037,34560,17054.6875,128
-4.717764225,-65414,-249238,-17.97545051,0.558221407,7740,128,-8.960102673,-124236,35200,17074.21875,128
-4.718701806,-65427,-249511,-17.99513972,0.58670945,8135,128,-9.040374045,-125349,35840,17093.75,128
-4.440240197,-61566,-250086,-18.03660965,0.505067766,7003,128,-9.096412551,-126126,36480,17113.28125,128
-4.431441358,-61444,-250206,-18.04526425,0.47996944,6655,128,-9.088695537,-126019,37120,17132.8125,128
-4.440961413,-61576,-250024,-18.03213811,0.507231415,7033,128,-9.096484673,-126127,37760,17152.34375,128
-4.657614786,-64580,-250068,-18.03531146,0.512279929,7103,128,-9.090137969,-126039,38400,17171.875,128
-4.713220562,-65351,-249175,-17.97090685,0.59024341,8184,128,-9.04059041,-125352,39040,17191.40625,128
-3.535762851,-49025,-244865,-17.66006263,0.008582474,119,128,-8.745324462,-121258,39680,17210.9375,128
-4.432090453,-61453,-251720,-18.1544564,0.294256245,4080,128,-9.0445571,-125407,40320,17230.46875,128
-4.726563063,-65536,-249518,-17.99564457,0.551009244,7640,128,-9.05429352,-125542,40960,17250,128
-4.712715711,-65344,-249394,-17.98670149,0.521006646,7224,128,-9.061145075,-125637,41600,17269.53125,128
-4.689925276,-65028,-249380,-17.98569178,0.590748261,8191,128,-9.053932912,-125537,42240,17289.0625,128
-4.430720142,-61434,-249406,-17.98756695,0.582165787,8072,128,-9.047586208,-125449,42880,17308.59375,128
-4.671245774,-64769,-249097,-17.96528136,0.556129879,7711,128,-9.031430963,-125225,43520,17328.125,128
-4.402376342,-61041,-248930,-17.95323705,0.588728856,8163,128,-9.030565504,-125213,44160,17347.65625,128
-4.320446172,-59905,-248565,-17.92691266,0.590748261,8191,128,-9.022560003,-125102,44800,17367.1875,128
-4.58116586,-63520,-248095,-17.89301549,0.443115287,6144,128,-9.00294292,-124830,45440,17386.71875,128
-4.140286343,-57407,-247197,-17.82825027,0.563053556,7807,128,-8.945029252,-124027,46080,17406.25,128
-4.211830999,-58399,-246869,-17.80459437,0.589666437,8176,128,-8.91747879,-123645,46720,17425.78125,128
-4.455674226,-61780,-247304,-17.83596728,0.58317549,8086,128,-8.918416371,-123658,47360,17445.3125,128
-4.694324695,-65089,-248521,-17.9237393,0.451697761,6263,128,-8.986643432,-124604,48000,17464.84375,128
-4.371147677,-60608,-249277,-17.97826326,0.588512491,8160,128,-9.030781869,-125216,48640,17484.375,128
-4.723173347,-65489,-249682,-18.00747252,0.553894109,7680,128,-9.076939711,-125856,49280,17503.90625,128
-4.435768656,-61504,-250111,-18.03841269,0.507231415,7033,128,-9.093455564,-126085,49920,17523.4375,128
-4.431224994,-61441,-250154,-18.04151392,0.495908319,6876,128,-9.109033836,-126301,50560,17542.96875,128
-3.563385435,-49408,-250006,-18.03083992,0.516823592,7166,128,-9.110692633,-126324,51200,17562.5,128
-4.432883791,-61464,-250146,-18.04093695,0.502976239,6974,128,-9.1039132,-126230,51840,17582.03125,128
-4.450265104,-61705,-250121,-18.03913391,0.503048361,6975,128,-9.093744051,-126089,52480,17601.5625,128
-4.468079146,-61952,-250291,-18.05139459,0.489201008,6783,128,-9.102398646,-126209,53120,17621.09375,128
-4.449904495,-61700,-250164,-18.04223514,0.497927725,6904,128,-9.102903498,-126216,53760,17640.625,128
-4.433172278,-61468,-250044,-18.03358055,0.500740469,6943,128,-9.096051943,-126121,54400,17660.15625,128
-4.610591484,-63928,-250296,-18.0517552,0.515813889,7152,128,-9.11718358,-126414,55040,17679.6875,128
-3.611779047,-50079,-250527,-18.06841529,0.445351058,6175,128,-9.12605454,-126537,55680,17699.21875,128
-4.603018713,-63823,-250411,-18.06004918,0.515813889,7152,128,-9.117039337,-126412,56320,17718.75,128
-4.694036209,-65085,-250621,-18.07519473,0.446577125,6192,128,-9.140118258,-126732,56960,17738.28125,128
-4.439302616,-61553,-250205,-18.04519213,0.57430453,7963,128,-9.102182281,-126206,57600,17757.8125,128
-4.59710474,-63741,-250102,-18.0377636,0.582093666,8071,128,-9.074271211,-125819,58240,17777.34375,128
-4.414564897,-61210,-249690,-18.00804949,0.577910611,8013,128,-9.059846885,-125619,58880,17796.875,128
-4.724327293,-65505,-249705,-18.00913131,0.516607227,7163,128,-9.084223996,-125957,59520,17816.40625,128
-4.438004427,-61535,-250455,-18.06322254,0.45119291,6256,128,-9.151946205,-126896,60160,17835.9375,128
-4.468079146,-61952,-250127,-18.03956664,0.294256245,4080,128,-9.163485666,-127056,60800,17855.46875,128
-4.67990037,-64889,-250202,-18.04497576,0.29533807,4095,128,-9.161322017,-127026,61440,17875,128
-4.445000225,-61632,-250106,-18.03805209,0.291299259,4039,128,-9.165072342,-127078,62080,17894.53125,128
-3.563385435,-49408,-250093,-18.03711451,0.281418595,3902,128,-9.171851775,-127172,62720,17914.0625,128
-4.209595228,-58368,-245271,-17.68934401,0.018318894,254,128,-8.905939329,-123485,63360,17933.59375,128
-4.717403617,-65409,-250113,-18.03855694,0.145325082,2015,128,-9.058765061,-125604,64000,17953.125,128
-3.54679746,-49178,-251002,-18.10267307,0.443115287,6144,128,-9.142209785,-126761,64640,17972.65625,128
-4.724543658,-65508,-249736,-18.01136708,0.443475895,6149,128,-9.14639284,-126819,65280,17992.1875,128
-4.421993425,-61313,-249729,-18.01086223,0.447370463,6203,128,-9.134997622,-126661,384,18011.71875,128
-3.54903323,-49209,-249467,-17.99196637,0.452202612,6270,128,-9.134492771,-126654,1024,18031.25,128
-4.703772629,-65220,-249476,-17.99261546,0.448812896,6223,128,-9.132761852,-126630,1664,18050.78125,128
-3.561149664,-49377,-249006,-17.95871829,0.461217816,6395,128,-9.114875688,-126382,2304,18070.3125,128
-4.414420654,-61208,-248661,-17.93383633,0.500740469,6943,128,-9.093239199,-126082,2944,18089.84375,128
-4.615784242,-64000,-248320,-17.90924286,0.586204599,8128,128,-9.083142171,-125942,3584,18109.375,128
-4.278904114,-59329,-247617,-17.85854135,0.555625028,7704,128,-9.045783168,-125424,4224,18128.90625,128
-4.21010008,-58375,-246871,-17.80473862,0.586204599,8128,128,-9.01801634,-125039,4864,18148.4375,128
-4.275153789,-59277,-246798,-17.79947374,0.44369226,6152,128,-8.99097073,-124664,5504,18167.96875,128
-4.265273126,-59140,-247344,-17.83885215,0.454726869,6305,128,-8.998255014,-124765,6144,18187.5,128
-4.615351512,-63994,-248726,-17.93852424,0.517112078,7170,128,-9.085954915,-125981,6784,18207.03125,128
-4.72641882,-65534,-249518,-17.99564457,0.469511803,6510,128,-9.131607906,-126614,7424,18226.5625,128
-4.717692103,-65413,-249510,-17.9950676,0.445062571,6171,128,-9.151152867,-126885,8064,18246.09375,128
-4.707883562,-65277,-249522,-17.99593306,0.451697761,6263,128,-9.151585597,-126891,8704,18265.625,128
-4.410526086,-61154,-249538,-17.997087,0.294256245,4080,128,-9.162043233,-127036,9344,18285.15625,128
-4.70824417,-65282,-249634,-18.00401068,0.290866529,4033,128,-9.160240192,-127011,9984,18304.6875,128
-4.68963679,-65024,-249271,-17.97783053,0.463958438,6433,128,-9.135863082,-126673,10624,18324.21875,128
-3.655773241,-50689,-249369,-17.98489845,0.46273237,6416,128,-9.130742446,-126602,11264,18343.75,128
-4.656316597,-64562,-249266,-17.97746992,0.443331652,6147,128,-9.142498272,-126765,11904,18363.28125,128
-4.661653598,-64636,-249031,-17.96052134,0.499009549,6919,128,-9.125261202,-126526,12544,18382.8125,128
-4.653287489,-64520,-249166,-17.97025776,0.443115287,6144,128,-9.133410947,-126639,13184,18402.34375,128
-4.338909309,-60161,-248633,-17.93181693,0.512496294,7106,128,-9.105644119,-126254,13824,18421.875,128
-4.697137439,-65128,-248910,-17.95179462,0.444052868,6157,128,-9.124467865,-126515,14464,18441.40625,128
-4.347852391,-60285,-248698,-17.93650483,0.482060967,6684,128,-9.119635715,-126448,15104,18460.9375,128
-3.627501563,-50297,-249057,-17.9623965,0.498504698,6912,128,-9.11718358,-126414,15744,18480.46875,128
-4.719567265,-65439,-248989,-17.95749223,0.502327144,6965,128,-9.112351431,-126347,16384,18500,128
-4.690213763,-65032,-248903,-17.95128977,0.512352051,7104,128,-9.078742752,-125881,17024,18519.53125,128
-4.601936889,-63808,-248686,-17.93563937,0.574376652,7964,128,-9.056745655,-125576,17664,18539.0625,128
-3.618486359,-50172,-248644,-17.93261027,0.586204599,8128,128,-9.042032843,-125372,18304,18558.59375,128
-4.698868358,-65152,-248924,-17.95280432,0.507736267,7040,128,-9.100018632,-126176,18944,18578.125,128
-4.670740923,-64762,-249050,-17.96189165,0.461506303,6399,128,-9.128218189,-126567,19584,18597.65625,128
-4.430936507,-61437,-249454,-17.99102878,0.445495301,6177,128,-9.155047435,-126939,20224,18617.1875,128
-4.725481239,-65521,-249523,-17.99600518,0.294256245,4080,128,-9.165505071,-127084,20864,18636.71875,128
-4.717619981,-65412,-249607,-18.00206339,0.267354878,3707,128,-9.176611802,-127238,21504,18656.25,128
-4.680477343,-64897,-249094,-17.965065,0.526127282,7295,128,-9.142281907,-126762,22144,18675.78125,128
-3.534608905,-49009,-245173,-17.68227609,0.080848346,1121,128,-8.869373664,-122978,22784,18695.3125,128
-3.545499271,-49160,-251957,-18.17154922,0.313801207,4351,128,-9.086387645,-125987,23424,18714.84375,128
-4.434398345,-61485,-249902,-18.02333927,0.294328367,4081,128,-9.160961409,-127021,24064,18734.375,128
-4.72641882,-65534,-249266,-17.97746992,0.443187409,6145,128,-9.147258299,-126831,24704,18753.90625,128
-3.56230361,-49393,-249075,-17.96369469,0.450038964,6240,128,-9.140911596,-126743,25344,18773.4375,128
-4.361411257,-60473,-249017,-17.95951163,0.443764382,6153,128,-9.147835272,-126839,25984,18792.96875,128
-4.71711513,-65405,-248433,-17.9173926,0.515813889,7152,128,-9.115019931,-126384,26624,18812.5,128
-4.318354645,-59876,-248296,-17.90751194,0.454871113,6307,128,-9.127496973,-126557,27264,18832.03125,128
-4.398337531,-60985,-247866,-17.87649964,0.47996944,6655,128,-9.122376337,-126486,27904,18851.5625,128
-4.505077541,-62465,-247121,-17.82276902,0.589666437,8176,128,-9.075785765,-125840,28544,18871.09375,128
-4.136896627,-57360,-246414,-17.77177903,0.59024341,8184,128,-9.047514087,-125448,29184,18890.625,128
-3.542758649,-49122,-245730,-17.72244784,0.576612422,7995,128,-9.024218801,-125125,29824,18910.15625,128
-4.144974249,-57472,-245887,-17.73377093,0.589882802,8179,128,-9.016718151,-125021,30464,18929.6875,128
-4.275442275,-59281,-246962,-17.81130169,0.521223011,7227,128,-9.051985628,-125510,31104,18949.21875,128
-4.394082355,-60926,-248166,-17.89813613,0.443403774,6148,128,-9.125693932,-126532,31744,18968.75,128
-3.564034529,-49417,-248585,-17.92835509,0.294328367,4081,128,-9.160817165,-127019,32384,18988.28125,128
-4.653215367,-64519,-248921,-17.95258796,0.278173122,3857,128,-9.187285803,-127386,33024,19007.8125,128
-4.652999002,-64516,-248915,-17.95215523,0.286250745,3969,128,-9.183030627,-127327,33664,19027.34375,128
-4.431152872,-61440,-249039,-17.96109831,0.286106501,3967,128,-9.187790655,-127393,34304,19046.875,128
-4.427258304,-61386,-248796,-17.94357275,0.294688975,4086,128,-9.174592397,-127210,34944,19066.40625,128
-3.623462751,-50241,-248918,-17.95237159,0.290794407,4032,128,-9.183391235,-127332,35584,19085.9375,128
-4.718341198,-65422,-248622,-17.93102359,0.293102299,4064,128,-9.178126356,-127259,36224,19105.46875,128
-4.72598609,-65528,-248997,-17.9580692,0.259349377,3596,128,-9.192622804,-127460,36864,19125,128
-3.563385435,-49408,-249006,-17.95871829,0.29533807,4095,128,-9.193560385,-127473,37504,19144.53125,128
-4.430864385,-61436,-248828,-17.94588065,0.267715486,3712,128,-9.184689425,-127350,38144,19164.0625,128
-4.707595075,-65273,-249057,-17.9623965,0.258556039,3585,128,-9.191685223,-127447,38784,19183.59375,128
-3.554009623,-49278,-249330,-17.9820857,0.240020781,3328,128,-9.208922292,-127686,39424,19203.125,128
-4.717619981,-65412,-249219,-17.9740802,0.291299259,4039,128,-9.198897385,-127547,40064,19222.65625,128
-4.384922908,-60799,-249199,-17.97263777,0.258483918,3584,128,-9.191685223,-127447,40704,19242.1875,128
-3.577304909,-49601,-249282,-17.97862386,0.291010772,4035,128,-9.162187476,-127038,41344,19261.71875,128
-4.68920406,-65018,-249178,-17.97112322,0.452274734,6271,128,-9.148844975,-126853,41984,19281.25,128
-4.589892577,-63641,-248729,-17.9387406,0.44412499,6158,128,-9.130309717,-126596,42624,19300.78125,128
-4.652710516,-64512,-248815,-17.94494306,0.285457407,3958,128,-9.16766872,-127114,43264,19320.3125,128
-4.431152872,-61440,-249222,-17.97429657,0.227399496,3153,128,-9.216495063,-127791,43904,19339.84375,128
-3.573843071,-49553,-249267,-17.97754204,0.230789212,3200,128,-9.222336915,-127872,44544,19359.375,128
-4.659778435,-64610,-249290,-17.97920084,0.182828329,2535,128,-9.242026119,-128145,45184,19378.90625,128
-4.659778435,-64610,-249260,-17.97703719,0.182828329,2535,128,-9.259263189,-128384,45824,19398.4375,128
-4.726490942,-65535,-249203,-17.97292626,0.276947054,3840,128,-9.24779585,-128225,46464,19417.96875,128
70.89844595,983040,-249203,-17.97292626,0,0,128,-9.24779585,-128225,47104,19437.5,152
-3.627790049,-50301,-251399,-18.13130535,0.073708305,1022,128,-9.138459461,-126709,47744,19457.03125,128
-4.652710516,-64512,-249277,-17.97826326,0.223793414,3103,128,-9.216855671,-127796,48384,19476.5625,128
-4.726490942,-65535,-248840,-17.9467461,0.278101001,3856,128,-9.208778049,-127684,49024,19496.09375,128
-4.653864462,-64528,-248778,-17.94227456,0.276947054,3840,128,-9.220894482,-127852,49664,19515.625,128
-4.726563063,-65536,-248835,-17.9463855,0.220403698,3056,128,-9.225293902,-127913,50304,19535.15625,128
-4.585276793,-63577,-248521,-17.9237393,0.276658568,3836,128,-9.212744738,-127739,50944,19554.6875,128
-4.588666509,-63624,-248227,-17.90253555,0.258483918,3584,128,-9.193416142,-127471,51584,19574.21875,128
-4.653864462,-64528,-247709,-17.86517654,0.291876232,4047,128,-9.176323316,-127234,52224,19593.75,128
-4.50500542,-62464,-247264,-17.83308242,0.290433799,4027,128,-9.163125058,-127051,52864,19613.28125,128
-4.501543582,-62416,-246581,-17.78382335,0.470809993,6528,128,-9.137017028,-126689,53504,19632.8125,128
-4.435263805,-61497,-245905,-17.73506912,0.514732065,7137,128,-9.095330727,-126111,54144,19652.34375,128
-4.44038444,-61568,-245642,-17.71610114,0.57697303,8000,128,-9.074126968,-125817,54784,19671.875,128
-4.448534185,-61681,-246872,-17.80481074,0.44765895,6207,128,-9.137882488,-126701,55424,19691.40625,128
-4.440528684,-61570,-247832,-17.8740475,0.444197112,6159,128,-9.184400938,-127346,56064,19710.9375,128
-4.585853766,-63585,-248574,-17.92756175,0.214345481,2972,128,-9.243180066,-128161,56704,19730.46875,128
-4.71754786,-65411,-248705,-17.93700968,0.194872641,2702,128,-9.259118945,-128382,57344,19750,128
-4.664249976,-64672,-248776,-17.94213032,0.169630071,2352,128,-9.270225676,-128536,57984,19769.53125,128
-4.694252574,-65088,-249027,-17.96023285,0.158667583,2200,128,-9.289554273,-128804,58624,19789.0625,128
-4.722452131,-65479,-248781,-17.94249093,0.184054397,2552,128,-9.269648703,-128528,59264,19808.59375,128
-4.652782637,-64513,-248687,-17.9357115,0.229635266,3184,128,-9.262652905,-128431,59904,19828.125,128
-4.725553361,-65522,-248662,-17.93390845,0.214417602,2973,128,-9.277221474,-128633,60544,19847.65625,128
-4.643551069,-64385,-248879,-17.94955885,0.147705096,2048,128,-9.283423934,-128719,61184,19867.1875,128
-4.670668801,-64761,-248850,-17.94746732,0.167250057,2319,128,-9.28147665,-128692,61824,19886.71875,128
-4.597898078,-63752,-248959,-17.95532858,0.161480327,2239,128,-9.301887071,-128975,62464,19906.25,128
-4.653864462,-64528,-248840,-17.9467461,0.156864543,2175,128,-9.297487652,-128914,63104,19925.78125,128
-4.698579871,-65148,-248783,-17.94263517,0.14878692,2063,128,-9.302680409,-128986,63744,19945.3125,128
-4.713004197,-65348,-248879,-17.94955885,0.073275575,1016,128,-9.308810748,-129071,64384,19964.84375,128
-4.652782637,-64513,-248863,-17.9484049,0.059933074,831,128,-9.309387721,-129079,65024,19984.375,128
-4.638863163,-64320,-248526,-17.92409991,0.165807625,2299,128,-9.259191067,-128383,128,20003.90625,128
-4.615567877,-63997,-247992,-17.88558696,0.277956757,3854,128,-9.251906783,-128282,768,20023.4375,128
-4.597321105,-63744,-248163,-17.89791976,0.220475819,3057,128,-9.268855365,-128517,1408,20042.96875,128
-4.616721823,-64013,-248747,-17.94003879,0.166096111,2303,128,-9.318835654,-129210,2048,20062.5,128
-4.608572079,-63900,-248910,-17.95179462,0.037791733,524,128,-9.357420726,-129745,2688,20082.03125,128
-4.653864462,-64528,-249047,-17.96167528,0.012116434,168,128,-9.371845051,-129945,3328,20101.5625,128
-4.654008705,-64530,-248946,-17.954391,0.008293987,115,128,-9.373071119,-129962,3968,20121.09375,128
-4.723389712,-65492,-248782,-17.94256305,0.004038811,56,128,-9.363983794,-129836,4608,20140.625,128
-4.652710516,-64512,-246689,-17.79161248,0.145397204,2016,128,-9.291429435,-128830,5248,20160.15625,128
-3.527108255,-48905,-249499,-17.99427426,0.131044999,1817,128,-9.273687515,-128584,5888,20179.6875,128
-4.726563063,-65536,-249703,-18.00898707,0.064620979,896,128,-9.356050415,-129726,6528,20199.21875,128
-4.62278004,-64097,-248408,-17.91558956,0.034618382,480,128,-9.336938183,-129461,7168,20218.75,128
-4.690213763,-65032,-248476,-17.92049383,7.21E-05,1,128,-9.37444143,-129981,7808,20238.28125,128
-4.583257387,-63549,-248117,-17.89460217,0.022501948,312,128,-9.356771631,-129736,8448,20257.8125,128
-4.579507062,-63497,-247862,-17.87621115,0.032238368,447,128,-9.344078224,-129560,9088,20277.34375,128
-4.582391928,-63537,-247987,-17.88522636,0.034834747,483,128,-9.358358307,-129758,9728,20296.875,128
-4.578353116,-63481,-247343,-17.83878003,0.060365803,837,128,-9.328067223,-129338,10368,20316.40625,128
-4.539912288,-62948,-246681,-17.79103551,0.138185041,1916,128,-9.293016111,-128852,11008,20335.9375,128
-4.469233092,-61968,-245967,-17.73954067,0.230572847,3197,128,-9.259046824,-128381,11648,20355.46875,128
-3.530642215,-48954,-245319,-17.69280585,0.22271159,3088,128,-9.222697523,-127877,12288,20375,128
-3.544273203,-49143,-245314,-17.69244524,0.280697379,3892,128,-9.218730833,-127822,12928,20394.53125,128
-3.50828451,-48644,-245962,-17.73918006,0.240020781,3328,128,-9.22789028,-127949,13568,20414.0625,128
-4.560250587,-63230,-247034,-17.81649444,0.168404003,2335,128,-9.285731827,-128751,14208,20433.59375,128
-4.578857968,-63488,-247779,-17.87022506,0.039234166,544,128,-9.338020007,-129476,14848,20453.125,128
-4.6573263,-64576,-248518,-17.92352294,0.020698907,287,128,-9.376028106,-130003,15488,20472.65625,128
-4.707667197,-65274,-248413,-17.91595017,0.065774925,912,128,-9.392471837,-130231,16128,20492.1875,128
-4.724327293,-65505,-248325,-17.90960347,0.073708305,1022,128,-9.375451133,-129995,16768,20511.71875,128
-4.680477343,-64897,-248344,-17.91097378,0.004399419,61,128,-9.381220863,-130075,17408,20531.25,128
-4.671750626,-64776,-247974,-17.88428877,0.009159447,127,128,-9.370835348,-129931,18048,20550.78125,128
-4.653287489,-64520,-247944,-17.88212513,0.003461838,48,128,-9.3766772,-130012,18688,20570.3125,128
-4.601936889,-63808,-247942,-17.88198088,7.21E-05,1,128,-9.361315293,-129799,19328,20589.84375,128
-4.579795549,-63501,-247886,-17.87794207,0.001009703,14,128,-9.353021306,-129684,19968,20609.375,128
-4.601936889,-63808,-247878,-17.8773651,0.008077622,112,128,-9.356411023,-129731,20608,20628.90625,128
-4.611168457,-63936,-247969,-17.88392817,0.017958286,249,128,-9.362324996,-129813,21248,20648.4375,128
-4.578930089,-63489,-247874,-17.87707661,0.016155245,224,128,-9.363334699,-129827,21888,20667.96875,128
-4.613764836,-63972,-248145,-17.89662157,5.05E-04,7,128,-9.367157145,-129880,22528,20687.5,128
-4.582968901,-63545,-247721,-17.866042,0.037935977,526,128,-9.328211466,-129340,23168,20707.03125,128
-4.574891278,-63433,-247917,-17.88017784,0.028199557,391,128,-9.312561072,-129123,23808,20726.5625,128
-4.690862857,-65041,-247315,-17.83676062,0.160975475,2232,128,-9.293881571,-128864,24448,20746.09375,128
-4.431224994,-61441,-247188,-17.82760117,0.185785316,2576,128,-9.288833057,-128794,25088,20765.625,128
-4.667783936,-64721,-248021,-17.88767849,0.034041409,472,128,-9.359512253,-129774,25728,20785.15625,128
-4.579218576,-63493,-247751,-17.86820565,0.018318894,254,128,-9.357204361,-129742,26368,20804.6875,128
-4.582103441,-63533,-247966,-17.8837118,8.65E-04,12,128,-9.372133538,-129949,27008,20824.21875,128
-4.580011914,-63504,-248147,-17.89676582,0.036637787,508,128,-9.38461058,-130122,27648,20843.75,128
-4.597321105,-63744,-248000,-17.88616394,0.037070517,514,128,-9.384466336,-130120,28288,20863.28125,128
-3.536267702,-49032,-245384,-17.69749376,0,0,128,-9.277437839,-128636,28928,20882.8125,128
-3.512611808,-48704,-249111,-17.96629107,0.065702804,911,128,-9.257460148,-128359,29568,20902.34375,128
-4.653143245,-64518,-248934,-17.95352554,0.073852548,1024,128,-9.368888064,-129904,30208,20921.875,128
-4.725481239,-65521,-247741,-17.86748443,0.029930476,415,128,-9.359440131,-129773,30848,20941.40625,128
-4.565010615,-63296,-247279,-17.83416424,0.036854152,511,128,-9.343357008,-129550,31488,20960.9375,128
-4.707018102,-65265,-247409,-17.84354005,0.017525556,243,128,-9.359368009,-129772,32128,20980.46875,128
-4.574314305,-63425,-247241,-17.83142362,0.057408817,796,128,-9.34342913,-129551,32768,21000,128
-4.449688131,-61697,-246629,-17.78728518,0.073203453,1015,128,-9.32929329,-129355,33408,21019.53125,128
-4.438220792,-61538,-246385,-17.76968751,0.068659791,952,128,-9.315878667,-129169,34048,21039.0625,128
-4.431729845,-61448,-245989,-17.74112734,0.223216441,3095,128,-9.289914881,-128809,34688,21058.59375,128
-3.472007331,-48141,-244924,-17.66431781,0.262450607,3639,128,-9.242386728,-128150,35328,21078.125,128
-3.509726943,-48664,-244279,-17.61779936,0.222134617,3080,128,-9.21014836,-127703,35968,21097.65625,128
-3.525305215,-48880,-243933,-17.59284527,0.221774008,3075,128,-9.188944601,-127409,36608,21117.1875,128
-3.411569406,-47303,-244537,-17.63640674,0.280913744,3895,128,-9.215845968,-127782,37248,21136.71875,128
-4.431224994,-61441,-246219,-17.75771532,0.14878692,2063,128,-9.300877369,-128961,37888,21156.25,128
-4.449688131,-61697,-246658,-17.78937671,0.033175949,460,128,-9.335639994,-129443,38528,21175.78125,128
-4.506159366,-62480,-246927,-17.80877743,0,0,128,-9.360089226,-129782,39168,21195.3125,128
-4.655234773,-64547,-247088,-17.82038901,0.020266178,281,128,-9.364344402,-129841,39808,21214.84375,128
-4.449616009,-61696,-247022,-17.81562898,0.010241271,142,128,-9.365714713,-129860,40448,21234.375,128
-4.653287489,-64520,-247188,-17.82760117,0.008293987,115,128,-9.377759025,-130027,41088,21253.90625,128
-4.541715329,-62973,-246887,-17.80589256,0.082146535,1139,128,-9.348838252,-129626,41728,21273.4375,128
-4.654946286,-64543,-247054,-17.81793688,0.019833448,275,128,-9.36470501,-129846,42368,21292.96875,128
-4.557005114,-63185,-246689,-17.79161248,0.083084116,1152,128,-9.3456649,-129582,43008,21312.5,128
-4.435696535,-61503,-246738,-17.79514644,0.044354802,615,128,-9.347972792,-129614,43648,21332.03125,128
-4.449471766,-61694,-246587,-17.78425607,0.035051112,486,128,-9.34256367,-129539,44288,21351.5625,128
-4.468079146,-61952,-246733,-17.79478583,0.028848652,400,128,-9.357060117,-129740,44928,21371.09375,128
-4.543951099,-63004,-246933,-17.80921016,0.0230068,319,128,-9.364416524,-129842,45568,21390.625,128
-4.432306818,-61456,-246896,-17.80654166,0.074357399,1031,128,-9.351218265,-129659,46208,21410.15625,128
-4.650979596,-64488,-246749,-17.79593978,0.073780426,1023,128,-9.31155137,-129109,46848,21429.6875,128
-4.210244323,-58377,-246306,-17.7639899,0.223504928,3099,128,-9.26020077,-128397,47488,21449.21875,128
-4.594941091,-63711,-245881,-17.73333821,0.221485522,3071,128,-9.242963701,-128158,48128,21468.75,128
-4.582680414,-63541,-246205,-17.75670561,0.156431813,2169,128,-9.290419732,-128816,48768,21488.28125,128
-4.491158067,-62272,-246576,-17.78346274,0.009015204,125,128,-9.343140643,-129547,49408,21507.8125,128
-4.487840472,-62226,-246767,-17.79723797,5.05E-04,7,128,-9.373287484,-129965,50048,21527.34375,128
-4.653575975,-64524,-246860,-17.80394528,4.33E-04,6,128,-9.378840849,-130042,50688,21546.875,128
-4.726563063,-65536,-246941,-17.80978713,0.070318588,975,128,-9.384033607,-130114,51328,21566.40625,128
-4.500461757,-62401,-246420,-17.77221176,0.138401406,1919,128,-9.353742522,-129694,51968,21585.9375,128
-3.535690729,-49024,-242196,-17.46757,0.007140041,99,128,-9.055735952,-125562,52608,21605.46875,128
-4.560394831,-63232,-249323,-17.98158085,0.293174421,4065,128,-9.266258987,-128481,53248,21625,128
-4.5466196,-63041,-246824,-17.8013489,0.080631981,1118,128,-9.334630291,-129429,53888,21644.53125,128
-4.653287489,-64520,-246821,-17.80113254,0.036205058,502,128,-9.350929779,-129655,54528,21664.0625,128
-4.194666051,-58161,-246646,-17.78851125,0.076304683,1058,128,-9.344510954,-129566,55168,21683.59375,128
-4.468367632,-61956,-246507,-17.77848634,0.01817465,252,128,-9.342058819,-129532,55808,21703.125,128
-4.45055359,-61709,-246537,-17.78064999,0.034834747,483,128,-9.344438832,-129565,56448,21722.65625,128
-4.687473141,-64994,-246094,-17.74870011,0.071616777,993,128,-9.322946587,-129267,57088,21742.1875,128
-3.538359229,-49061,-245622,-17.7146587,0.223793414,3103,128,-9.299434936,-128941,57728,21761.71875,128
-3.489532887,-48384,-244846,-17.65869232,0.239732294,3324,128,-9.260705621,-128404,58368,21781.25,128
-3.466309722,-48062,-244100,-17.60488958,0.281562839,3904,128,-9.232145456,-128008,59008,21800.78125,128
-3.544417446,-49145,-243666,-17.5735888,0.224298265,3110,128,-9.200700426,-127572,59648,21820.3125,128
-3.544922298,-49152,-243728,-17.57806034,0.291659867,4044,128,-9.184977911,-127354,60288,21839.84375,128
-3.487874089,-48361,-245129,-17.67910274,0.173668882,2408,128,-9.242458849,-128151,60928,21859.375,128
-3.544850176,-49151,-246218,-17.75764319,0.150301474,2084,128,-9.304988301,-129018,61568,21878.90625,128
-4.722019401,-65473,-246552,-17.78173182,0.047167545,654,128,-9.332106034,-129394,62208,21898.4375,128
-4.491085945,-62271,-247004,-17.81433079,0.040604477,563,128,-9.360449834,-129787,62848,21917.96875,128
-4.723966685,-65500,-247087,-17.82031689,7.21E-05,1,128,-9.371917173,-129946,63488,21937.5,128
-4.431657723,-61447,-246897,-17.80661378,0.036854152,511,128,-9.33989517,-129502,64128,21957.03125,128
-4.654946286,-64543,-247128,-17.82327388,0.01817465,252,128,-9.35230009,-129674,64768,21976.5625,128
-4.504500568,-62457,-246682,-17.79110763,0.059933074,831,128,-9.333187858,-129409,65408,21996.09375,128
-4.505366028,-62469,-246882,-17.80553196,0.041542058,576,128,-9.341121237,-129519,512,22015.625,128
-4.653864462,-64528,-246959,-17.81108532,0.055389411,768,128,-9.322153249,-129256,1152,22035.15625,128
-4.467934903,-61950,-246804,-17.79990647,0.071472534,991,128,-9.336938183,-129461,1792,22054.6875,128
-4.661437233,-64633,-246889,-17.80603681,0.035700206,495,128,-9.345881265,-129585,2432,22074.21875,128
-4.447812968,-61671,-246851,-17.80329618,0.064909466,900,128,-9.334413926,-129426,3072,22093.75,128
-4.689708911,-65025,-246610,-17.78591487,0.110850943,1537,128,-9.334269683,-129424,3712,22113.28125,128
-4.652205664,-64505,-246746,-17.79572341,0.064620979,896,128,-9.342347305,-129536,4352,22132.8125,128
-4.434686832,-61489,-246604,-17.78548214,0.155782718,2160,128,-9.288616692,-128791,4992,22152.34375,128
-4.588161658,-63617,-246177,-17.75468621,0.258483918,3584,128,-9.26243654,-128428,5632,22171.875,128
-4.431657723,-61447,-245711,-17.72107753,0.293102299,4064,128,-9.221904185,-127866,6272,22191.40625,128
-4.431657723,-61447,-246287,-17.76261959,0.152176637,2110,128,-9.296766436,-128904,6912,22210.9375,128
-4.449111158,-61689,-246504,-17.77826998,0.017669799,245,128,-9.324533263,-129289,7552,22230.46875,128
-4.468367632,-61956,-246494,-17.77754876,0.071256169,988,128,-9.333909075,-129419,8192,22250,128
-4.608860565,-63904,-246509,-17.77863059,0.036637787,508,128,-9.329004804,-129351,8832,22269.53125,128
-4.724832144,-65512,-246546,-17.78129909,0.036998396,513,128,-9.339967291,-129503,9472,22289.0625,128
-3.543191378,-49128,-245222,-17.68581005,0.021924975,304,128,-9.278736029,-128654,10112,22308.59375,128
-3.527540985,-48911,-244057,-17.60178835,0.581588814,8064,128,-9.103191984,-126220,10752,22328.125,128
-4.584627698,-63568,-248288,-17.90693497,0.166023989,2302,128,-9.274985704,-128602,11392,22347.65625,128
-4.495196878,-62328,-245974,-17.74004552,0.221557644,3072,128,-9.290996705,-128824,12032,22367.1875,128
-4.588089536,-63616,-246142,-17.75216195,0.150012988,2080,128,-9.302536166,-128984,12672,22386.71875,128
-3.543191378,-49128,-245864,-17.73211214,0.221557644,3072,128,-9.290996705,-128824,13312,22406.25,128
-3.535834972,-49026,-245484,-17.70470592,0.223288563,3096,128,-9.290059124,-128811,13952,22425.78125,128
-3.50914997,-48656,-245264,-17.68883916,0.221701887,3074,128,-9.285371218,-128746,14592,22445.3125,128
-3.544705933,-49149,-244822,-17.6569614,0.237712888,3296,128,-9.272028717,-128561,15232,22464.84375,128
-3.510087551,-48669,-244374,-17.62465091,0.258988769,3591,128,-9.256450445,-128345,15872,22484.375,128
-3.40731423,-47244,-243362,-17.55166382,0.29533807,4095,128,-9.2119514,-127728,16512,22503.90625,128
-3.484051643,-48308,-242872,-17.51632422,0.276802811,3838,128,-9.178631208,-127266,17152,22523.4375,128
-3.527540985,-48911,-242502,-17.48963922,0.518554511,7190,128,-9.140623109,-126739,17792,22542.96875,128
-3.51181847,-48693,-242869,-17.51610786,0.452274734,6271,128,-9.150720137,-126879,18432,22562.5,128
-3.399308729,-47133,-243902,-17.5906095,0.262522729,3640,128,-9.191685223,-127447,19072,22582.03125,128
-3.503524483,-48578,-245240,-17.68710824,0.182251356,2527,128,-9.282702718,-128709,19712,22601.5625,128
-3.535762851,-49025,-245509,-17.70650896,0.147705096,2048,128,-9.294963395,-128879,20352,22621.09375,128
-3.537565891,-49050,-245520,-17.7073023,0.154845137,2147,128,-9.311839856,-129113,20992,22640.625,128
-3.526747647,-48900,-245572,-17.71105262,0.073780426,1023,128,-9.318763532,-129209,21632,22660.15625,128
-3.535690729,-49024,-245467,-17.70347985,0.073780426,1023,128,-9.321864763,-129252,22272,22679.6875,128
-3.544850176,-49151,-245607,-17.71357688,0.112437619,1559,128,-9.326841155,-129321,22912,22699.21875,128
-3.523934904,-48861,-245211,-17.68501671,0.125131026,1735,128,-9.312488951,-129122,23552,22718.75,128
-3.510376037,-48673,-245294,-17.69100281,0.06685675,927,128,-9.313642897,-129138,24192,22738.28125,128
-3.503452361,-48577,-245074,-17.67513605,0.072987088,1012,128,-9.307440437,-129052,24832,22757.8125,128
-3.516722741,-48761,-245457,-17.70275863,0.036926274,512,128,-9.33015875,-129367,25472,22777.34375,128
-3.544633811,-49148,-245236,-17.68681975,0.073275575,1016,128,-9.324316898,-129286,26112,22796.875,128
-3.543840473,-49137,-245823,-17.72915515,0.045003896,624,128,-9.330807844,-129376,26752,22816.40625,128
-4.580084035,-63505,-246097,-17.74891648,0.006995798,97,128,-9.344150346,-129561,27392,22835.9375,128
-3.540811365,-49095,-245573,-17.71112474,0.056615479,785,128,-9.322081127,-129255,28032,22855.46875,128
-3.510376037,-48673,-245479,-17.70434531,0.164220949,2277,128,-9.288905178,-128795,28672,22875,128
-3.510376037,-48673,-245281,-17.69006523,0.207782413,2881,128,-9.262364419,-128427,29312,22894.53125,128
-3.489532887,-48384,-244727,-17.65010985,0.212830927,2951,128,-9.228539375,-127958,29952,22914.0625,128
-3.475685534,-48192,-244796,-17.65508624,0.186362289,2584,128,-9.257964999,-128366,30592,22933.59375,128
-3.544850176,-49151,-245437,-17.7013162,0.036349301,504,128,-9.33549575,-129441,31232,22953.125,128
-3.541171973,-49100,-245324,-17.69316646,0.059933074,831,128,-9.338380616,-129481,31872,22972.65625,128
-3.527396742,-48909,-245453,-17.70247015,0.002452135,34,128,-9.358286185,-129757,32512,22992.1875,128
-3.528262201,-48921,-245017,-17.67102512,0.056471235,783,128,-9.336938183,-129461,33152,23011.71875,128
-3.528911296,-48930,-243699,-17.57596881,0.110778822,1536,128,-9.31378714,-129140,33792,23031.25,128
-3.104114903,-43040,-239638,-17.28308288,0.589882802,8179,128,-9.015636327,-125006,34432,23050.78125,128
-4.523035827,-62714,-247292,-17.83510182,0.017814042,247,128,-9.250752837,-128266,35072,23070.3125,128
-3.522203985,-48837,-244922,-17.66417356,0.09253205,1283,128,-9.324316898,-129286,35712,23089.84375,128
-3.47287279,-48153,-244794,-17.65494199,0.036782031,510,128,-9.343645494,-129554,36352,23109.375,128
-3.397794175,-47112,-244366,-17.62407394,0.076088318,1055,128,-9.350497049,-129649,36992,23128.90625,128
-3.434143476,-47616,-244092,-17.60431261,0.07349194,1019,128,-9.316167154,-129173,37632,23148.4375,128
-3.469987925,-48113,-243928,-17.59248466,0.068371304,948,128,-9.322297492,-129258,38272,23167.96875,128
-3.433638624,-47609,-244028,-17.59969683,0.073564061,1020,128,-9.329365412,-129356,38912,23187.5,128
-3.26343158,-45249,-243401,-17.55447657,0.230789212,3200,128,-9.293737327,-128862,39552,23207.03125,128
-3.482392845,-48285,-242534,-17.49194711,0.221557644,3072,128,-9.26286927,-128434,40192,23226.5625,128
-3.249584228,-45057,-242179,-17.46634394,0.294833218,4088,128,-9.247723728,-128224,40832,23246.09375,128
-3.094883334,-42912,-241577,-17.42292671,0.230500726,3196,128,-9.201926494,-127589,41472,23265.625,128
-3.397505688,-47108,-241987,-17.45249658,0.239588051,3322,128,-9.219307806,-127830,42112,23285.15625,128
-3.526603404,-48898,-243449,-17.5579384,0.147993582,2052,128,-9.291357314,-128829,42752,23304.6875,128
-3.508068145,-48641,-244299,-17.61924179,0.009159447,127,128,-9.33325998,-129410,43392,23324.21875,128
-3.512611808,-48704,-244526,-17.6356134,0,0,128,-9.381869958,-130084,44032,23343.75,128
-3.544922298,-49152,-244454,-17.63042064,0.071544656,992,128,-9.385908769,-130140,44672,23363.28125,128
-3.468833979,-48097,-244674,-17.6462874,0.073203453,1015,128,-9.403001595,-130377,45312,23382.8125,128
-3.472223696,-48144,-244461,-17.63092549,0.020771029,288,128,-9.408771325,-130457,45952,23402.34375,128
-3.544922298,-49152,-244332,-17.6216218,0.071761021,995,128,-9.401559162,-130357,46592,23421.875,128
-3.540595,-49092,-244300,-17.61931391,0.073275575,1016,128,-9.396943378,-130293,47232,23441.40625,128
-3.544633811,-49148,-244316,-17.62046786,0.051855451,719,128,-9.40588646,-130417,47872,23460.9375,128
-3.405439068,-47218,-243991,-17.59702833,0.054235465,752,128,-9.408699204,-130456,48512,23480.46875,128
-3.41575246,-47361,-244049,-17.60121138,0.018318894,254,128,-9.417786529,-130582,49152,23500,128
-3.406376649,-47231,-244059,-17.6019326,0.036637787,508,128,-9.42225807,-130644,49792,23519.53125,128
-3.541460459,-49104,-243934,-17.59291739,0.017309191,240,128,-9.420815637,-130624,50432,23539.0625,128
-3.531147066,-48961,-244033,-17.60005744,0,0,128,-9.436321787,-130839,51072,23558.59375,128
-3.402049351,-47171,-244102,-17.60503383,0.00223577,31,128,-9.429614476,-130746,51712,23578.125,128
-3.474315223,-48173,-243757,-17.58015187,0.071616777,993,128,-9.381220863,-130075,52352,23597.65625,128
-3.397289323,-47105,-243882,-17.58916707,0.001226068,17,128,-9.399467635,-130328,52992,23617.1875,128
-3.519030633,-48793,-243353,-17.55101473,0.018030407,250,128,-9.365281983,-129854,53632,23636.71875,128
-3.544850176,-49151,-243892,-17.58988829,0.037070517,514,128,-9.425287178,-130686,54272,23656.25,128
-3.41394942,-47336,-243846,-17.58657069,1.160797615,16095,128,-9.478657183,-131426,54912,23675.78125,128
-3.414093663,-47338,-244140,-17.60777445,1.175943157,16305,128,-9.478152332,-131419,55552,23695.3125,128
-3.415536096,-47358,-244082,-17.60359139,1.172769806,16261,128,-9.490629374,-131592,56192,23714.84375,128
-3.400606918,-47151,-244393,-17.62602122,1.106634272,15344,128,-9.527699891,-132106,56832,23734.375,128
-3.527396742,-48909,-242860,-17.51545876,1.122789517,15568,128,-9.478729305,-131427,57472,23753.90625,128
-3.104475511,-43045,-240046,-17.3125085,0.276947054,3840,128,-9.169111153,-127134,58112,23773.4375,128
-4.653936583,-64529,-245914,-17.73571822,1.155027885,16015,128,-9.529575053,-132132,58752,23792.96875,128
-4.615784242,-64000,-244192,-17.61152477,1.130795018,15679,128,-9.499716699,-131718,59392,23812.5,128
-3.507491172,-48633,-244139,-17.60770233,1.179404995,16353,128,-9.514645876,-131925,60032,23832.03125,128
-3.397289323,-47105,-243730,-17.57820458,1.163177629,16128,128,-9.507361592,-131824,60672,23851.5625,128
-3.535690729,-49024,-243544,-17.56478996,1.18048682,16368,128,-9.474762616,-131372,61312,23871.09375,128
-3.53749377,-49049,-243470,-17.55945296,1.173274657,16268,128,-9.4847154,-131510,61952,23890.625,128
-3.5432635,-49129,-243081,-17.53139764,1.181496523,16382,128,-9.478657183,-131426,62592,23910.15625,128
-3.255065472,-45133,-242773,-17.50918418,1.181568644,16383,128,-9.463728006,-131219,63232,23929.6875,128
-3.539801662,-49081,-242099,-17.4605742,5.05E-04,7,128,-9.407617379,-130441,63872,23949.21875,128
-3.249656349,-45058,-241488,-17.41650789,7.21E-05,1,128,-9.373936579,-129974,64512,23968.75,128
-3.248430282,-45041,-241521,-17.4188879,0.013847353,192,128,-9.369609281,-129914,65152,23988.28125,128
-3.414670636,-47346,-241848,-17.44247168,0.001153946,16,128,-9.354824347,-129709,256,24007.8125,128
-3.544922298,-49152,-242875,-17.51654059,0.004760027,66,128,-9.448366099,-131006,896,24027.34375,128
-3.396135377,-47089,-243671,-17.57394941,1.144137519,15864,128,-9.491639077,-131606,1536,24046.875,128
-3.397289323,-47105,-244075,-17.60308654,1.107643975,15358,128,-9.536787216,-132232,2176,24066.40625,128
-3.452606613,-47872,-244476,-17.63200732,1.047783023,14528,128,-9.553519434,-132464,2816,24085.9375,128
-3.413660933,-47332,-244666,-17.64571043,1.03393567,14336,128,-9.566501327,-132644,3456,24105.46875,128
-3.544922298,-49152,-244715,-17.64924439,1.052254564,14590,128,-9.590012978,-132970,4096,24125,128
-3.412218501,-47312,-244429,-17.6286176,1.071727404,14860,128,-9.563327976,-132600,4736,24144.53125,128
-3.399020243,-47129,-244507,-17.63424309,1.089180838,15102,128,-9.550201839,-132418,5376,24164.0625,128
-3.471141871,-48129,-244809,-17.65602382,1.167721292,16191,128,-9.611865832,-133273,6016,24183.59375,128
-4.607057525,-63879,-244902,-17.66273113,1.040859346,14432,128,-9.612370683,-133280,6656,24203.125,128
-3.544705933,-49149,-244713,-17.64910014,1.038118725,14394,128,-9.578185031,-132806,7296,24222.65625,128
-3.543840473,-49137,-244862,-17.65984627,1.170101305,16224,128,-9.603788209,-133161,7936,24242.1875,128
-3.526459161,-48896,-244990,-17.66907783,1.170029184,16223,128,-9.612587048,-133283,8576,24261.71875,128
-3.509077848,-48655,-244907,-17.66309174,1.167721292,16191,128,-9.59715302,-133069,9216,24281.25,128
-3.516722741,-48761,-244860,-17.65970202,1.044249063,14479,128,-9.572415301,-132726,9856,24300.78125,128
-3.539296811,-49074,-244658,-17.64513345,1.103388799,15299,128,-9.534839932,-132205,10496,24320.3125,128
-3.542614405,-49120,-244576,-17.63921948,1.103605164,15302,128,-9.529575053,-132132,11136,24339.84375,128
-3.473161277,-48157,-244765,-17.65285047,1.038262968,14396,128,-9.578545639,-132811,11776,24359.375,128
-3.543768352,-49136,-245098,-17.67686697,1.144714492,15872,128,-9.657230336,-133902,12416,24378.90625,128
-3.543840473,-49137,-245174,-17.68234821,1.164331575,16144,128,-9.647998768,-133774,13056,24398.4375,128
-3.528262201,-48921,-245514,-17.70686957,1.106634272,15344,128,-9.697618448,-134462,13696,24417.96875,128
-4.718918171,-65430,-245398,-17.69850346,1.107716096,15359,128,-9.686511718,-134308,14336,24437.5,128
-4.708388413,-65284,-245540,-17.70874473,1.055932767,14641,128,-9.727548924,-134877,14976,24457.03125,128
-3.404501486,-47205,-241894,-17.44578927,0.069597372,965,128,-9.392183351,-130227,15616,24476.5625,128
-4.726130334,-65530,-247764,-17.86914323,0.900077927,12480,128,-9.697402084,-134459,16256,24496.09375,128
-4.718557563,-65425,-245652,-17.71682235,1.177241347,16323,128,-9.702234233,-134526,16896,24515.625,128
-3.528694931,-48927,-245563,-17.71040353,1.149330276,15936,128,-9.696608746,-134448,17536,24535.15625,128
-4.726563063,-65536,-245233,-17.68660339,1.108004583,15363,128,-9.691992961,-134384,18176,24554.6875,128
-3.509222091,-48657,-245332,-17.69374343,1.103749407,15304,128,-9.706417287,-134584,18816,24574.21875,128
-3.53749377,-49049,-245402,-17.69879194,1.07778562,14944,128,-9.704037273,-134551,19456,24593.75,128
-4.708749021,-65289,-245017,-17.67102512,1.177024982,16320,128,-9.679011068,-134204,20096,24613.28125,128
-4.652782637,-64513,-244831,-17.65761049,1.172914049,16263,128,-9.663288553,-133986,20736,24632.8125,128
-3.537998621,-49056,-244506,-17.63417097,1.114351286,15451,128,-9.649657565,-133797,21376,24652.34375,128
-3.471358236,-48132,-244100,-17.60488958,1.178251049,16337,128,-9.622251346,-133417,22016,24671.875,128
-3.544850176,-49151,-243542,-17.56464572,1.043383603,14467,128,-9.587921451,-132941,22656,24691.40625,128
-3.473377642,-48160,-243744,-17.57921428,1.034512643,14344,128,-9.581791113,-132856,23296,24710.9375,128
-3.527036134,-48904,-244598,-17.64080616,1.163177629,16128,128,-9.64987393,-133800,23936,24730.46875,128
-4.707667197,-65274,-245484,-17.70470592,1.068554052,14816,128,-9.718317356,-134749,24576,24750,128
-3.544994419,-49153,-245998,-17.74177644,1.16368248,16135,128,-9.766566726,-135418,25216,24769.53125,128
-4.432306818,-61456,-245920,-17.73615095,1.180558941,16369,128,-9.767937037,-135437,25856,24789.0625,128
-4.712859954,-65346,-246102,-17.74927708,1.163754602,16136,128,-9.783659552,-135655,26496,24808.59375,128
-3.546725338,-49177,-246009,-17.74256977,1.177457711,16326,128,-9.789068674,-135730,27136,24828.125,128
-4.724327293,-65505,-246178,-17.75475833,1.181352279,16380,128,-9.785751079,-135684,27776,24847.65625,128
-4.209595228,-58368,-246489,-17.77718816,1.162744899,16122,128,-9.8061615,-135967,28416,24867.1875,128
-4.717259373,-65407,-246127,-17.75108013,1.174644968,16287,128,-9.793035363,-135785,29056,24886.71875,128
-3.580694625,-49648,-246249,-17.75987896,1.181063793,16376,128,-9.792746877,-135781,29696,24906.25,128
-4.64405592,-64392,-246326,-17.76543233,1.146950262,15903,128,-9.818710663,-136141,30336,24925.78125,128
-4.717475738,-65410,-246152,-17.75288317,1.164259453,16143,128,-9.802843905,-135921,30976,24945.3125,128
-4.580661008,-63513,-245849,-17.73103031,1.18048682,16368,128,-9.782866214,-135644,31616,24964.84375,128
-4.58116586,-63520,-246336,-17.76615355,1.106490029,15342,128,-9.82830284,-136274,32256,24984.375,128
-4.432955913,-61465,-245841,-17.73045334,1.170245549,16226,128,-9.761950941,-135354,32896,25003.90625,128
-4.72021636,-65448,-245544,-17.70903322,1.05074001,14569,128,-9.734039871,-134967,33536,25023.4375,128
-4.724327293,-65505,-245371,-17.69655617,1.04057086,14428,128,-9.725024667,-134842,34176,25042.96875,128
-3.542902892,-49124,-245092,-17.67643424,1.038190846,14395,128,-9.735121695,-134982,34816,25062.5,128
-3.526603404,-48898,-245516,-17.70701381,1.180414698,16367,128,-9.802916026,-135922,35456,25082.03125,128
-3.541748946,-49108,-245459,-17.70290288,1.098268163,15228,128,-9.831908921,-136324,36096,25101.5625,128
-3.540306513,-49088,-245667,-17.71790418,1.069563755,14830,128,-9.860613329,-136722,36736,25121.09375,128
-4.449616009,-61696,-245996,-17.74163219,1.059899456,14696,128,-9.872441277,-136886,37376,25140.625,128
-4.726563063,-65536,-245662,-17.71754357,1.112404002,15424,128,-9.861839397,-136739,38016,25160.15625,128
-4.597393226,-63745,-242100,-17.46064633,1.777004811,24639,128,-9.617779805,-133355,38656,25179.6875,128
-3.526531282,-48897,-245538,-17.70860049,0.89712094,12439,128,-9.735482304,-134987,39296,25199.21875,128
-4.652999002,-64516,-246792,-17.79904101,1.089325081,15104,128,-9.85888241,-136698,39936,25218.75,128
-4.721514549,-65466,-245676,-17.71855327,1.093003284,15155,128,-9.855348451,-136649,40576,25238.28125,128
-4.725481239,-65521,-245442,-17.70167681,1.146950262,15903,128,-9.848857504,-136559,41216,25257.8125,128
-4.667711814,-64720,-245131,-17.67924698,1.176448009,16312,128,-9.838399868,-136414,41856,25277.34375,128
-3.472944912,-48154,-245010,-17.67052027,1.180414698,16367,128,-9.826283434,-136246,42496,25296.875,128
-3.491840779,-48416,-245042,-17.67282816,1.17695286,16319,128,-9.827725867,-136266,43136,25316.40625,128
-4.693170749,-65073,-244850,-17.65898081,1.112043394,15419,128,-9.813517906,-136069,43776,25335.9375,128
-3.443663531,-47748,-244244,-17.6152751,1.111322178,15409,128,-9.796785688,-135837,44416,25355.46875,128
-3.319037356,-46020,-243652,-17.57257909,1.181568644,16383,128,-9.75567636,-135267,45056,25375,128
-3.544417446,-49145,-243417,-17.55563051,1.112404002,15424,128,-9.725241032,-134845,45696,25394.53125,128
-3.541244095,-49101,-243101,-17.53284008,1.09855665,15232,128,-9.683843217,-134271,46336,25414.0625,128
-4.431297115,-61442,-243668,-17.57373304,1.043022995,14462,128,-9.706417287,-134584,46976,25433.59375,128
-3.481383143,-48271,-244905,-17.6629475,1.147455114,15910,128,-9.782289241,-135636,47616,25453.125,128
-4.69143983,-65049,-245306,-17.69186827,1.066751011,14791,128,-9.834000448,-136353,48256,25472.65625,128
-3.544850176,-49151,-245691,-17.7196351,1.034440522,14343,128,-9.87568675,-136931,48896,25492.1875,128
-4.725409117,-65520,-245391,-17.69799861,1.098773014,15235,128,-9.84957872,-136569,49536,25511.71875,128
-3.544417446,-49145,-245754,-17.72417876,1.05030728,14563,128,-9.861118181,-136729,50176,25531.25,128
-4.717619981,-65412,-245652,-17.71682235,1.0627122,14735,128,-9.876696453,-136945,50816,25550.78125,128
-3.517804565,-48776,-245382,-17.69734951,1.107788218,15360,128,-9.862560613,-136749,51456,25570.3125,128
-4.717403617,-65409,-245381,-17.69727739,1.069707998,14832,128,-9.865878208,-136795,52096,25589.84375,128
-3.536267702,-49032,-245159,-17.68126639,1.066534646,14788,128,-9.861911519,-136740,52736,25609.375,128
-4.653071124,-64517,-245021,-17.6713136,1.071943768,14863,128,-9.853761775,-136627,53376,25628.90625,128
-4.717475738,-65410,-245290,-17.69071432,1.036315684,14369,128,-9.874965534,-136921,54016,25648.4375,128
-4.708172048,-65281,-245446,-17.7019653,1.034440522,14343,128,-9.874460682,-136914,54656,25667.96875,128
-3.540883486,-49096,-245320,-17.69287797,1.070717701,14846,128,-9.859459383,-136706,55296,25687.5,128
-4.708172048,-65281,-245540,-17.70874473,1.043167239,14464,128,-9.867248519,-136814,55936,25707.03125,128
-4.708099926,-65280,-245462,-17.70311924,1.069563755,14830,128,-9.860613329,-136722,56576,25726.5625,128
-4.726202455,-65531,-245299,-17.69136342,1.106706394,15345,128,-9.84424172,-136495,57216,25746.09375,128
-3.498836577,-48513,-245126,-17.67888638,1.180414698,16367,128,-9.79599235,-135826,57856,25765.625,128
-3.540234392,-49087,-244921,-17.66410144,1.167937656,16194,128,-9.798011756,-135854,58496,25785.15625,128
-4.725697604,-65524,-244676,-17.64643164,1.172409197,16256,128,-9.791737174,-135767,59136,25804.6875,128
-3.5379265,-49055,-245143,-17.68011244,1.051244861,14576,128,-9.842005949,-136464,59776,25824.21875,128
-4.692016803,-65057,-245281,-17.69006523,1.034152035,14339,128,-9.872729763,-136890,60416,25843.75,128
-4.654946286,-64543,-245215,-17.6853052,1.081824432,15000,128,-9.848352653,-136552,61056,25863.28125,128
-4.689781033,-65026,-245346,-17.69475313,1.0343684,14342,128,-9.883692251,-137042,61696,25882.8125,128
-3.508861483,-48652,-245403,-17.69886407,1.050667888,14568,128,-9.886360751,-137079,62336,25902.34375,128
-3.526747647,-48900,-243459,-17.55865962,1.181352279,16380,128,-9.788058971,-135716,62976,25921.875,128
-4.57849736,-63483,-243435,-17.5569287,0.94270181,13071,128,-9.710816707,-134645,63616,25941.40625,128
-3.55653388,-49313,-246436,-17.77336571,1.163321872,16130,128,-9.84070776,-136446,64256,25960.9375,128
-3.527613107,-48912,-244421,-17.62804063,1.173563143,16272,128,-9.838760476,-136419,64896,25980.46875,128
-4.579146454,-63492,-244316,-17.62046786,1.070934066,14849,128,-9.858954532,-136699,0,26000,128
-3.50914997,-48656,-244297,-17.61909755,1.071294674,14854,128,-9.845756274,-136516,640,26019.53125,128
-4.721947279,-65472,-244408,-17.62710305,1.071438917,14856,128,-9.851598126,-136597,1280,26039.0625,128
-3.537854378,-49054,-243894,-17.59003253,1.107499731,15356,128,-9.823470691,-136207,1920,26058.59375,128
-3.399452972,-47135,-243739,-17.57885368,1.105985177,15335,128,-9.826716164,-136252,2560,26078.125,128
-4.504933298,-62463,-243611,-17.56962211,1.162600656,16120,128,-9.808974243,-136006,3200,26097.65625,128
-4.560394831,-63232,-242929,-17.52043516,1.181568644,16383,128,-9.786111687,-135689,3840,26117.1875,128
-4.726563063,-65536,-242041,-17.45639115,1.05607701,14643,128,-9.71449491,-134696,5120,26156.25,0
-3.26343158,-45249,-242485,-17.48841315,1.035089616,14352,128,-9.715576734,-134711,5760,26175.78125,128
-3.477993426,-48224,-243339,-17.55000502,1.034007792,14337,128,-9.769740077,-135462,6400,26195.3125,128
-3.540522878,-49091,-244602,-17.64109464,1.034007792,14337,128,-9.856935126,-136671,7040,26214.84375,128
-3.535762851,-49025,-244500,-17.63373824,1.066751011,14791,128,-9.88188921,-137017,7680,26234.375,128
-4.579002211,-63490,-244489,-17.6329449,1.034007792,14337,128,-9.871575817,-136874,8320,26253.90625,128
-4.597321105,-63744,-244791,-17.65472563,1.036243562,14368,128,-9.899342644,-137259,8960,26273.4375,128
-3.526747647,-48900,-244632,-17.64325829,1.03393567,14336,128,-9.891841995,-137155,9600,26292.96875,128
-3.462992127,-48016,-244528,-17.63575764,1.175871036,16304,128,-9.879941926,-136990,10240,26312.5,128
-4.60684116,-63876,-244589,-17.64015706,1.04987455,14557,128,-9.883620129,-137041,10880,26332.03125,128
-3.462054546,-48003,-244670,-17.64599891,1.034079913,14338,128,-9.870926722,-136865,11520,26351.5625,128
-4.59623928,-63729,-244531,-17.63597401,1.070717701,14846,128,-9.883259521,-137036,12160,26371.09375,128
-3.5175882,-48773,-244845,-17.6586202,1.18091955,16374,128,-9.89472686,-137195,12800,26390.625,128
-3.527036134,-48904,-244646,-17.64426799,1.178106806,16335,128,-9.885495291,-137067,13440,26410.15625,128
-4.712643589,-65343,-244994,-17.66936632,1.034440522,14343,128,-9.897034752,-137227,14080,26429.6875,128
-3.510231794,-48671,-244818,-17.65667291,1.18048682,16368,128,-9.890038954,-137130,14720,26449.21875,128
-4.654152948,-64532,-245028,-17.67181846,1.048936969,14544,128,-9.893572914,-137179,15360,26468.75,128
-3.527613107,-48912,-245317,-17.69266161,1.038479333,14399,128,-9.903525699,-137317,16000,26488.28125,128
-4.708388413,-65284,-244794,-17.65494199,1.034007792,14337,128,-9.854338748,-136635,16640,26507.8125,128
-3.540522878,-49091,-244721,-17.64967712,1.107499731,15356,128,-9.838183503,-136411,17280,26527.34375,128
-3.542758649,-49122,-244748,-17.6516244,1.052326685,14591,128,-9.821739772,-136183,17920,26546.875,128
-4.613548471,-63969,-244885,-17.66150506,1.038407211,14398,128,-9.85621391,-136661,18560,26566.40625,128
-4.712210859,-65337,-245461,-17.70304712,1.03790236,14391,128,-9.909295429,-137397,19200,26585.9375,128
-4.661365111,-64632,-245109,-17.67766031,1.179404995,16353,128,-9.902227509,-137299,19840,26605.46875,128
-3.517227592,-48768,-245275,-17.6896325,1.164836426,16151,128,-9.925017944,-137615,20480,26625,128
-4.689420425,-65021,-245167,-17.68184336,1.181424401,16381,128,-9.928912512,-137669,21120,26644.53125,128
-3.528694931,-48927,-244661,-17.64534982,1.181568644,16383,128,-9.896457779,-137219,21760,26664.0625,128
-3.542614405,-49120,-240762,-17.36414759,1.838236074,25488,128,-9.688747488,-134339,22400,26683.59375,128
-3.533454959,-48993,-247006,-17.81447504,0.885653601,12280,128,-9.831331948,-136316,23040,26703.125,128
-4.726563063,-65536,-244876,-17.66085597,1.036099319,14366,128,-9.901866901,-137294,23680,26722.65625,128
-4.654152948,-64532,-244820,-17.65681716,1.181280158,16379,128,-9.915065159,-137477,24320,26742.1875,128
-3.544922298,-49152,-244500,-17.63373824,1.035738711,14361,128,-9.901506293,-137289,24960,26761.71875,128
-4.582464049,-63538,-244402,-17.62667032,1.172409197,16256,128,-9.905472983,-137344,25600,26781.25,128
-3.544922298,-49152,-244178,-17.61051507,1.181352279,16380,128,-9.885062562,-137061,26240,26800.78125,128
-4.579002211,-63490,-243987,-17.59673984,1.034007792,14337,128,-9.876552209,-136943,26880,26820.3125,128
-3.414526393,-47344,-243471,-17.55952508,1.049658185,14554,128,-9.854699356,-136640,27520,26839.84375,128
-4.445505076,-61639,-243398,-17.5542602,1.042590266,14456,128,-9.844818693,-136503,28160,26859.375,128
-3.480301318,-48256,-242570,-17.49454349,1.105552448,15329,128,-9.800536013,-135889,28800,26878.90625,128
-3.465876992,-48056,-242017,-17.45466023,1.149258155,15935,128,-9.773057672,-135508,29440,26898.4375,128
-3.508068145,-48641,-242247,-17.47124821,1.163177629,16128,128,-9.766855212,-135422,30080,26917.96875,128
-3.47287279,-48153,-243451,-17.55808265,1.175294063,16296,128,-9.818061569,-136132,30720,26937.5,128
-3.542398041,-49117,-244202,-17.61224599,1.174140116,16280,128,-9.852896315,-136615,31360,26957.03125,128
-4.725481239,-65521,-245336,-17.69403192,1.033863549,14335,128,-9.934826485,-137751,32000,26976.5625,128
-4.68963679,-65024,-245441,-17.70160469,1.149330276,15936,128,-9.942038648,-137851,32640,26996.09375,128
-4.693747722,-65081,-245550,-17.70946595,1.127982274,15640,128,-9.954876298,-138029,33280,27015.625,128
-4.726563063,-65536,-245482,-17.70456168,1.128559247,15648,128,-9.943408959,-137870,33920,27035.15625,128
-4.693747722,-65081,-245627,-17.71501931,1.134328977,15728,128,-9.96158361,-138122,34560,27054.6875,128
-3.545138662,-49155,-245777,-17.72583756,1.070789822,14847,128,-9.968579408,-138219,35200,27074.21875,128
-4.726563063,-65536,-245472,-17.70384046,1.144714492,15872,128,-9.953866595,-138015,35840,27093.75,128
-3.545499271,-49160,-245774,-17.72562119,1.125097409,15600,128,-9.966055151,-138184,36480,27113.28125,128
-3.546941703,-49180,-246139,-17.75194559,1.108004583,15363,128,-9.9682188,-138214,37120,27132.8125,128
-3.554225988,-49281,-246338,-17.76629779,1.118822827,15513,128,-9.975719449,-138318,37760,27152.34375,128
-3.549538082,-49216,-246390,-17.77004811,1.112404002,15424,128,-9.967281218,-138201,38400,27171.875,128
-3.60968752,-50050,-246154,-17.75302741,1.107211245,15352,128,-9.952929014,-138002,39040,27191.40625,128
-3.581704328,-49662,-246296,-17.76326868,1.126179233,15615,128,-9.973772165,-138291,39680,27210.9375,128
-3.61408694,-50111,-246461,-17.77516875,1.09148873,15134,128,-9.98682618,-138472,40320,27230.46875,128
-3.544994419,-49153,-246438,-17.77350995,1.172625562,16259,128,-9.946005338,-137906,40960,27250,128
-3.547158068,-49183,-246327,-17.76550445,1.17918863,16350,128,-9.936196796,-137770,41600,27269.53125,128
-3.565909692,-49443,-245435,-17.70117196,1.179404995,16353,128,-9.886072264,-137075,42240,27289.0625,128
-4.722019401,-65473,-246230,-17.75850865,1.178178928,16336,128,-9.953938717,-138016,42880,27308.59375,128
-3.568289705,-49476,-246579,-17.7836791,1.036171441,14367,128,-9.998870492,-138639,43520,27328.125,128
-3.618197872,-50168,-246372,-17.76874992,1.089325081,15104,128,-9.989638923,-138511,44160,27347.65625,128
-3.58884437,-49761,-246632,-17.78750155,1.057158835,14658,128,-10.01841545,-138910,44800,27367.1875,128
-3.580622504,-49647,-246798,-17.79947374,1.061702497,14721,128,-10.03146947,-139091,45440,27386.71875,128
-3.554225988,-49281,-246152,-17.75288317,1.172914049,16263,128,-9.976512787,-138329,46080,27406.25,128
-3.318532505,-46013,-241936,-17.44881838,1.794890975,24887,128,-9.707138503,-134594,46720,27425.78125,128
-3.545210784,-49156,-248776,-17.94213032,0.849160057,11774,128,-9.905472983,-137344,47360,27445.3125,128
-3.618774845,-50176,-246448,-17.77423117,1.090406905,15119,128,-9.976440665,-138328,48000,27464.84375,128
-3.580406139,-49644,-246202,-17.75648925,1.107716096,15359,128,-9.988917707,-138501,48640,27484.375,128
-3.553649015,-49273,-246171,-17.75425348,1.098773014,15235,128,-9.981777666,-138402,49280,27503.90625,128
-3.550187176,-49225,-246148,-17.75259468,1.100143325,15254,128,-9.985311626,-138451,49920,27523.4375,128
-3.579612801,-49633,-246247,-17.75973472,1.074828634,14903,128,-9.998582005,-138635,50560,27542.96875,128
-4.66662999,-64705,-246049,-17.74545464,1.090479027,15120,128,-9.999735951,-138651,51200,27562.5,128
-3.544994419,-49153,-245766,-17.72504422,1.105480326,15328,128,-9.976080057,-138323,51840,27582.03125,128
-3.544633811,-49148,-244777,-17.65371593,1.179837725,16359,128,-9.933961026,-137739,52480,27601.5625,128
-3.528478566,-48924,-244353,-17.62313636,1.181568644,16383,128,-9.919392457,-137537,53120,27621.09375,128
-4.580805252,-63515,-243625,-17.57063181,1.0343684,14342,128,-9.893068062,-137172,53760,27640.625,128
-3.53749377,-49049,-243741,-17.57899792,1.06848193,14815,128,-9.861118181,-136729,54400,27660.15625,128
-4.643767434,-64388,-245037,-17.67246755,1.033358697,14328,128,-9.944562905,-137886,55040,27679.6875,128
-3.553072042,-49265,-246379,-17.76925478,0.958929176,13296,128,-10.0082463,-138769,55680,27699.21875,128
-3.560861178,-49373,-246493,-17.77747664,1.051244861,14576,128,-10.03110886,-139086,56320,27718.75,128
-3.618774845,-50176,-246454,-17.7746639,0.589594315,8175,128,-10.0425762,-139245,56960,27738.28125,128
-3.563313313,-49407,-246455,-17.77473602,1.034152035,14339,128,-10.03803254,-139182,57600,27757.8125,128
-3.581992815,-49666,-246624,-17.78692458,0.589882802,8179,128,-10.06233753,-139519,58240,27777.34375,128
-3.607163263,-50015,-246583,-17.78396759,0.565289326,7838,128,-10.04647077,-139299,58880,27796.875,128
-3.616539075,-50145,-246824,-17.8013489,0.590748261,8191,128,-10.05764962,-139454,59520,27816.40625,128
-4.726058212,-65529,-246108,-17.74970981,1.039128427,14408,128,-10.02541125,-139007,60160,27835.9375,128
-3.57290549,-49540,-246179,-17.75483045,1.035305981,14355,128,-10.04228771,-139241,60800,27855.46875,128
-3.549538082,-49216,-246081,-17.74776253,1.038767819,14403,128,-10.04106164,-139224,61440,27875,128
-3.572689125,-49537,-246018,-17.74321887,0.572429368,7937,128,-10.05599082,-139431,62080,27894.53125,128
-3.546076244,-49168,-245901,-17.73478064,0.572285124,7935,128,-10.03586889,-139152,62720,27914.0625,128
-3.563385435,-49408,-246282,-17.76225898,1.036171441,14367,128,-10.05714477,-139447,63360,27933.59375,128
-3.544994419,-49153,-246061,-17.7463201,1.038551454,14400,128,-10.01365543,-138844,64000,27953.125,128
-4.689131938,-65017,-245853,-17.7313188,1.062135227,14727,128,-9.991297721,-138534,64640,27972.65625,128
-3.535834972,-49026,-245606,-17.71350476,1.089469324,15106,128,-9.979541895,-138371,65280,27992.1875,128
-4.723101225,-65488,-245426,-17.70052286,1.181208036,16378,128,-9.956246609,-138048,384,28011.71875,128
-3.556461758,-49312,-245908,-17.73528549,1.070284971,14840,128,-10.01617968,-138879,1024,28031.25,128
-3.558841772,-49345,-246377,-17.76911053,0.588584612,8161,128,-10.07221819,-139656,1664,28050.78125,128
-3.545066541,-49154,-246114,-17.75014254,0.557355947,7728,128,-10.06933332,-139616,2304,28070.3125,128
-3.564539381,-49424,-246109,-17.74978194,0.568246313,7879,128,-10.06096721,-139500,2944,28089.84375,128
-3.582137058,-49668,-246076,-17.74740192,0.581733058,8066,128,-10.07063151,-139634,3584,28109.375,128
-4.580949495,-63517,-241739,-17.43461042,1.809315301,25087,128,-9.848857504,-136559,4224,28128.90625,128
-3.53662831,-49037,-245583,-17.71184596,1.172409197,16256,128,-9.91910397,-137533,4864,28148.4375,128
-3.637165861,-50431,-246967,-17.81166229,1.108004583,15363,128,-10.02267063,-138969,5504,28167.96875,128
-4.726490942,-65535,-245572,-17.71105262,1.04323936,14465,128,-10.03500343,-139140,6144,28187.5,128
-3.544922298,-49152,-245120,-17.67845365,1.042590266,14456,128,-10.03529191,-139144,6784,28207.03125,128
-4.71754786,-65411,-245238,-17.686964,1.047566658,14525,128,-10.03716708,-139170,7424,28226.5625,128
-3.508068145,-48641,-244837,-17.65804322,1.069852241,14834,128,-10.01697302,-138890,8064,28246.09375,128
-4.596816253,-63737,-244264,-17.61671753,1.047855144,14529,128,-10.00161111,-138677,8704,28265.625,128
-4.579074333,-63491,-244027,-17.59962471,1.087017189,15072,128,-9.988268612,-138492,9344,28285.15625,128
-3.397289323,-47105,-243440,-17.55728931,1.090479027,15120,128,-9.989999532,-138516,9984,28304.6875,128
-3.542398041,-49117,-242321,-17.47658521,1.146012681,15890,128,-9.914271821,-137466,10624,28324.21875,128
-3.544922298,-49152,-241660,-17.42891281,1.034440522,14343,128,-9.88542317,-137066,11264,28343.75,128
-3.508140267,-48642,-241143,-17.39162593,1.043022995,14462,128,-9.855276329,-136648,11904,28363.28125,128
-3.398371148,-47120,-241934,-17.44867414,1.04280663,14459,128,-9.879292831,-136981,12544,28382.8125,128
-3.503452361,-48577,-243415,-17.55548627,1.033863549,14335,128,-9.9682188,-138214,13184,28402.34375,128
-3.542686527,-49121,-244055,-17.60164411,0.960011001,13311,128,-10.00817418,-138768,13824,28421.875,128
-4.611673309,-63943,-244257,-17.61621268,1.036171441,14367,128,-10.03615737,-139156,14464,28441.40625,128
-4.722091522,-65474,-244365,-17.62400182,1.043095117,14463,128,-10.02101183,-138946,15104,28460.9375,128
