Device,Device,Device,Device,Device,Device,Device,Device,Device,Device,Device,Device
ECG Vx-RL,ECG Vx-RL,ECG LA-RA,ECG LA-RA,ExG2 CH1,ExG2 CH1,EXG1 Status,ECG LL-RA,ECG LL-RA,Timestamp,Timestamp,EXG2 Status
CAL,RAW,CAL,RAW,CAL,RAW,RAW,CAL+H337,RAW,CAL,RAW,RAW
mV,No Units,mV,No Units,mV,No Units,No Units,mV,No Units,mSecs,No Units,No Units
-0.073347696,-1017,-19.47291189,-270001,1.125241652,15602,128,-6.38514416,-88533,6058.59375,1920,128
-0.57430453,-7963,-19.36977796,-268571,1.026939872,14239,128,-6.343169372,-87951,6078.125,2560,128
-0.369262739,-5120,-19.24991181,-266909,1.179837725,16359,128,-6.308406747,-87469,6097.65625,3200,128
-0.553966231,-7681,-19.20007577,-266218,1.181063793,16376,128,-6.04328764,-83793,6117.1875,3840,128
-7.21E-05,-1,-19.16790952,-265772,1.021170142,14159,128,-5.207470084,-72204,6136.71875,4480,128
-7.21E-05,-1,-19.14591243,-265467,1.033863549,14335,128,-5.206893111,-72196,6156.25,5120,128
-0.226245549,-3137,-19.12276138,-265146,1.112259759,15422,128,-5.221317437,-72396,6175.78125,5760,128
-0.00887096,-123,-19.07508899,-264485,1.029319886,14272,128,-5.193190002,-72006,6195.3125,6400,128
-0.222134617,-3080,-19.04025424,-264002,1.18048682,16368,128,-5.149989146,-71407,6214.84375,7040,128
-0.064404614,-893,-19.03708089,-263958,1.162600656,16120,128,-5.105778588,-70794,6234.375,7680,128
-0.130395905,-1808,-19.05323613,-264182,1.179332874,16352,128,-5.095320951,-70649,6253.90625,8320,128
-0.032454733,-450,-19.04126394,-264016,1.167721292,16191,128,-5.090633046,-70584,6273.4375,8960,128
-0.138617771,-1922,-19.05951071,-264269,1.145219343,15879,128,-5.086449991,-70526,6292.96875,9600,128
-0.138545649,-1921,-19.04739428,-264101,1.116947665,15487,128,-5.080031166,-70437,6312.5,10240,128
-0.036926274,-512,-19.06333316,-264322,1.172481319,16257,128,-5.081040869,-70451,6332.03125,10880,128
-0.002380014,-33,-19.06693924,-264372,1.163393994,16131,128,-5.074189314,-70356,6351.5625,11520,128
-0.147488731,-2045,-19.04616821,-264084,1.177529833,16327,128,-5.065678962,-70238,6371.09375,12160,128
-0.145469325,-2017,-19.04638458,-264087,1.179404995,16353,128,-5.066832908,-70254,6390.625,12800,128
-0.003606081,-50,-19.05496705,-264206,1.1734189,16270,128,-5.064525016,-70222,6410.15625,13440,128
-6.49E-04,-9,-19.05951071,-264269,1.181568644,16383,128,-5.060341961,-70164,6429.6875,14080,128
-0.222134617,-3080,-19.04631246,-264086,1.179837725,16359,128,-5.06250561,-70194,6449.21875,14720,128
-0.133785621,-1855,-19.03736937,-263962,1.177241347,16323,128,-5.0638038,-70212,6468.75,15360,128
-0.064116128,-889,-19.04003788,-263999,1.181568644,16383,128,-5.063731678,-70211,6488.28125,16000,128
-0.041469937,-575,-19.0234499,-263769,1.179404995,16353,128,-5.035604243,-69821,6507.8125,16640,128
-0.12931408,-1793,-19.03441239,-263921,0.895390021,12415,128,-4.992908239,-69229,6527.34375,17280,128
-0.052793032,-732,-19.02193535,-263748,0.959506149,13304,128,-4.924176326,-68276,6546.875,17920,128
-0.027838949,-386,-18.99099517,-263319,1.116442813,15480,128,-4.912925352,-68120,6566.40625,18560,128
-7.21E-05,-1,-18.9977746,-263413,0.925608984,12834,128,-4.990600346,-69197,6585.9375,19200,128
-0.006995798,-97,-19.04097546,-264012,0.886663304,12294,128,-5.054283745,-70080,6605.46875,19840,128
-0.14525296,-2014,-19.04198516,-264026,1.160941858,16097,128,-5.081329355,-70455,6625,20480,128
-0.146839636,-2036,-19.05215431,-264167,1.17781832,16331,128,-5.093445789,-70623,6644.53125,21120,128
-0.073708305,-1022,-19.05107248,-264152,1.167793413,16192,128,-5.083565126,-70486,6664.0625,21760,128
-0.072770723,-1009,-19.09485031,-264759,1.179332874,16352,128,-5.096547019,-70666,6683.59375,22400,128
-0.01817465,-252,-19.03361905,-263910,1.124808922,15596,128,-5.005601645,-69405,6703.125,23040,128
-2.358737869,-32705,-18.37565343,-254787,2.329240123,32296,128,-4.909607757,-68074,6722.65625,23680,128
-2.081935058,-28867,-18.65692778,-258687,1.112404002,15424,128,-5.275552902,-73148,6742.1875,24320,128
-4.726563063,-65536,-18.95168888,-262774,0.572645732,7940,128,-5.22456291,-72441,6761.71875,24960,128
-0.138473527,-1920,-19.05828465,-264252,1.115793719,15471,128,-5.11385621,-70906,6781.25,25600,128
-0.286683474,-3975,-19.05677009,-264231,1.178755901,16344,128,-5.103903425,-70768,6800.78125,26240,128
-0.004327298,-60,-19.05287553,-264177,1.10966338,15386,128,-5.088469397,-70554,6820.3125,26880,128
-0.073636183,-1021,-19.05785192,-264246,1.112115516,15420,128,-5.085007558,-70506,6839.84375,27520,128
-0.016227366,-225,-19.06867016,-264396,1.110023988,15391,128,-5.08154572,-70458,6859.375,28160,128
-0.024232867,-336,-19.07285322,-264454,1.111322178,15409,128,-5.084358464,-70497,6878.90625,28800,128
-0.001226068,-17,-19.06160224,-264298,1.107788218,15360,128,-5.070799598,-70309,6898.4375,29440,128
-0.011611582,-161,-19.082806,-264592,1.181568644,16383,128,-5.07224203,-70329,6917.96875,30080,128
-0.295410191,-4096,-19.06600166,-264359,1.145796316,15887,128,-5.056663758,-70113,6937.5,30720,128
-0.002091527,-29,-19.08424843,-264612,1.167721292,16191,128,-5.067842611,-70268,6957.03125,31360,128
-0.14878692,-2063,-19.06535257,-264350,1.034152035,14339,128,-5.119121089,-70979,6976.5625,32000,128
-0.021420124,-297,-19.05568827,-264216,1.034007792,14337,128,-5.117462291,-70956,6996.09375,32640,128
-0.059428222,-824,-19.01825714,-263697,1.070789822,14847,128,-5.127631441,-71097,7015.625,33280,128
-0.147705096,-2048,-18.98226845,-263198,1.144209641,15865,128,-5.058034069,-70132,7035.15625,33920,128
-0.033392314,-463,-18.97483992,-263095,1.165701886,16163,128,-5.022261741,-69636,7054.6875,34560,128
-0.074429521,-1032,-18.98573029,-263246,0.887312399,12303,128,-5.019376876,-69596,7074.21875,35200,128
-0.005337001,-74,-18.98479271,-263233,1.17695286,16319,128,-5.027670864,-69711,7093.75,35840,128
-0.147200244,-2041,-18.98594665,-263249,1.051461226,14579,128,-5.004447699,-69389,7113.28125,36480,128
-7.21E-05,-1,-19.00181341,-263469,1.043167239,14464,128,-5.008198024,-69441,7132.8125,37120,128
-0.017453434,-242,-18.9881103,-263279,1.177097103,16321,128,-5.01865566,-69586,7152.34375,37760,128
-0.032382611,-449,-19.00318372,-263488,1.041075711,14435,128,-5.016924741,-69562,7171.875,38400,128
-0.001803041,-25,-18.98681211,-263261,1.042950874,14461,128,-5.001923442,-69354,7191.40625,39040,128
-0.132487432,-1837,-18.99128365,-263323,1.03746963,14385,128,-5.004303456,-69387,7210.9375,39680,128
-0.065125831,-903,-18.97296476,-263069,1.070717701,14846,128,-5.014905335,-69534,7230.46875,40320,128
-0.073636183,-1021,-18.97498417,-263097,1.181352279,16380,128,-5.024569634,-69668,7250,40960,128
-0.071833142,-996,-18.97383022,-263081,1.177024982,16320,128,-5.040436392,-69888,7269.53125,41600,128
-0.06952525,-964,-18.95933377,-262880,1.180631063,16370,128,-5.046061879,-69966,7289.0625,42240,128
-0.069813737,-968,-18.97137808,-263047,1.156037588,16029,128,-5.028608445,-69724,7308.59375,42880,128
-0.057625181,-799,-18.94144761,-262632,1.038479333,14399,128,-5.01598716,-69549,7328.125,43520,128
-0.030002598,-416,-18.92118143,-262351,1.051461226,14579,128,-4.943721288,-68547,7347.65625,44160,128
-1.44E-04,-2,-18.88800548,-261891,1.15214302,15975,128,-4.958722586,-68755,7367.1875,44800,128
-2.362271829,-32754,-18.90026616,-262061,1.181568644,16383,128,-5.044691568,-69947,7386.71875,45440,128
-0.020698907,-287,-18.94368338,-262663,1.116947665,15487,128,-5.120707765,-71001,7406.25,46080,128
-0.017958286,-249,-18.95882892,-262873,1.070357093,14841,128,-5.141911524,-71295,7425.78125,46720,128
-0.028848652,-400,-18.95493435,-262819,1.181568644,16383,128,-5.181001446,-71837,7445.3125,47360,128
-0.073419818,-1018,-18.96863746,-263009,1.16368248,16135,128,-5.181289933,-71841,7464.84375,48000,128
-0.063539155,-881,-18.97383022,-263081,1.173491022,16271,128,-5.202926422,-72141,7484.375,48640,128
-0.124698296,-1729,-18.96589684,-262971,1.179549239,16355,128,-5.136358158,-71218,7503.90625,49280,128
-1.998923063,-27716,-18.2971851,-253699,2.251276642,31215,128,-5.03993154,-69881,7523.4375,49920,128
-2.215720679,-30722,-18.59490318,-257827,0.978257773,13564,128,-5.420445254,-75157,7542.96875,50560,128
-2.352968139,-32625,-18.82100449,-260962,0.331471006,4596,128,-5.540888374,-76827,7562.5,51200,128
-0.011250974,-156,-18.95515072,-262822,0.572357246,7936,128,-5.304113067,-73544,7582.03125,51840,128
-0.055389411,-768,-18.95789134,-262860,1.070717701,14846,128,-5.289544498,-73342,7601.5625,52480,128
-7.21E-05,-1,-18.96380531,-262942,1.039416914,14412,128,-5.297982728,-73459,7621.09375,53120,128
-0.072987088,-1012,-18.95630466,-262838,1.051533348,14580,128,-5.302526391,-73522,7640.625,53760,128
-7.21E-05,-1,-18.95334768,-262797,0.590748261,8191,128,-5.335630218,-73981,7660.15625,54400,128
-0.007140041,-99,-18.95464587,-262815,0.590531896,8188,128,-5.327408353,-73867,7679.6875,55040,128
-0.019617083,-272,-18.96697867,-262986,0.590531896,8188,128,-5.340750854,-74052,7699.21875,55680,128
-0.001153946,-16,-18.95305919,-262793,0.59024341,8184,128,-5.367003127,-74416,7718.75,56320,128
-0.071616777,-993,-18.94858765,-262731,0.586204599,8128,128,-5.363541289,-74368,7738.28125,56960,128
-0.048537856,-673,-18.96431016,-262949,0.590604018,8189,128,-5.399169373,-74862,7757.8125,57600,128
-0.073852548,-1024,-18.97621023,-263114,0.461794789,6403,128,-5.444101148,-75485,7777.34375,58240,128
-0.037359004,-518,-18.93748092,-262577,0.586204599,8128,128,-5.460761244,-75716,7796.875,58880,128
-5.77E-04,-8,-18.92615782,-262420,0.461434181,6398,128,-5.448572689,-75547,7816.40625,59520,128
-7.21E-05,-1,-18.89781402,-262027,0.503336847,6979,128,-5.41272824,-75050,7835.9375,60160,128
-4.722019401,-65473,-18.89867948,-262039,0.516679349,7164,128,-5.395851778,-74816,7855.46875,60800,128
-0.002380014,-33,-18.91411351,-262253,0.512352051,7104,128,-5.393904495,-74789,7875,61440,128
-0.001947284,-27,-18.92897057,-262459,0.511775078,7096,128,-5.397726941,-74842,7894.53125,62080,128
-0.055677897,-772,-18.94426035,-262671,0.511198105,7088,128,-5.40609305,-74958,7914.0625,62720,128
-0.004687906,-65,-18.93712031,-262572,0.488984643,6780,128,-5.404434252,-74935,7933.59375,63360,128
-7.21E-05,-1,-18.94606339,-262696,0.512352051,7104,128,-5.405876685,-74955,7953.125,64000,128
-0.041542058,-576,-18.95082342,-262762,0.516462984,7161,128,-5.40652578,-74964,7972.65625,64640,128
-0.055677897,-772,-18.94606339,-262696,0.498504698,6912,128,-5.411357929,-75031,7992.1875,65280,128
-0.03584445,-497,-18.94014942,-262614,0.498504698,6912,128,-5.408833672,-74996,8011.71875,384,128
-0.073852548,-1024,-18.94613551,-262697,0.516895713,7167,128,-5.405443955,-74949,8031.25,1024,128
-0.018535259,-257,-18.96344471,-262937,0.507736267,7040,128,-5.407391239,-74976,8050.78125,1664,128
-0.037286882,-517,-18.95226585,-262782,0.507808388,7041,128,-5.407751847,-74981,8070.3125,2304,128
-0.055173046,-765,-18.95745861,-262854,0.499586523,6927,128,-5.409050037,-74999,8089.84375,2944,128
-0.004615784,-64,-18.95363616,-262801,0.502038658,6961,128,-5.388279007,-74711,8109.375,3584,128
-0.018391015,-255,-18.94555854,-262689,0.579280922,8032,128,-5.337000529,-74000,8128.90625,4224,128
-0.021924975,-304,-18.93712031,-262572,1.038407211,14398,128,-5.264446171,-72994,8148.4375,4864,128
-7.21E-05,-1,-18.91202198,-262224,1.105480326,15328,128,-5.249300629,-72784,8167.96875,5504,128
-2.349217814,-32573,-18.89565037,-261997,1.044826036,14487,128,-5.30649308,-73577,8187.5,6144,128
-0.069813737,-968,-18.95399677,-262806,0.589954923,8180,128,-5.379263804,-74586,8207.03125,6784,128
-0.02257407,-313,-18.97058475,-263036,0.480546413,6663,128,-5.411574294,-75034,8226.5625,7424,128
-0.002380014,-33,-19.01429045,-263642,0.451769883,6264,128,-5.423690727,-75202,8246.09375,8064,128
-1.44E-04,-2,-18.98435998,-263227,0.498721063,6915,128,-5.428378633,-75267,8265.625,8704,128
-7.21E-05,-1,-19.02128625,-263739,0.443620139,6151,128,-5.435446553,-75365,8285.15625,9344,128
-0.072987088,-1012,-19.00664556,-263536,0.488984643,6780,128,-5.376523182,-74548,8304.6875,9984,128
-2.141723888,-29696,-18.68224247,-259038,1.786308502,24768,128,-5.233722357,-72568,8324.21875,10624,128
-2.361262126,-32740,-18.48109525,-256249,0.576468179,7993,128,-5.515645804,-76477,8343.75,11264,128
-4.653720218,-64526,-18.83340941,-261134,0,0,128,-5.759849639,-79863,8363.28125,11904,128
-0.055677897,-772,-19.00585222,-263525,0.439941936,6100,128,-5.453404838,-75614,8382.8125,12544,128
-0.001226068,-17,-19.01594925,-263665,0.474271831,6576,128,-5.433859877,-75343,8402.34375,13184,128
-0.009520055,-132,-19.02287293,-263761,0.482349453,6688,128,-5.427224687,-75251,8421.875,13824,128
-0.111427916,-1545,-19.03736937,-263962,0.488984643,6780,128,-5.416622808,-75104,8441.40625,14464,128
-0.12931408,-1793,-19.02784932,-263830,0.516895713,7167,128,-5.414314915,-75072,8460.9375,15104,128
-0.023151043,-321,-19.01991594,-263720,0.515813889,7152,128,-5.407174874,-74973,8480.46875,15744,128
-0.057480938,-797,-19.03989363,-263997,0.499802887,6930,128,-5.403785158,-74926,8500,16384,128
-0.114961876,-1594,-19.02929175,-263850,0.516679349,7164,128,-5.400611806,-74882,8519.53125,17024,128
-0.12974681,-1799,-19.03599906,-263943,0.496196806,6880,128,-5.413737942,-75064,8539.0625,17664,128
-0.072049507,-999,-19.05806828,-264249,0.457034762,6337,128,-5.428090147,-75263,8558.59375,18304,128
-0.131333486,-1821,-19.03729725,-263961,0.447370463,6203,128,-5.448139959,-75541,8578.125,18944,128
-0.073275575,-1016,-19.04515851,-264070,0.44679349,6195,128,-5.465304907,-75779,8597.65625,19584,128
-0.036854152,-511,-18.9987843,-263427,0.519275727,7200,128,-5.453621203,-75617,8617.1875,20224,128
-0.069308885,-961,-18.97101748,-263042,0.507952631,7043,128,-5.407751847,-74981,8636.71875,20864,128
-0.050845748,-705,-18.96539199,-262964,0.59024341,8184,128,-5.357483072,-74284,8656.25,21504,128
-0.009231568,-128,-18.95226585,-262782,0.572285124,7935,128,-5.338947813,-74027,8675.78125,22144,128
-0.019544961,-271,-18.97368598,-263079,0.581733058,8066,128,-5.321854987,-73790,8695.3125,22784,128
-0.032238368,-447,-18.9754169,-263103,0.59024341,8184,128,-5.318393149,-73742,8714.84375,23424,128
-0.115538849,-1602,-18.99308669,-263348,1.038695698,14402,128,-5.303175486,-73531,8734.375,24064,128
-0.073780426,-1023,-18.98688423,-263262,1.070212849,14839,128,-5.280817781,-73221,8753.90625,24704,128
-0.073347696,-1017,-18.99626005,-263392,1.089325081,15104,128,-5.273677739,-73122,8773.4375,25344,128
-0.08279563,-1148,-18.97606599,-263112,1.107788218,15360,128,-5.289760863,-73345,8792.96875,25984,128
-0.018318894,-254,-18.99092305,-263318,1.069707998,14832,128,-5.286154781,-73295,8812.5,26624,128
-0.147128123,-2040,-18.99907279,-263431,1.075694093,14915,128,-5.276923213,-73167,8832.03125,27264,128
-0.017309191,-240,-18.97851813,-263146,1.043095117,14463,128,-5.293222701,-73393,8851.5625,27904,128
-0.072770723,-1009,-18.9764266,-263117,1.066751011,14791,128,-5.286443268,-73299,8871.09375,28544,128
-0.018463137,-256,-18.95644891,-262840,1.103677285,15303,128,-5.279519591,-73203,8890.625,29184,128
-0.014496447,-201,-18.95680952,-262845,1.108870042,15375,128,-5.283414159,-73257,8910.15625,29824,128
-0.018246772,-253,-18.97166657,-263051,1.089613568,15108,128,-5.278365645,-73187,8929.6875,30464,128
-0.041469937,-575,-18.94772219,-262719,1.109519137,15384,128,-5.223697451,-72429,8949.21875,31104,128
-0.016732218,-232,-18.90675711,-262151,1.180703185,16371,128,-5.158427377,-71524,8968.75,31744,128
-4.689853154,-65027,-18.88627456,-261867,1.121347084,15548,128,-5.137656347,-71236,8988.28125,32384,128
-2.361334248,-32741,-18.91151713,-262217,1.18048682,16368,128,-5.221750167,-72402,9007.8125,33024,128
-0.005697609,-79,-18.930413,-262479,1.099061501,15239,128,-5.252329737,-72826,9027.34375,33664,128
-0.037575369,-521,-18.93329786,-262519,1.108076705,15364,128,-5.306420959,-73576,9046.875,34304,128
-0.009015204,-125,-18.95861256,-262870,0.581588814,8064,128,-5.326615015,-73856,9066.40625,34944,128
-0.038152342,-529,-18.95363616,-262801,0.586781572,8136,128,-5.334043543,-73959,9085.9375,35584,128
-2.88E-04,-4,-18.97491204,-263096,0.590531896,8188,128,-5.338659327,-74023,9105.46875,36224,128
-0.032382611,-449,-18.93928396,-262602,1.159066696,16071,128,-5.265023144,-73002,9125,36864,128
-2.361983342,-32750,-18.28946808,-253592,1.959400411,27168,128,-5.112197413,-70883,9144.53125,37504,128
-2.344890516,-32513,-18.4495781,-255812,0.30464176,4224,128,-5.491485058,-76142,9164.0625,38144,128
-2.344890516,-32513,-18.82850514,-261066,0.064044006,888,128,-5.528483454,-76655,9183.59375,38784,128
-0.001153946,-16,-18.91656565,-262287,0.462227519,6409,128,-5.403136063,-74917,9203.125,39424,128
-0.00930369,-129,-18.9347403,-262539,0.498504698,6912,128,-5.403063941,-74916,9222.65625,40064,128
-0.004110933,-57,-18.94346701,-262660,0.518049659,7183,128,-5.380129263,-74598,9242.1875,40704,128
-0.027766827,-385,-18.9347403,-262539,0.571347543,7922,128,-5.410708834,-75022,9261.71875,41344,128
-0.002380014,-33,-18.93834638,-262589,0.525910917,7292,128,-5.399241495,-74863,9281.25,41984,128
-0.009159447,-127,-18.94252943,-262647,0.572068759,7932,128,-5.415757348,-75092,9300.78125,42624,128
-0.029858354,-414,-18.94087064,-262624,0.572862097,7943,128,-5.420445254,-75157,9320.3125,43264,128
-0.004615784,-64,-18.9320718,-262502,0.55439896,7687,128,-5.413882186,-75066,9339.84375,43904,128
-0.034690503,-481,-18.94130337,-262630,0.516967835,7168,128,-5.448139959,-75541,9359.375,44544,128
-4.33E-04,-6,-18.93957245,-262606,0.587358545,8144,128,-5.46855038,-75824,9378.90625,45184,128
-0.045003896,-624,-18.96048772,-262896,0.560745664,7775,128,-5.495740234,-76201,9398.4375,45824,128
-0.001226068,-17,-18.93986093,-262610,0.551514095,7647,128,-5.532954995,-76717,9417.96875,46464,128
-5.77E-04,-8,-18.91137289,-262215,0.551441974,7646,128,-5.504466951,-76322,9437.5,47104,128
-4.708099926,-65280,-18.88952004,-261912,0.574593016,7967,128,-5.492566883,-76157,9457.03125,47744,128
-2.327437082,-32271,-18.88411091,-261837,0.590459775,8187,128,-5.479296503,-75973,9476.5625,48384,128
-4.708749021,-65289,-18.89399158,-261974,0.522593322,7246,128,-5.463141258,-75749,9496.09375,49024,128
-0.002307892,-32,-18.90769469,-262164,0.570626327,7912,128,-5.485138355,-76054,9515.625,49664,128
-0.001153946,-16,-18.9160608,-262280,0.581588814,8064,128,-5.48845595,-76100,9535.15625,50304,128
-0.031300787,-434,-18.92846572,-262452,0.572862097,7943,128,-5.493648707,-76172,9554.6875,50944,128
-0.034762625,-482,-18.94101488,-262626,0.590748261,8191,128,-5.50309664,-76303,9574.21875,51584,128
-0.017958286,-249,-18.93106209,-262488,0.52605516,7294,128,-5.502663911,-76297,9593.75,52224,128
-0.03721476,-516,-18.94339489,-262659,0.517039957,7169,128,-5.529493157,-76669,9613.28125,52864,128
-0.009880663,-137,-18.93654334,-262564,0.517833295,7180,128,-5.545936888,-76897,9632.8125,53504,128
-0.03187776,-442,-18.92731177,-262436,0.590748261,8191,128,-5.539734428,-76811,9652.34375,54144,128
-0.008654595,-120,-18.92925905,-262463,0.51631874,7159,128,-5.552355713,-76986,9671.875,54784,128
-7.21E-05,-1,-18.92478751,-262401,0.514732065,7137,128,-5.552427835,-76987,9691.40625,55424,128
-0.004615784,-64,-18.92904269,-262460,0.558005042,7737,128,-5.568294593,-77207,9710.9375,56064,128
-0.013919474,-193,-18.93603849,-262557,0.516895713,7167,128,-5.558558173,-77072,9730.46875,56704,128
-0.008582474,-119,-18.91469048,-262261,0.589882802,8179,128,-5.513121547,-76442,9750,57344,128
-0.008654595,-120,-18.91346442,-262244,0.588512491,8160,128,-5.442947202,-75469,9769.53125,57984,128
-2.326427379,-32257,-18.87459086,-261705,0.539902513,7486,128,-5.438980512,-75414,9789.0625,58624,128
-4.712571467,-65342,-18.92478751,-262401,0.558437772,7743,128,-5.522425237,-76571,9808.59375,59264,128
-0.009231568,-128,-18.95219373,-262781,0.477733669,6624,128,-5.586829851,-77464,9828.125,59904,128
-0.073708305,-1022,-18.97635448,-263116,0.29533807,4095,128,-5.628588275,-78043,9847.65625,60544,128
-0.0026685,-37,-18.96899807,-263014,0.295193827,4093,128,-5.638973789,-78187,9867.1875,61184,128
-0.074068913,-1027,-18.9967649,-263399,0.258483918,3584,128,-5.64387806,-78255,9886.71875,61824,128
-0.017814042,-247,-19.00989103,-263581,0.291443502,4041,128,-5.653325993,-78386,9906.25,62464,128
-0.016227366,-225,-19.02885902,-263844,0.589882802,8179,128,-5.580338905,-77374,9925.78125,63104,128
-2.252574832,-31233,-18.39685719,-255081,1.346655053,18672,128,-5.428811363,-75273,9945.3125,63744,128
-4.269600424,-59200,-18.59670622,-257852,0.055389411,768,128,-5.778889749,-80127,9964.84375,64384,128
-4.67990037,-64889,-18.90704559,-262155,1.163105507,16127,128,-5.814734198,-80624,9984.375,65024,128
-0.129458324,-1795,-19.02417112,-263779,0.222134617,3080,128,-5.678929171,-78741,10003.90625,128,128
-0.006995798,-97,-19.02171898,-263745,0.287909542,3992,128,-5.666235765,-78565,10023.4375,768,128
-7.21E-05,-1,-19.04011,-264000,0.294977462,4090,128,-5.661619981,-78501,10042.96875,1408,128
-0.02127588,-295,-19.03816271,-263973,0.286683474,3975,128,-5.667101224,-78577,10062.5,2048,128
-0.145974177,-2024,-19.04169667,-264022,0.293102299,4064,128,-5.667966684,-78589,10082.03125,2688,128
-0.137391703,-1905,-19.04386032,-264052,0.29533807,4095,128,-5.66955336,-78611,10101.5625,3328,128
-0.147705096,-2048,-19.04472578,-264064,0.29533807,4095,128,-5.670490941,-78624,10121.09375,3968,128
-0.146695393,-2034,-19.04299486,-264040,0.291876232,4047,128,-5.680948577,-78769,10140.625,4608,128
-0.07262648,-1007,-19.06542469,-264351,0.259349377,3596,128,-5.687583767,-78861,10160.15625,5248,128
-0.055533654,-770,-19.03895605,-263984,0.21961036,3045,128,-5.708787526,-79155,10179.6875,5888,128
-0.007140041,-99,-19.07061745,-264423,0.15232088,2112,128,-5.735400407,-79524,10199.21875,6528,128
-0.009159447,-127,-19.04818762,-264112,0.15585484,2161,128,-5.748598665,-79707,10218.75,7168,128
-0.147632974,-2047,-19.00715041,-263543,0.230861334,3201,128,-5.732154933,-79479,10238.28125,7808,128
-0.131261364,-1820,-19.00087583,-263456,0.220475819,3057,128,-5.674601874,-78681,10257.8125,8448,128
-0.092892658,-1288,-19.00303948,-263486,0.280408893,3888,128,-5.646258074,-78288,10277.34375,9088,128
-0.146479028,-2031,-19.01573289,-263662,0.281274352,3900,128,-5.636305289,-78150,10296.875,9728,128
-0.112942471,-1566,-19.01861775,-263702,0.294328367,4081,128,-5.641570168,-78223,10316.40625,10368,128
-0.133857743,-1856,-19.04313911,-264042,0.290794407,4032,128,-5.635872559,-78144,10335.9375,11008,128
-0.018463137,-256,-19.0331142,-263903,0.279687676,3878,128,-5.628516153,-78042,10355.46875,11648,128
-0.145036595,-2011,-19.01840139,-263699,0.294977462,4090,128,-5.622457936,-77958,10375,12288,128
-0.004471541,-62,-19.02626264,-263808,0.280985866,3896,128,-5.623179152,-77968,10394.53125,12928,128
-0.294256245,-4080,-19.06636227,-264364,0.285096799,3953,128,-5.622818544,-77963,10414.0625,13568,128
-0.147705096,-2048,-19.05027915,-264141,0.286394988,3971,128,-5.623395517,-77971,10433.59375,14208,128
-0.004543663,-63,-19.04710579,-264097,0.288198029,3996,128,-5.620510652,-77931,10453.125,14848,128
-0.004615784,-64,-19.04732216,-264100,0.291731988,4045,128,-5.625703409,-78003,10472.65625,15488,128
-0.147705096,-2048,-19.04890884,-264122,0.277451906,3847,128,-5.629165248,-78051,10492.1875,16128,128
-0.030579571,-424,-19.04797125,-264109,0.294833218,4088,128,-5.633492545,-78111,10511.71875,16768,128
-0.147705096,-2048,-19.05063975,-264146,0.267066391,3703,128,-5.648349601,-78317,10531.25,17408,128
-2.16E-04,-3,-19.0587895,-264259,0.294184124,4079,128,-5.634790735,-78129,10550.78125,18048,128
-0.073564061,-1020,-19.0324651,-263894,0.519059362,7197,128,-5.580915878,-77382,10570.3125,18688,128
-0.143161433,-1985,-19.03268147,-263897,0.52381939,7263,128,-5.532089535,-76705,10589.84375,19328,128
-0.003389717,-47,-18.99481761,-263372,0.519131484,7198,128,-5.560938187,-77105,10609.375,19968,128
-0.147705096,-2048,-19.04926944,-264127,0.443115287,6144,128,-5.610485746,-77792,10628.90625,20608,128
-0.017669799,-245,-19.07162715,-264437,0.259565742,3599,128,-5.681309185,-78774,10648.4375,21248,128
-0.183838032,-2549,-19.09016241,-264694,0.213191535,2956,128,-5.713475432,-79220,10667.96875,21888,128
-0.275937352,-3826,-19.10617341,-264916,0.225957063,3133,128,-5.723788825,-79363,10687.5,22528,128
-0.002163649,-30,-19.1121595,-264999,0.182034991,2524,128,-5.725303379,-79384,10707.03125,23168,128
-0.081136832,-1125,-19.13574328,-265326,0.164220949,2277,128,-5.725519744,-79387,10726.5625,23808,128
-0.044138437,-612,-18.95926165,-262879,0.286178623,3968,128,-5.544782942,-76881,10746.09375,24448,128
-2.215287949,-30716,-18.43746167,-255644,1.188564442,16480,128,-5.497110545,-76220,10765.625,25088,128
-4.545537775,-63026,-18.72537121,-259636,0.003317595,46,128,-5.905030478,-81876,10785.15625,25728,128
-0.142223852,-1972,-19.03001297,-263860,0.03231049,448,128,-5.883970962,-81584,10804.6875,26368,128
-0.295410191,-4096,-19.11756863,-265074,0.157513637,2184,128,-5.7483823,-79704,10824.21875,27008,128
-0.217013981,-3009,-19.12341048,-265155,0.230500726,3196,128,-5.733381001,-79496,10843.75,27648,128
-0.002596379,-36,-19.13127174,-265264,0.226101306,3135,128,-5.734174339,-79507,10863.28125,28288,128
-9.38E-04,-13,-19.15261974,-265560,0.177635572,2463,128,-5.742828935,-79627,10882.8125,28928,128
-0.223937657,-3105,-19.13033415,-265251,0.222134617,3080,128,-5.732227055,-79480,10902.34375,29568,128
-0.23201528,-3217,-19.14338817,-265432,0.225668576,3129,128,-5.734895555,-79517,10921.875,30208,128
-0.009015204,-125,-19.13574328,-265326,0.223288563,3096,128,-5.756459922,-79816,10941.40625,30848,128
-0.217013981,-3009,-19.12391533,-265162,0.223504928,3099,128,-5.753935665,-79781,10960.9375,31488,128
-0.260575445,-3613,-19.12910809,-265234,0.222423103,3084,128,-5.752637476,-79763,10980.46875,32128,128
-0.220475819,-3057,-19.12442018,-265169,0.138473527,1920,128,-5.776365492,-80092,11000,32768,128
-0.109696997,-1521,-19.1454797,-265461,0.018391015,255,128,-5.826490024,-80787,11019.53125,33408,128
-0.014784934,-205,-19.12384321,-265161,0.080487738,1116,128,-5.809829928,-80556,11039.0625,34048,128
-0.166168233,-2304,-19.08504177,-264623,0.12974681,1799,128,-5.792809223,-80320,11058.59375,34688,128
-1.44E-04,-2,-19.05915011,-264264,0.143089311,1984,128,-5.764537545,-79928,11078.125,35328,128
-0.22271159,-3088,-19.05503917,-264207,0.175399801,2432,128,-5.74174711,-79612,11097.65625,35968,128
-0.00223577,-31,-19.07624293,-264501,0.17489495,2425,128,-5.735472528,-79525,11117.1875,36608,128
-7.21E-05,-1,-19.08691693,-264649,0.147705096,2048,128,-5.745497435,-79664,11136.71875,37248,128
-0.008943082,-124,-19.09629275,-264779,0.069741615,967,128,-5.764826031,-79932,11156.25,37888,128
-0.148137826,-2054,-19.09131635,-264710,0.161768813,2243,128,-5.744992583,-79657,11175.78125,38528,128
-0.073564061,-1020,-19.10328854,-264876,0.149363893,2071,128,-5.765907856,-79947,11195.3125,39168,128
-0.07305921,-1013,-19.10862554,-264950,0.157441516,2183,128,-5.749031395,-79713,11214.84375,39808,128
-0.21917763,-3039,-19.10826494,-264945,0.073780426,1023,128,-5.77715883,-80103,11234.375,40448,128
-0.059500344,-825,-19.1181456,-265082,0.072698602,1008,128,-5.782279465,-80174,11253.90625,41088,128
-0.065558561,-909,-19.10422612,-264889,0.009159447,127,128,-5.843799215,-81027,11273.4375,41728,128
-0.175471923,-2433,-19.11071707,-264979,1.14550783,15883,128,-5.933951251,-82277,11292.96875,42368,128
-0.070246466,-974,-19.11583771,-265050,1.161374588,16103,128,-6.004269839,-83252,11312.5,43008,128
-0.005192757,-72,-19.11619832,-265055,1.116875543,15486,128,-6.112740769,-84756,11332.03125,43648,128
-0.005192757,-72,-19.11511649,-265040,1.181568644,16383,128,-6.130266324,-84999,11351.5625,44288,128
-0.256320269,-3554,-19.09153272,-264713,1.177097103,16321,128,-6.167336842,-85513,11371.09375,44928,128
-0.182539842,-2531,-19.08244539,-264587,1.116947665,15487,128,-6.179453275,-85681,11390.625,45568,128
-0.036926274,-512,-19.04364396,-264049,1.181424401,16381,128,-6.223158982,-86287,11410.15625,46208,128
-0.239804416,-3325,-19.09037877,-264697,1.177024982,16320,128,-6.387452053,-88565,11429.6875,46848,128
-0.293679272,-4072,-19.10278369,-264869,1.108004583,15363,128,-6.489359914,-89978,11449.21875,47488,128
-7.21E-05,-1,-19.12788202,-265217,0.517977538,7182,128,-6.553548164,-90868,11468.75,48128,128
-0.294688975,-4086,-19.11785711,-265078,0.5198527,7208,128,-6.569919773,-91095,11488.28125,48768,128
-0.221557644,-3072,-19.13350751,-265295,0.525838795,7291,128,-6.627689198,-91896,11507.8125,49408,128
-0.07616044,-1056,-19.14843668,-265502,0.476507601,6607,128,-6.618169143,-91764,11527.34375,50048,128
-0.151166934,-2096,-18.91721474,-262296,0.563053556,7807,128,-6.46440583,-89632,11546.875,50688,128
-4.430359534,-61429,-18.4762631,-256182,0.009087325,126,128,-6.472194966,-89740,11566.40625,51328,128
-4.699012601,-65154,-18.87927876,-261770,0.03584445,497,128,-6.870089992,-95257,11585.9375,51968,128
-0.149147528,-2068,-19.0694635,-264407,0.452346856,6272,128,-6.726495829,-93266,11605.46875,52608,128
-0.286827718,-3977,-19.12845899,-265225,0.445639544,6179,128,-6.634973482,-91997,11625,53248,128
-0.146839636,-2036,-19.1384839,-265364,0.567452975,7868,128,-6.597398114,-91476,11644.53125,53888,128
-0.233241347,-3234,-19.1394936,-265378,0.590531896,8188,128,-6.573093125,-91139,11664.0625,54528,128
-0.221701887,-3074,-19.14201786,-265413,0.589450072,8173,128,-6.54849965,-90798,11683.59375,55168,128
-0.147705096,-2048,-19.15377368,-265576,0.588512491,8160,128,-6.515179457,-90336,11703.125,55808,128
-0.230284361,-3193,-19.13307478,-265289,1.03393567,14336,128,-6.498952091,-90111,11722.65625,56448,128
-0.072121629,-1000,-19.12600686,-265191,1.112259759,15422,128,-6.476089534,-89794,11742.1875,57088,128
-0.111355795,-1544,-19.12932445,-265237,1.144930857,15875,128,-6.45640033,-89521,11761.71875,57728,128
-0.091810833,-1273,-19.14230634,-265417,1.163177629,16128,128,-6.443634801,-89344,11781.25,58368,128
-0.29490534,-4089,-19.14764335,-265491,1.105768812,15332,128,-6.433537773,-89204,11800.78125,59008,128
-0.106235159,-1473,-19.15673067,-265617,1.163826724,16137,128,-6.436422638,-89244,11820.3125,59648,128
-0.001298189,-18,-19.12925233,-265236,1.112404002,15424,128,-6.42055588,-89024,11839.84375,60288,128
-0.288630758,-4002,-19.12103046,-265122,1.163177629,16128,128,-6.388101147,-88574,11859.375,60928,128
-0.156936664,-2176,-19.10876979,-264952,1.149258155,15935,128,-6.30984918,-87489,11878.90625,61568,128
-0.295121705,-4092,-19.11302496,-265011,1.09855665,15232,128,-6.284895096,-87143,11898.4375,62208,128
-0.11647643,-1615,-19.13350751,-265295,1.178611657,16342,128,-6.248185187,-86634,11917.96875,62848,128
-0.268003973,-3716,-19.13819541,-265360,1.153369087,15992,128,-6.232462672,-86416,11937.5,63488,128
-0.140781419,-1952,-19.15954341,-265656,1.181568644,16383,128,-6.212989833,-86146,11957.03125,64128,128
-0.278245244,-3858,-19.16603436,-265746,1.107788218,15360,128,-6.187314533,-85790,11976.5625,64768,128
-0.276442203,-3833,-19.17721321,-265901,1.064443119,14759,128,-6.167769571,-85519,11996.09375,65408,128
-0.258556039,-3585,-19.17634775,-265889,1.153441209,15993,128,-6.149883407,-85271,12015.625,512,128
-0.294544732,-4084,-19.17879989,-265923,1.180558941,16369,128,-6.137478487,-85099,12035.15625,1152,128
-0.008077622,-112,-19.18875267,-266061,1.108870042,15375,128,-6.122909918,-84897,12054.6875,1792,128
-0.142223852,-1972,-19.19639757,-266167,1.117019786,15488,128,-6.100335848,-84584,12074.21875,2432,128
-0.147705096,-2048,-19.19603696,-266162,1.153873939,15999,128,-6.088075171,-84414,12093.75,3072,128
-0.300025976,-4160,-19.21082189,-266367,1.153729696,15997,128,-6.074588427,-84227,12113.28125,3712,128
-0.295482313,-4097,-19.22041407,-266500,1.180703185,16371,128,-6.066078075,-84109,12132.8125,4352,128
-0.444413477,-6162,-19.22373166,-266546,1.107788218,15360,128,-6.053889519,-83940,12152.34375,4992,128
-0.028415922,-394,-19.23007837,-266634,1.107355488,15354,128,-6.001529217,-83214,12171.875,5632,128
-7.21E-05,-1,-19.21046128,-266362,1.173491022,16271,128,-5.916497817,-82035,12191.40625,6272,128
-0.005337001,-74,-19.20714369,-266316,0.001730919,24,128,-5.870123609,-81392,12210.9375,6912,128
-0.290578042,-4029,-19.19603696,-266162,1.18048682,16368,128,-5.927748791,-82191,12230.46875,7552,128
-5.77E-04,-8,-19.22127953,-266512,1.173274657,16268,128,-5.95118832,-82516,12250,8192,128
-0.322600046,-4473,-19.26577857,-267129,1.103172434,15296,128,-6.012996556,-83373,12269.53125,8832,128
-0.004615784,-64,-19.28013078,-267328,1.100503933,15259,128,-6.007803799,-83301,12289.0625,9472,128
-0.383542822,-5318,-19.26794222,-267159,1.161951561,16111,128,-6.003692866,-83244,12308.59375,10112,128
-0.558509893,-7744,-19.28799203,-267437,1.153801817,15998,128,-6.000808001,-83204,12328.125,10752,128
-0.138473527,-1920,-19.32167284,-267904,1.108365191,15368,128,-5.973401782,-82824,12347.65625,11392,128
-0.01817465,-252,-18.9244269,-262396,1.200031781,16639,128,-5.762085409,-79894,12367.1875,12032,128
-2.347126287,-32544,-18.65007623,-258592,0.065702804,911,128,-5.916353573,-82033,12386.71875,12672,128
-2.88E-04,-4,-19.1271608,-265207,1.163177629,16128,128,-6.272778663,-86975,12406.25,13312,128
-0.019689205,-273,-19.26289371,-267089,1.172409197,16256,128,-6.016674759,-83424,12425.78125,13952,128
-0.138545649,-1921,-19.3228989,-267921,1.180558941,16369,128,-5.950827712,-82511,12445.3125,14592,128
-0.573511192,-7952,-19.33746747,-268123,1.153729696,15997,128,-5.938422792,-82339,12464.84375,15232,128
-0.036998396,-513,-19.31575886,-267822,1.163393994,16131,128,-5.92594575,-82166,12484.375,15872,128
-0.443115287,-6144,-19.32398073,-267936,1.179332874,16352,128,-5.91664206,-82037,12503.90625,16512,128
-0.589738558,-8177,-19.33919839,-268147,1.179260752,16351,128,-5.915415992,-82020,12523.4375,17152,128
-0.143161433,-1985,-19.34157841,-268180,5.77E-04,8,128,-5.895943152,-81750,12542.96875,17792,128
-0.587358545,-8144,-19.33768384,-268126,0.01327038,184,128,-5.89493345,-81736,12562.5,18432,128
-0.590387653,-8186,-19.33912627,-268146,0.018391015,255,128,-5.896448004,-81757,12582.03125,19072,128
-0.44325953,-6146,-19.35816638,-268410,1.181280158,16379,128,-5.909718384,-81941,12601.5625,19712,128
-0.444774085,-6167,-19.37410526,-268631,1.162023683,16112,128,-5.92861425,-82203,12621.09375,20352,128
-0.572357246,-7936,-19.3642246,-268494,1.181063793,16376,128,-5.946284049,-82448,12640.625,20992,128
-0.350871724,-4865,-19.30400304,-267659,1.146950262,15903,128,-5.937773697,-82330,12660.15625,21632,128
-0.350871724,-4865,-19.27609197,-267272,1.146950262,15903,128,-5.876470313,-81480,12679.6875,22272,128
-0.281562839,-3904,-19.29628602,-267552,1.107211245,15352,128,-5.805358387,-80494,12718.75,23552,0
-0.441672855,-6124,-19.30349819,-267652,0.034618382,480,128,-5.797425008,-80384,12738.28125,24192,128
-0.405323554,-5620,-19.3138837,-267796,0.055894262,775,128,-5.797929859,-80391,12757.8125,24832,128
-0.383182214,-5313,-19.30378667,-267656,0.062313087,864,128,-5.786823128,-80237,12777.34375,25472,128
-0.364142104,-5049,-19.31806675,-267854,0.069381007,962,128,-5.78069279,-80152,12796.875,26112,128
-0.442033463,-6129,-19.32600013,-267964,0.071039804,985,128,-5.735761015,-79529,12816.40625,26752,128
-0.410804798,-5696,-19.31662432,-267834,0.259637864,3600,128,-5.729414312,-79441,12835.9375,27392,128
-0.334572236,-4639,-19.32607225,-267965,0.12974681,1799,128,-5.755161733,-79798,12855.46875,28032,128
-0.442610436,-6137,-19.32131223,-267899,0.156936664,2176,128,-5.761508436,-79886,12875,28672,128
-0.313656964,-4349,-19.29960362,-267598,0.223793414,3103,128,-5.764826031,-79932,12894.53125,29312,128
-0.440879517,-6113,-19.31229702,-267774,0.073275575,1016,128,-5.762806626,-79904,12914.0625,29952,128
-0.410804798,-5696,-19.30465213,-267668,0.149940866,2079,128,-5.754656882,-79791,12933.59375,30592,128
-0.312791504,-4337,-19.3175619,-267847,0.147705096,2048,128,-5.758623571,-79846,12953.125,31232,128
-0.33695225,-4672,-19.31604735,-267826,0.073275575,1016,128,-5.750113219,-79728,12972.65625,31872,128
-0.299521124,-4153,-19.30472425,-267669,0.168404003,2335,128,-5.721697297,-79334,12992.1875,32512,128
-0.378494308,-5248,-19.29765633,-267571,0.214345481,2972,128,-5.669192752,-78606,13011.71875,33152,128
-0.064620979,-896,-19.24421421,-266830,0.291010772,4035,128,-5.612793638,-77824,13031.25,33792,128
-0.330389181,-4581,-19.23707416,-266731,0.452274734,6271,128,-5.644166546,-78259,13050.78125,34432,128
-0.036349301,-504,-19.29635814,-267553,0.205402399,2848,128,-5.73864588,-79569,13070.3125,35072,128
-0.371282145,-5148,-19.32628862,-267968,0.14878692,2063,128,-5.785092209,-80213,13089.84375,35712,128
-0.120587363,-1672,-19.33342866,-268067,7.93E-04,11,128,-5.809325076,-80549,13109.375,36352,128
-0.443115287,-6144,-19.3278753,-267990,0.018391015,255,128,-5.828797916,-80819,13128.90625,36992,128
-0.315099396,-4369,-19.31337885,-267789,0.073275575,1016,128,-5.830384592,-80841,13148.4375,37632,128
-0.518193903,-7185,-19.35405545,-268353,0.059933074,831,128,-5.802978373,-80461,13167.96875,38272,128
-0.327504316,-4541,-19.13444509,-265308,1.181640766,16384,128,-5.666740616,-78572,13187.5,38912,128
-4.431224994,-61441,-18.71325478,-259468,0.278317365,3859,128,-5.878056988,-81502,13207.03125,39552,128
-0.119505539,-1657,-19.19567635,-266157,0.886230574,12288,128,-6.233328132,-86428,13226.5625,40192,128
-0.368325158,-5107,-19.27226952,-267219,1.174500725,16285,128,-5.987177013,-83015,13246.09375,40832,128
-0.581733058,-8066,-19.35600273,-268380,1.179549239,16355,128,-5.893707382,-81719,13265.625,41472,128
-0.447731071,-6208,-19.34496812,-268227,2.16E-04,3,128,-5.905463207,-81882,13285.15625,42112,128
-0.443764382,-6153,-19.35578637,-268377,1.179404995,16353,128,-5.909646262,-81940,13304.6875,42752,128
-0.517544808,-7176,-19.35398333,-268352,1.181280158,16379,128,-5.903660167,-81857,13324.21875,43392,128
-0.523963633,-7265,-19.35859911,-268416,1.179332874,16352,128,-5.930561534,-82230,13343.75,44032,128
-0.444052868,-6157,-19.37410526,-268631,1.163177629,16128,128,-5.924936047,-82152,13363.28125,44672,128
-0.588584612,-8161,-19.36768643,-268542,1.180558941,16369,128,-5.935898535,-82304,13382.8125,45312,128
-0.517039957,-7169,-19.3635755,-268485,1.177962563,16333,128,-5.947726482,-82468,13402.34375,45952,128
-0.581733058,-8066,-19.37778346,-268682,1.181568644,16383,128,-5.950899834,-82512,13421.875,46592,128
-0.479608831,-6650,-19.38586109,-268794,1.163177629,16128,128,-5.977584836,-82882,13441.40625,47232,128
-0.581588814,-8064,-19.37951438,-268706,1.070573458,14844,128,-6.025617841,-83548,13460.9375,47872,128
-0.44722622,-6201,-19.36444096,-268497,1.107932461,15362,128,-6.029440287,-83601,13480.46875,48512,128
-0.57964153,-8037,-19.3262165,-267967,1.121635571,15552,128,-6.016386272,-83420,13500,49152,128
-0.587286423,-8143,-19.31438855,-267803,1.112331881,15423,128,-5.960347767,-82643,13519.53125,49792,128
-0.426960042,-5920,-19.3459057,-268240,1.145868438,15888,128,-5.973906633,-82831,13539.0625,50432,128
-0.442826801,-6140,-19.33869354,-268140,1.172841927,16262,128,-5.953928942,-82554,13558.59375,51072,128
-0.590820383,-8192,-19.35304574,-268339,1.146517533,15897,128,-5.982921837,-82956,13578.125,51712,128
-0.517039957,-7169,-19.36588339,-268517,1.153657574,15996,128,-5.976575133,-82868,13597.65625,52352,128
-0.590459775,-8187,-19.35701243,-268394,1.169019481,16209,128,-5.974267241,-82836,13617.1875,52992,128
-0.45696264,-6336,-19.37129252,-268592,1.103100312,15295,128,-5.973906633,-82831,13636.71875,53632,128
-0.521583619,-7232,-19.35629122,-268384,1.105480326,15328,128,-5.975926039,-82859,13656.25,54272,128
-0.465689357,-6457,-19.36682098,-268530,1.09855665,15232,128,-5.994100689,-83111,13675.78125,54912,128
-0.521223011,-7227,-19.35686819,-268392,1.16498067,16153,128,-5.985518215,-82992,13695.3125,55552,128
-0.553389258,-7673,-19.382255,-268744,1.09855665,15232,128,-5.997778892,-83162,13714.84375,56192,128
-0.443187409,-6145,-19.37619679,-268660,1.078290472,14951,128,-6.011554123,-83353,13734.375,56832,128
-0.586493085,-8132,-19.37360041,-268624,1.101369393,15271,128,-5.999798298,-83190,13753.90625,57472,128
-0.551441974,-7646,-19.38953929,-268845,1.085646878,15053,128,-6.00297165,-83234,13773.4375,58112,128
-0.519492092,-7203,-19.36977796,-268571,1.098773014,15235,128,-5.981840012,-82941,13792.96875,58752,128
-0.459847505,-6376,-19.37006645,-268575,1.164259453,16143,128,-5.943831914,-82414,13812.5,59392,128
-0.517472686,-7175,-19.34619419,-268244,0.01507342,209,128,-5.874090299,-81447,13832.03125,60032,128
-0.147632974,-2047,-19.32398073,-267936,0.071544656,992,128,-5.879138813,-81517,13851.5625,60672,128
-0.443620139,-6151,-19.35564212,-268375,1.146084803,15891,128,-5.973834511,-82830,13871.09375,61312,128
-0.551658339,-7649,-19.39062111,-268860,1.048864847,14543,128,-6.05035556,-83891,13890.625,61952,128
-0.480113683,-6657,-19.40266542,-269027,1.179909847,16360,128,-6.062255628,-84056,13910.15625,62592,128
-0.590820383,-8192,-19.41600793,-269212,1.181063793,16376,128,-6.080358157,-84307,13929.6875,63232,128
-0.516102376,-7156,-19.42942255,-269398,1.179332874,16352,128,-6.081584225,-84324,13949.21875,63872,128
-0.004543663,-63,-19.45004933,-269684,1.171760103,16247,128,-6.06232775,-84057,13968.75,64512,128
-0.590604018,-8189,-19.36609976,-268520,1.146733898,15900,128,-5.939288251,-82351,13988.28125,65152,128
-4.717403617,-65409,-18.85670469,-261457,1.217485215,16881,128,-5.987537621,-83020,14007.8125,256,128
-0.039162044,-543,-19.26577857,-267129,0.886446939,12291,128,-6.370142862,-88325,14027.34375,896,128
-0.590387653,-8186,-19.33811657,-268132,1.144714492,15872,128,-6.240468173,-86527,14046.875,1536,128
-0.572934219,-7944,-19.46822399,-269936,1.144426005,15868,128,-6.088652145,-84422,14066.40625,2176,128
-0.563702651,-7816,-19.47363311,-270011,1.171832224,16248,128,-6.082593928,-84338,14085.9375,2816,128
-0.590531896,-8188,-19.46411305,-269879,1.181063793,16376,128,-6.068385967,-84141,14105.46875,3456,128
-0.555336542,-7700,-19.47659009,-270052,1.173491022,16271,128,-6.066943534,-84121,14125,4096,128
-0.027766827,-385,-19.48877865,-270221,1.181063793,16376,128,-6.051509506,-83907,14144.53125,4736,128
-0.571852395,-7929,-19.47348886,-270009,1.109014286,15377,128,-6.046316748,-83835,14164.0625,5376,128
-0.590820383,-8192,-19.48776895,-270207,1.035017495,14351,128,-6.045739775,-83827,14183.59375,6016,128
-0.574448773,-7965,-19.49815446,-270351,1.041941171,14447,128,-6.039176707,-83736,14203.125,6656,128
-0.002884865,-40,-19.49981326,-270374,1.047855144,14529,128,-6.045162802,-83819,14222.65625,7296,128
-2.88E-04,-4,-19.51185757,-270541,1.179332874,16352,128,-6.065140494,-84096,14242.1875,7936,128
-0.590892505,-8193,-19.50644845,-270466,1.181568644,16383,128,-6.079204211,-84291,14261.71875,8576,128
-0.001153946,-16,-19.50450116,-270439,1.181568644,16383,128,-6.096152794,-84526,14281.25,9216,128
-0.004615784,-64,-19.48135012,-270118,1.15748002,16049,128,-6.063409574,-84072,14300.78125,9856,128
-0.001803041,-25,-19.47305613,-270003,1.145291465,15880,128,-6.018405678,-83448,14320.3125,10496,128
-0.572501489,-7938,-19.47889799,-270084,1.107716096,15359,128,-5.980974553,-82929,14339.84375,11136,128
-0.001081824,-15,-19.49353868,-270287,1.18048682,16368,128,-5.960852618,-82650,14359.375,11776,128
-0.589882802,-8179,-19.50240964,-270410,1.177601955,16328,128,-5.932508818,-82257,14378.90625,12416,128
-0.002091527,-29,-19.51301152,-270557,1.144930857,15875,128,-5.932508818,-82257,14398.4375,13056,128
-0.004110933,-57,-19.5159685,-270598,1.181568644,16383,128,-5.92991244,-82221,14417.96875,13696,128
-0.036709909,-509,-19.51041514,-270521,1.164259453,16143,128,-5.919166317,-82072,14437.5,14336,128
-0.035267476,-489,-19.52794069,-270764,1.179332874,16352,128,-5.909790505,-81942,14457.03125,14976,128
-9.38E-04,-13,-19.51618487,-270601,1.179332874,16352,128,-5.91354083,-81994,14476.5625,15616,128
-0.00930369,-129,-19.52512795,-270725,0.001370311,19,128,-5.906545032,-81897,14496.09375,16256,128
-0.004687906,-65,-19.52491159,-270722,1.177024982,16320,128,-5.908131708,-81919,14515.625,16896,128
-0.009231568,-128,-19.53399891,-270848,1.181424401,16381,128,-5.908708681,-81927,14535.15625,17536,128
-0.036926274,-512,-19.5476299,-271037,0.004038811,56,128,-5.905823816,-81887,14554.6875,18176,128
-0.009015204,-125,-19.52851767,-270772,4.33E-04,6,128,-5.89803468,-81779,14574.21875,18816,128
-0.06909252,-958,-19.54445655,-270993,0.001081824,15,128,-5.902217734,-81837,14593.75,19456,128
-0.591757964,-8205,-19.54835111,-271047,5.05E-04,7,128,-5.895654666,-81746,14613.28125,20096,128
-0.014063718,-195,-19.54344684,-270979,0.009159447,127,128,-5.846828323,-81069,14632.8125,20736,128
-0.009231568,-128,-19.51423758,-270574,0.078179846,1084,128,-5.782063101,-80171,14652.34375,21376,128
-2.88E-04,-4,-19.4979381,-270348,0.12931408,1793,128,-5.77095637,-80017,14671.875,22016,128
-0.002307892,-32,-19.51250667,-270550,0.008077622,112,128,-5.839255552,-80964,14691.40625,22656,128
-0.00887096,-123,-19.56075603,-271219,0.00973642,135,128,-5.898467409,-81785,14710.9375,23296,128
-0.018102529,-251,-19.57806523,-271459,1.168298265,16199,128,-5.9414519,-82381,14730.46875,23936,128
-0.665826877,-9232,-19.5779931,-271458,1.177097103,16321,128,-5.954433793,-82561,14750,24576,128
-0.593128275,-8224,-19.58527739,-271559,1.177529833,16327,128,-5.958472605,-82617,14769.53125,25216,128
-0.030002598,-416,-19.61470301,-271967,1.181352279,16380,128,-5.968209024,-82752,14789.0625,25856,128
-0.101547253,-1408,-19.59501381,-271694,0.004471541,62,128,-5.903732288,-81858,14808.59375,26496,128
-0.447514707,-6205,-19.01429045,-263642,1.254555733,17395,128,-5.737924664,-79559,14828.125,27136,128
-0.071544656,-992,-19.10689463,-264926,0.941692107,13057,128,-6.072569021,-84199,14847.65625,27776,128
-0.572140881,-7933,-19.48041254,-270105,1.172914049,16263,128,-6.159403462,-85403,14867.1875,28416,128
-0.659840782,-9149,-19.59450896,-271687,1.181568644,16383,128,-5.99943769,-83185,14886.71875,29056,128
-0.129818932,-1800,-19.62537701,-272115,1.16764917,16190,128,-5.975637552,-82855,14906.25,29696,128
-0.619596913,-8591,-19.64823957,-272432,1.164259453,16143,128,-5.967920538,-82748,14925.78125,30336,128
-0.009231568,-128,-19.61535211,-271976,1.121563449,15551,128,-5.968858119,-82761,14945.3125,30976,128
-0.146623271,-2033,-19.64997049,-272456,1.173491022,16271,128,-5.958039875,-82611,14964.84375,31616,128
-0.23778501,-3297,-19.65509113,-272527,1.111250056,15408,128,-5.9644587,-82700,14984.375,32256,128
-0.595219802,-8253,-19.65775963,-272564,1.181568644,16383,128,-5.954578037,-82563,15003.90625,32896,128
-0.609067155,-8445,-19.66280814,-272634,1.111827029,15416,128,-5.956092591,-82584,15023.4375,33536,128
-0.594210099,-8239,-19.65949054,-272588,1.177169225,16322,128,-5.951909536,-82526,15042.96875,34176,128
-0.596301627,-8268,-19.65451415,-272519,1.181568644,16383,128,-5.930561534,-82230,15062.5,34816,128
-0.170856139,-2369,-19.68141552,-272892,1.163249751,16129,128,-6.012924434,-83372,15082.03125,35456,128
-0.591830086,-8206,-19.6593463,-272586,1.068049201,14809,128,-6.031099085,-83624,15101.5625,36096,128
-0.114312782,-1585,-19.6160012,-271985,1.15214302,15975,128,-6.001817703,-83218,15121.09375,36736,128
-0.111211552,-1542,-19.60114415,-271779,1.172625562,16259,128,-5.97332966,-82823,15140.625,37376,128
-0.106595767,-1478,-19.59443684,-271686,1.174644968,16287,128,-5.931354872,-82241,15160.15625,38016,128
-0.611086561,-8473,-19.60871692,-271884,1.173058292,16265,128,-5.921762696,-82108,15179.6875,38656,128
-0.059500344,-825,-19.61138542,-271921,1.16368248,16135,128,-5.92284452,-82123,15199.21875,39296,128
-0.129241959,-1792,-19.63525768,-272252,1.170101305,16224,128,-5.932076088,-82251,15218.75,39936,128
-0.627313927,-8698,-19.63511343,-272250,1.178178928,16336,128,-5.931354872,-82241,15238.28125,40576,128
-0.14568569,-2020,-19.63843103,-272296,1.181063793,16376,128,-5.921474209,-82104,15257.8125,41216,128
-0.738525479,-10240,-19.64896079,-272442,1.180198333,16364,128,-5.930705777,-82232,15277.34375,41856,128
-0.064765223,-898,-19.63569041,-272258,1.163033386,16126,128,-5.930417291,-82228,15296.875,42496,128
-0.626015738,-8680,-19.62638672,-272129,1.181280158,16379,128,-5.91931056,-82074,15316.40625,43136,128
-0.609139277,-8446,-19.6400177,-272318,1.177024982,16320,128,-5.930489413,-82229,15335.9375,43776,128
-0.625438765,-8672,-19.61758788,-272007,1.177097103,16321,128,-5.951404685,-82519,15355.46875,44416,128
-0.138545649,-1921,-19.63194008,-272206,1.165413399,16159,128,-5.955515618,-82576,15375,45056,128
-0.594570708,-8244,-19.62927158,-272169,1.110023988,15391,128,-5.950899834,-82512,15394.53125,45696,128
-0.032382611,-449,-19.64384015,-272371,1.172337076,16255,128,-5.971742984,-82801,15414.0625,46336,128
-0.599691343,-8315,-19.62480004,-272107,1.146733898,15900,128,-5.938422792,-82339,15433.59375,46976,128
-0.138545649,-1921,-19.61636181,-271990,0.003461838,48,128,-5.893851625,-81721,15453.125,47616,128
-0.115466728,-1601,-19.57590158,-271429,0.006923676,96,128,-5.845025283,-81044,15472.65625,48256,128
-0.072770723,-1009,-19.5716464,-271370,5.05E-04,7,128,-5.91267537,-81982,15492.1875,48896,128
-0.630054549,-8736,-19.6186697,-272022,1.180631063,16370,128,-5.964602943,-82702,15511.71875,49536,128
-0.590892505,-8193,-19.64896079,-272442,1.05030728,14563,128,-6.049994951,-83886,15531.25,50176,128
-0.147705096,-2048,-19.64715775,-272417,1.181568644,16383,128,-6.072569021,-84199,15550.78125,50816,128
-0.607191993,-8419,-19.65941842,-272587,1.181063793,16376,128,-6.075958738,-84246,15570.3125,51456,128
-0.598970127,-8305,-19.66331299,-272641,1.149546641,15939,128,-6.104158295,-84637,15589.84375,52096,128
-0.600051951,-8320,-19.68862768,-272992,1.175943157,16305,128,-6.061318047,-84043,15609.375,52736,128
-0.008366109,-116,-19.29844967,-267582,0.093541753,1297,128,-5.887072192,-81627,15628.90625,53376,128
-0.146623271,-2033,-19.0427785,-264037,1.158489723,16063,128,-6.080430279,-84308,15648.4375,54016,128
-0.651041943,-9027,-19.55404872,-271126,0.956549162,13263,128,-6.426541975,-89107,15667.96875,54656,128
-0.073636183,-1021,-19.63770981,-272286,1.175871036,16304,128,-6.21818259,-86218,15687.5,55296,128
-0.258267553,-3581,-19.68098279,-272886,1.105480326,15328,128,-6.150244015,-85276,15707.03125,55936,128
-0.656018335,-9096,-19.69670531,-273104,1.108004583,15363,128,-6.172962329,-85591,15726.5625,56576,128
-0.639286117,-8864,-19.6946859,-273076,1.125818625,15610,128,-6.168851396,-85534,15746.09375,57216,128
-0.648517686,-8992,-19.70023926,-273153,1.109374894,15382,128,-6.196762466,-85921,15765.625,57856,128
-0.663591106,-9201,-19.69259437,-273047,1.126107112,15614,128,-6.17260172,-85586,15785.15625,58496,128
-0.631785468,-8760,-19.69317135,-273055,1.174140116,16280,128,-6.190487884,-85834,15804.6875,59136,128
-0.599186492,-8308,-19.68999799,-273011,1.180342577,16366,128,-6.22351959,-86292,15824.21875,59776,128
-0.596373748,-8269,-19.69245013,-273045,1.112404002,15424,128,-6.231236605,-86399,15843.75,60416,128
-0.635680036,-8814,-19.70081624,-273161,1.123943463,15584,128,-6.233977226,-86437,15863.28125,61056,128
-0.817138054,-11330,-19.72339031,-273474,1.181424401,16381,128,-6.28460661,-87139,15882.8125,61696,128
-0.771268698,-10694,-19.71524056,-273361,1.180414698,16367,128,-6.291890894,-87240,15902.34375,62336,128
-0.606759263,-8413,-19.6786749,-272854,1.181568644,16383,128,-6.302492774,-87387,15921.875,62976,128
-0.590892505,-8193,-19.65696629,-272553,1.179837725,16359,128,-6.280495677,-87082,15941.40625,63616,128
-0.740761249,-10271,-19.64874442,-272439,1.13577141,15748,128,-6.249483377,-86652,15960.9375,64256,128
-0.594354343,-8241,-19.67528518,-272807,1.107788218,15360,128,-6.24962762,-86654,15980.46875,64896,128
-0.627241805,-8697,-19.67427548,-272793,1.123871341,15583,128,-6.242920308,-86561,16000,0,128
-0.625510886,-8673,-19.6726888,-272771,1.179477117,16354,128,-6.251647026,-86682,16019.53125,640,128
-0.591830086,-8206,-19.68927678,-273001,1.108293069,15367,128,-6.250204593,-86662,16039.0625,1280,128
-0.664672931,-9216,-19.70247504,-273184,1.107788218,15360,128,-6.25626281,-86746,16058.59375,1920,128
-0.777615401,-10782,-19.68516584,-272944,1.126179233,15615,128,-6.260517986,-86805,16078.125,2560,128
-0.590892505,-8193,-19.70197018,-273177,1.113269462,15436,128,-6.262753756,-86836,16097.65625,3200,128
-0.73946306,-10253,-19.70247504,-273184,1.179332874,16352,128,-6.276961717,-87033,16117.1875,3840,128
-0.280697379,-3892,-19.70384535,-273203,1.181063793,16376,128,-6.281433258,-87095,16136.71875,4480,128
-0.590964626,-8194,-19.7037011,-273201,1.167504927,16188,128,-6.290159975,-87216,16156.25,5120,128
-0.277019176,-3841,-19.70153745,-273171,1.172625562,16259,128,-6.285688434,-87154,16175.78125,5760,128
-0.849376422,-11777,-19.7187024,-273409,1.107716096,15359,128,-6.292107259,-87243,16195.3125,6400,128
-0.739174573,-10249,-19.72274121,-273465,1.104398501,15313,128,-6.293766057,-87266,16214.84375,7040,128
-0.291082894,-4036,-19.70622536,-273236,1.109879745,15389,128,-6.273067149,-86979,16234.375,7680,128
-0.655369241,-9087,-19.69821986,-273125,1.179260752,16351,128,-6.220995333,-86257,16253.90625,8320,128
-0.590964626,-8194,-19.68949314,-273004,1.146733898,15900,128,-6.155725259,-85352,16273.4375,8960,128
-0.600340438,-8324,-19.65905781,-272582,1.140675681,15816,128,-6.209816481,-86102,16292.96875,9600,128
-0.594931316,-8249,-19.68985375,-273009,1.179332874,16352,128,-6.249771863,-86656,16312.5,10240,128
-0.663591106,-9201,-19.71062478,-273297,1.089325081,15104,128,-6.31208495,-87520,16332.03125,10880,128
-0.222639468,-3087,-19.73817524,-273679,1.054129726,14616,128,-6.34396271,-87962,16351.5625,11520,128
-0.669216593,-9279,-19.72317394,-273471,1.03393567,14336,128,-6.346631211,-87999,16371.09375,12160,128
-0.844688516,-11712,-19.7443777,-273765,1.03393567,14336,128,-6.353122157,-88089,16390.625,12800,128
-0.884571777,-12265,-19.75851354,-273961,1.03393567,14336,128,-6.347857278,-88016,16410.15625,13440,128
-0.259060891,-3592,-19.50753027,-270481,0.017886164,248,128,-6.157816787,-85381,16429.6875,14080,128
-0.018391015,-255,-19.0908115,-264703,0.00223577,31,128,-6.196762466,-85921,16449.21875,14720,128
-0.581660936,-8065,-19.57936342,-271477,0.474848804,6584,128,-6.696925962,-92856,16468.75,15360,128
-0.29137138,-4040,-19.68747374,-272976,0.941908472,13060,128,-6.438730531,-89276,16488.28125,16000,128
-0.867767437,-12032,-19.76933179,-274111,1.172481319,16257,128,-6.357016725,-88143,16507.8125,16640,128
-0.646786767,-8968,-19.76868269,-274102,1.036532049,14372,128,-6.341438453,-87927,16527.34375,17280,128
-1.172409197,-16256,-19.77964518,-274254,1.051966077,14586,128,-6.341943305,-87934,16546.875,17920,128
-0.593128275,-8224,-19.79277131,-274436,1.066101917,14782,128,-6.327735344,-87737,16566.40625,18560,128
-1.172914049,-16263,-19.78721795,-274359,1.109519137,15384,128,-6.321893492,-87656,16585.9375,19200,128
-0.885076628,-12272,-19.78974221,-274394,1.111250056,15408,128,-6.324994722,-87699,16605.46875,19840,128
-0.895462143,-12416,-19.81065748,-274684,1.09855665,15232,128,-6.314392843,-87552,16625,20480,128
-0.904044617,-12535,-19.80452714,-274599,1.091560852,15135,128,-6.310426153,-87497,16644.53125,21120,128
-1.180414698,-16367,-19.81967268,-274809,1.050018793,14559,128,-6.330692331,-87778,16664.0625,21760,128
-0.886446939,-12291,-19.8203939,-274819,1.036099319,14366,128,-6.349155468,-88034,16683.59375,22400,128
-1.035017495,-14351,-19.83590005,-275034,1.181568644,16383,128,-6.366031929,-88268,16703.125,23040,128
-1.036243562,-14368,-19.80149803,-274557,1.16368248,16135,128,-6.369349524,-88314,16722.65625,23680,128
-0.6252224,-8669,-19.76601419,-274065,1.112043394,15419,128,-6.321244397,-87647,16742.1875,24320,128
-0.85060249,-11794,-19.76147053,-274002,1.108942164,15376,128,-6.276240501,-87023,16761.71875,24960,128
-0.718042936,-9956,-19.77062997,-274129,1.17918863,16350,128,-6.243280917,-86566,16781.25,25600,128
-0.701743448,-9730,-19.77026937,-274124,1.144930857,15875,128,-6.239169984,-86509,16800.78125,26240,128
-0.883850561,-12255,-19.79010281,-274399,1.163754602,16136,128,-6.235275416,-86455,16820.3125,26880,128
-1.144858735,-15874,-19.81765328,-274781,1.172409197,16256,128,-6.232318429,-86414,16839.84375,27520,128
-1.049009091,-14545,-19.80755625,-274641,1.179837725,16359,128,-6.228640226,-86363,16859.375,28160,128
-1.181640766,-16384,-19.82082663,-274825,1.163105507,16127,128,-6.224024442,-86299,16878.90625,28800,128
-0.914213766,-12676,-19.8247212,-274879,1.163754602,16136,128,-6.219192293,-86232,16898.4375,29440,128
-0.895390021,-12415,-19.81022475,-274678,1.151061195,15960,128,-6.229649929,-86377,16917.96875,30080,128
-0.892144548,-12370,-19.82609151,-274898,1.181568644,16383,128,-6.227774766,-86351,16937.5,30720,128
-1.036243562,-14368,-19.85191105,-275256,1.176375887,16311,128,-6.228640226,-86363,16957.03125,31360,128
-0.887168156,-12301,-19.8534256,-275277,1.144714492,15872,128,-6.239746957,-86517,16976.5625,32000,128
-0.886302696,-12289,-19.83178912,-274977,1.153369087,15992,128,-6.232895402,-86422,16996.09375,32640,128
-1.145291465,-15880,-19.83553944,-275029,1.145363587,15881,128,-6.229938415,-86381,17015.625,33280,128
-1.165269156,-16157,-19.85227166,-275261,1.15214302,15975,128,-6.223880198,-86297,17035.15625,33920,128
-1.073458323,-14884,-19.86431597,-275428,1.108293069,15367,128,-6.162288327,-85443,17054.6875,34560,128
-0.890846359,-12352,-19.83402489,-275008,1.112331881,15423,128,-6.107403768,-84682,17074.21875,35200,128
-0.909093131,-12605,-19.81426356,-274734,1.146084803,15891,128,-6.086560617,-84393,17093.75,35840,128
-1.051677591,-14582,-19.82868789,-274934,1.102595461,15288,128,-6.162648936,-85448,17113.28125,36480,128
-1.100936663,-15265,-19.86006079,-275369,1.181135914,16377,128,-6.212052251,-86133,17132.8125,37120,128
-1.163466115,-16132,-19.89612161,-275869,1.177169225,16322,128,-6.259941013,-86797,17152.34375,37760,128
-1.15394606,-16000,-19.90867077,-276043,1.109951867,15390,128,-6.266936811,-86894,17171.875,38400,128
-1.173635265,-16273,-19.91761385,-276167,1.112259759,15422,128,-6.268884095,-86921,17191.40625,39040,128
-0.951067919,-13187,-19.93290364,-276379,1.107643975,15358,128,-6.279918704,-87074,17210.9375,39680,128
-1.180703185,-16371,-19.88537549,-275720,1.177529833,16327,128,-6.156734962,-85366,17230.46875,40320,128
-0.447370463,-6203,-19.39978056,-268987,0.221485522,3071,128,-5.989052175,-83041,17250,40960,128
-0.00353396,-49,-19.36227731,-268467,1.181496523,16382,128,-6.320595303,-87638,17269.53125,41600,128
-0.73636183,-10210,-19.79060767,-274406,0.589017342,8167,128,-6.500971496,-90139,17289.0625,42240,128
-1.180558941,-16369,-19.89568888,-275863,1.043095117,14463,128,-6.315041937,-87561,17308.59375,42880,128
-1.038479333,-14399,-19.96716141,-276854,1.105913056,15334,128,-6.280495677,-87082,17328.125,43520,128
-1.112548245,-15426,-19.94552492,-276554,1.109519137,15384,128,-6.271119865,-86952,17347.65625,44160,128
-1.127188936,-15629,-19.94848191,-276595,1.109807624,15388,128,-6.267081054,-86896,17367.1875,44800,128
-1.16411521,-16141,-19.94227945,-276509,1.175871036,16304,128,-6.283164177,-87119,17386.71875,45440,128
-1.142550843,-15842,-19.96398806,-276810,1.108870042,15375,128,-6.275230798,-87009,17406.25,46080,128
-1.181640766,-16384,-19.96557474,-276832,1.172481319,16257,128,-6.267297419,-86899,17425.78125,46720,128
-1.181640766,-16384,-19.95562195,-276694,1.181568644,16383,128,-6.282803569,-87114,17445.3125,47360,128
-1.034007792,-14337,-19.94502007,-276547,1.092931162,15154,128,-6.292323624,-87246,17464.84375,48000,128
-1.178251049,-16337,-19.94602978,-276561,1.171760103,16247,128,-6.287347232,-87177,17484.375,48640,128
-1.042950874,-14461,-19.95475649,-276682,1.109951867,15390,128,-6.330331723,-87773,17503.90625,49280,128
-1.035089616,-14352,-19.95057344,-276624,1.163754602,16136,128,-6.368988916,-88309,17523.4375,49920,128
-1.03393567,-14336,-19.89381372,-275837,1.125746504,15609,128,-6.340356629,-87912,17542.96875,50560,128
-0.969603177,-13444,-19.87700938,-275604,1.17471709,16288,128,-6.302420652,-87386,17562.5,51200,128
-1.146589654,-15898,-19.90455984,-275986,1.09192146,15140,128,-6.311219491,-87508,17582.03125,51840,128
-0.970468637,-13456,-19.87895666,-275631,1.163393994,16131,128,-6.293405449,-87261,17601.5625,52480,128
-0.960732217,-13321,-19.86698447,-275465,1.15394606,16000,128,-6.301555193,-87374,17621.09375,53120,128
-1.14594056,-15889,-19.89237128,-275817,1.151854533,15971,128,-6.30631522,-87440,17640.625,53760,128
-0.997442126,-13830,-19.90715622,-276022,1.062063105,14726,128,-6.322037735,-87658,17660.15625,54400,128
-0.997081518,-13825,-19.90657924,-276014,1.153873939,15999,128,-6.337327521,-87870,17679.6875,55040,128
-0.998668194,-13847,-19.91400777,-276117,1.153008479,15987,128,-6.30588249,-87434,17699.21875,55680,128
-0.960155244,-13313,-19.88559185,-275723,1.107788218,15360,128,-6.35016517,-88048,17718.75,56320,128
-0.939456336,-13026,-19.91970538,-276196,1.112404002,15424,128,-6.345116656,-87978,17738.28125,56960,128
-1.015472533,-14080,-19.88220213,-275676,1.172409197,16256,128,-6.360117955,-88186,17757.8125,57600,128
-0.925753227,-12836,-19.90585803,-276004,1.125962868,15612,128,-6.393654513,-88651,17777.34375,58240,128
-1.141252654,-15824,-19.89056824,-275792,1.181496523,16382,128,-6.366176172,-88270,17796.875,58880,128
-0.889836656,-12338,-19.89085673,-275796,1.108220948,15366,128,-6.390625404,-88609,17816.40625,59520,128
-0.890846359,-12352,-19.87087904,-275519,1.164836426,16151,128,-6.381970809,-88489,17835.9375,60160,128
-0.990662693,-13736,-19.87304269,-275549,1.181568644,16383,128,-6.335812966,-87849,17855.46875,60800,128
-0.888105737,-12314,-19.8197448,-274810,1.181568644,16383,128,-6.285832678,-87156,17875,61440,128
-0.903611887,-12529,-19.82832728,-274929,1.173563143,16272,128,-6.292323624,-87246,17894.53125,62080,128
-1.045475131,-14496,-19.86114262,-275384,1.146806019,15901,128,-6.381538079,-88483,17914.0625,62720,128
-1.180558941,-16369,-19.89071249,-275794,1.037253265,14382,128,-6.468011912,-89682,17933.59375,63360,128
-1.019655588,-14138,-19.88804399,-275757,1.048287874,14535,128,-6.502197564,-90156,17953.125,64000,128
-0.997297883,-13828,-19.9044156,-275984,0.581588814,8064,128,-6.508183659,-90239,17972.65625,64640,128
-0.997153639,-13826,-19.90088164,-275935,0.521511498,7231,128,-6.537969892,-90652,17992.1875,65280,128
-1.043167239,-14464,-19.94624614,-276564,0.553894109,7680,128,-6.533354108,-90588,18011.71875,384,128
-1.10786034,-15361,-19.87138389,-275526,5.05E-04,7,128,-6.437432341,-89258,18031.25,1024,128
-0.415420582,-5760,-19.28402535,-267382,0.090224158,1251,128,-6.415507366,-88954,18050.78125,1664,128
-1.177097103,-16321,-19.70485505,-273217,0.019256475,267,128,-6.812176324,-94454,18070.3125,2304,128
-1.052398807,-14592,-19.84354494,-275140,0.582454274,8076,128,-6.662019093,-92372,18089.84375,2944,128
-1.153369087,-15992,-19.91869568,-276182,0.460280235,6382,128,-6.597253871,-91474,18109.375,3584,128
-1.181640766,-16384,-19.93420183,-276397,0.514948429,7140,128,-6.596388411,-91462,18128.90625,4224,128
-1.166423102,-16173,-19.92497026,-276269,0.516895713,7167,128,-6.586796234,-91329,18148.4375,4864,128
-1.181640766,-16384,-19.93694245,-276435,0.556129879,7711,128,-6.598263573,-91488,18167.96875,5504,128
-1.017708304,-14111,-19.92396056,-276255,0.512568416,7107,128,-6.604682398,-91577,18187.5,6144,128
-1.034079913,-14338,-19.94119763,-276494,0.502543509,6968,128,-6.605692101,-91591,18207.03125,6784,128
-1.043095117,-14463,-19.94934737,-276607,0.511702956,7095,128,-6.605908466,-91594,18226.5625,7424,128
-1.038623576,-14401,-19.94631826,-276565,0.556202001,7712,128,-6.607350899,-91614,18246.09375,8064,128
-1.043167239,-14464,-19.9487704,-276599,0.472180304,6547,128,-6.62689586,-91885,18265.625,8704,128
-1.112404002,-15424,-19.96319472,-276799,0.44989472,6238,128,-6.640382605,-92072,18285.15625,9344,128
-1.034007792,-14337,-19.95064556,-276625,0.583824585,8095,128,-6.668437918,-92461,18304.6875,9984,128
-1.152864236,-15985,-19.94833767,-276593,0.572285124,7935,128,-6.670096716,-92484,18324.21875,10624,128
-1.145291465,-15880,-19.91523384,-276134,0.590748261,8191,128,-6.648892957,-92190,18343.75,11264,128
-0.895462143,-12416,-19.91191625,-276088,0.560889907,7777,128,-6.604249669,-91571,18363.28125,11904,128
-1.153873939,-15999,-19.92107569,-276215,0.514659943,7136,128,-6.586724113,-91328,18382.8125,12544,128
-0.903828252,-12532,-19.91847931,-276179,0.521511498,7231,128,-6.57020826,-91099,18402.34375,13184,128
-1.034007792,-14337,-19.94667887,-276570,0.574448773,7965,128,-6.563861557,-91011,18421.875,13824,128
-1.043311482,-14466,-19.96016562,-276757,0.565361448,7839,128,-6.563933678,-91012,18441.40625,14464,128
-1.052398807,-14592,-19.95562195,-276694,0.589882802,8179,128,-6.56003911,-90958,18460.9375,15104,128
-1.051821834,-14584,-19.97062325,-276902,0.571708151,7927,128,-6.555062718,-90889,18480.46875,15744,128
-1.038767819,-14403,-19.95425164,-276675,0.590748261,8191,128,-6.556072421,-90903,18500,16384,128
-1.034873251,-14349,-19.98266756,-277069,0.558437772,7743,128,-6.559390016,-90949,18519.53125,17024,128
-1.067977079,-14808,-19.97422933,-276952,0.590531896,8188,128,-6.559245772,-90947,18539.0625,17664,128
-1.106922758,-15348,-19.99009609,-277172,0.572573611,7939,128,-6.554197258,-90877,18558.59375,18304,128
-1.052687294,-14596,-19.99586582,-277252,0.589666437,8176,128,-6.552899069,-90859,18578.125,18944,128
-1.069707998,-14832,-20.00805438,-277421,0.586204599,8128,128,-6.549653596,-90814,18597.65625,19584,128
-1.181640766,-16384,-19.99817371,-277284,0.520429673,7216,128,-6.545903271,-90762,18617.1875,20224,128
-1.172553441,-16258,-20.00553012,-277386,0.554543204,7689,128,-6.534147445,-90599,18636.71875,20864,128
-1.096537244,-15204,-20.00336647,-277356,1.12603499,15613,128,-6.48827809,-89963,18656.25,21504,128
-1.096320879,-15201,-20.00084221,-277321,1.107788218,15360,128,-6.416949799,-88974,18675.78125,22144,128
-1.050595766,-14567,-19.97358024,-276943,1.125962868,15612,128,-6.390841769,-88612,18695.3125,22784,128
-1.090551149,-15121,-19.98533606,-277106,1.066174038,14783,128,-6.466857966,-89666,18714.84375,23424,128
-1.094229352,-15172,-20.00185192,-277335,0.585843991,8123,128,-6.504072726,-90182,18734.375,24064,128
-1.110384597,-15396,-20.04887522,-277987,0.572357246,7936,128,-6.554125137,-90876,18753.90625,24704,128
-1.175294063,-16296,-20.04512489,-277935,0.590748261,8191,128,-6.55737061,-90921,18773.4375,25344,128
-1.145002978,-15876,-20.05269766,-278040,0.5171842,7171,128,-6.559966989,-90957,18792.96875,25984,128
-1.152864236,-15985,-20.06733836,-278243,0.582093666,8071,128,-6.571794936,-91121,18812.5,26624,128
-0.004615784,-64,-20.0914991,-278578,0.558437772,7743,128,-6.523689809,-90454,18832.03125,27264,128
-0.590964626,-8194,-19.58318586,-271530,0.156864543,2175,128,-6.333505074,-87817,18851.5625,27904,128
-0.291659867,-4044,-19.48986047,-270236,0.588224004,8156,128,-6.589825343,-91371,18871.09375,28544,128
-1.038623576,-14401,-19.94675099,-276571,0.143089311,1984,128,-6.802439905,-94319,18890.625,29184,128
-1.181640766,-16384,-20.06762684,-278247,0.580362747,8047,128,-6.601941777,-91539,18910.15625,29824,128
-4.33E-04,-6,-20.09878339,-278679,0.575819084,7984,128,-6.563789435,-91010,18929.6875,30464,128
-7.21E-05,-1,-20.08861424,-278538,0.535935823,7431,128,-6.550591177,-90827,18949.21875,31104,128
-0.026829246,-372,-20.11356832,-278884,0.526127282,7295,128,-6.546263879,-90767,18968.75,31744,128
-0.013991596,-194,-20.10390402,-278750,0.548989838,7612,128,-6.540854757,-90692,18988.28125,32384,128
-1.183371685,-16408,-20.12647809,-279063,0.5171842,7171,128,-6.540061419,-90681,19007.8125,33024,128
-7.21E-05,-1,-20.12402596,-279029,0.589017342,8167,128,-6.532705013,-90579,19027.34375,33664,128
-0.055677897,-772,-20.12539627,-279048,0.554254717,7685,128,-6.535012905,-90611,19046.875,34304,128
-2.88E-04,-4,-20.13203146,-279140,0.5198527,7208,128,-6.54229719,-90712,19066.40625,34944,128
-0.036421423,-505,-20.12279989,-279012,0.521511498,7231,128,-6.55073542,-90829,19085.9375,35584,128
-0.05978883,-829,-20.13354601,-279161,0.582670639,8079,128,-6.569487044,-91089,19105.46875,36224,128
-0.03584445,-497,-20.1134962,-278883,0.57343907,7951,128,-6.590258073,-91377,19125,36864,128
-1.189069294,-16487,-20.09589852,-278639,0.582887004,8082,128,-6.578502247,-91214,19144.53125,37504,128
-1.149258155,-15935,-20.05406798,-278059,1.116082205,15475,128,-6.490730225,-89997,19164.0625,38144,128
-1.145868438,-15888,-20.05558253,-278080,1.098628771,15233,128,-6.449188167,-89421,19183.59375,38784,128
-1.149113911,-15933,-20.05796254,-278113,1.070789822,14847,128,-6.463973101,-89626,19203.125,39424,128
-1.170029184,-16223,-20.07628144,-278367,1.089829932,15111,128,-6.46173733,-89595,19222.65625,40064,128
-1.165774008,-16164,-20.07801236,-278391,1.061702497,14721,128,-6.470752534,-89720,19242.1875,40704,128
-1.179404995,-16353,-20.08594574,-278501,1.107716096,15359,128,-6.452938491,-89473,19261.71875,41344,128
-1.174572846,-16286,-20.08313299,-278462,1.069707998,14832,128,-6.473348912,-89756,19281.25,41984,128
-9.38E-04,-13,-20.08854211,-278537,1.064443119,14759,128,-6.468011912,-89682,19300.78125,42624,128
-1.167865535,-16193,-20.07498325,-278349,1.114711894,15456,128,-6.46440583,-89632,19320.3125,43264,128
-1.180558941,-16369,-20.07642568,-278369,1.110023988,15391,128,-6.473853764,-89763,19339.84375,43904,128
-1.172409197,-16256,-20.07570446,-278359,1.107788218,15360,128,-6.471257385,-89727,19359.375,44544,128
-1.146950262,-15903,-20.0648141,-278208,1.122212544,15560,128,-6.465776141,-89651,19398.4375,45824,128
-1.154090304,-16002,-20.05587102,-278084,1.112259759,15422,128,-6.488855063,-89971,19417.96875,46464,128
-1.181568644,-16383,-20.05572677,-278082,1.110168232,15393,128,-6.489359914,-89978,19437.5,47104,128
-1.174572846,-16286,-20.04512489,-277935,1.153008479,15987,128,-6.457121546,-89531,19457.03125,47744,128
-1.181568644,-16383,-20.02983511,-277723,1.144786614,15873,128,-6.392139958,-88630,19476.5625,48384,128
-1.17918863,-16350,-20.00336647,-277356,1.144570249,15870,128,-6.373532578,-88372,19496.09375,49024,128
-1.036027197,-14365,-19.99492824,-277239,1.125962868,15612,128,-6.449188167,-89421,19515.625,49664,128
-1.180558941,-16369,-20.02536357,-277661,1.103388799,15299,128,-6.474791345,-89776,19535.15625,50304,128
-1.145291465,-15880,-20.05716921,-278102,0.519708457,7206,128,-6.565520354,-91034,19554.6875,50944,128
-1.144786614,-15873,-20.06503046,-278211,0.572789976,7942,128,-6.589536856,-91367,19574.21875,51584,128
-1.17471709,-16288,-20.0684923,-278259,0.556057758,7710,128,-6.621630981,-91812,19593.75,52224,128
-1.181063793,-16376,-20.05954922,-278135,0.517977538,7182,128,-6.630069212,-91929,19613.28125,52864,128
-1.145868438,-15888,-20.08565725,-278497,0.447803193,6209,128,-6.611533953,-91672,19632.8125,53504,128
-1.062135227,-14727,-19.75324866,-273888,0,0,128,-6.414641907,-88942,19652.34375,54144,128
-0.572645732,-7940,-19.37150888,-268595,0.12974681,1799,128,-6.531190459,-90558,19671.875,54784,128
-0.960660095,-13320,-19.92222964,-276231,0.016227366,225,128,-6.990388869,-96925,19691.40625,55424,128
-1.18005409,-16362,-20.00653982,-277400,0.221629765,3073,128,-6.738179533,-93428,19710.9375,56064,128
-1.177024982,-16320,-20.06539107,-278216,0.53535885,7423,128,-6.682068906,-92650,19730.46875,56704,128
-1.179404995,-16353,-20.06596804,-278224,0.55793292,7736,128,-6.672404608,-92516,19750,57344,128
-1.148825425,-15929,-20.05291403,-278043,0.553605622,7676,128,-6.700171435,-92901,19769.53125,57984,128
-1.164331575,-16144,-20.06358803,-278191,0.533627931,7399,128,-6.691661083,-92783,19789.0625,58624,128
-1.146733898,-15900,-20.05471707,-278068,0.554038352,7682,128,-6.700532043,-92906,19808.59375,59264,128
-1.145652073,-15885,-20.06019831,-278144,0.524179998,7268,128,-6.69375261,-92812,19828.125,59904,128
-1.181640766,-16384,-20.05853952,-278121,0.519275727,7200,128,-6.71192726,-93064,19847.65625,60544,128
-1.179404995,-16353,-20.04274488,-277902,0.589666437,8176,128,-6.719139423,-93164,19867.1875,61184,128
-1.174500725,-16285,-20.08558513,-278496,0.512352051,7104,128,-6.743877142,-93507,19886.71875,61824,128
-1.180631063,-16370,-20.06618441,-278227,0.562476583,7799,128,-6.768903347,-93854,19906.25,62464,128
-1.17471709,-16288,-20.06438137,-278202,0.534277026,7408,128,-6.782606457,-94044,19925.78125,63104,128
-1.180775306,-16372,-20.0514716,-278023,0.281779204,3907,128,-6.794001674,-94202,19945.3125,63744,128
-1.173058292,-16265,-19.99586582,-277252,0.53535885,7423,128,-6.762412401,-93764,19964.84375,64384,128
-1.17738559,-16325,-20.01404047,-277504,0.519780579,7207,128,-6.744093507,-93510,19984.375,65024,128
-1.179909847,-16360,-20.01735807,-277550,0.516967835,7168,128,-6.722745505,-93214,20003.90625,128,128
-1.145002978,-15876,-20.01894474,-277572,0.517328443,7173,128,-6.730534641,-93322,20023.4375,768,128
-1.181568644,-16383,-20.0171417,-277547,0.572429368,7937,128,-6.737386195,-93417,20042.96875,1408,128
-1.116947665,-15487,-20.02990723,-277724,0.516679349,7164,128,-6.740775912,-93464,20062.5,2048,128
-1.144786614,-15873,-20.0401485,-277866,0.507592023,7038,128,-6.739910452,-93452,20082.03125,2688,128
-1.135266559,-15741,-20.04130245,-277882,0.508890213,7056,128,-6.75087294,-93604,20101.5625,3328,128
-1.145868438,-15888,-20.04736066,-277966,0.516030254,7155,128,-6.764936658,-93799,20121.09375,3968,128
-1.145868438,-15888,-20.04923583,-277992,0.516895713,7167,128,-6.758806319,-93714,20140.625,4608,128
-1.174500725,-16285,-20.05421222,-278061,0.516535105,7162,128,-6.753036589,-93634,20160.15625,5248,128
-1.181568644,-16383,-20.05839527,-278119,0.52605516,7294,128,-6.758229346,-93706,20179.6875,5888,128
-1.179332874,-16352,-20.06005407,-278142,0.478310642,6632,128,-6.776043388,-93953,20199.21875,6528,128
-1.174572846,-16286,-20.04916371,-277991,0.521583619,7232,128,-6.766667577,-93823,20218.75,7168,128
-1.167865535,-16193,-20.05825103,-278117,0.461506303,6399,128,-6.779577348,-94002,20238.28125,7808,128
-1.177313468,-16324,-20.05327464,-278048,0.52605516,7294,128,-6.74113652,-93469,20257.8125,8448,128
-1.177169225,-16322,-20.05096675,-278016,0.590748261,8191,128,-6.687910758,-92731,20277.34375,9088,128
-1.172481319,-16257,-20.03603757,-277809,0.576900909,7999,128,-6.643772321,-92119,20296.875,9728,128
-1.114784016,-15457,-20.01562715,-277526,0.461506303,6399,128,-6.67161127,-92505,20316.40625,10368,128
-1.181135914,-16377,-20.06322742,-278186,0.553894109,7680,128,-6.719572153,-93170,20335.9375,11008,128
-1.180847428,-16373,-20.08363784,-278469,0.45342868,6287,128,-6.784481619,-94070,20355.46875,11648,128
-0.017381313,-241,-20.09236456,-278590,0.277163419,3843,128,-6.815710284,-94503,20375,12288,128
-0.001298189,-18,-20.11003436,-278835,0.290145313,4023,128,-6.820326068,-94567,20394.53125,12928,128
-0.018246772,-253,-20.12323262,-279018,0.290217434,4024,128,-6.822489717,-94597,20414.0625,13568,128
-0.002163649,-30,-20.13037266,-279117,0.294256245,4080,128,-6.826240042,-94649,20433.59375,14208,128
-1.180558941,-16369,-19.94855403,-276596,0.002091527,29,128,-6.648099619,-92179,20453.125,14848,128
-0.592623424,-8217,-19.47673434,-270054,0.206628466,2865,128,-6.625814036,-91870,20472.65625,15488,128
-1.034224157,-14340,-19.79767559,-274504,0.016443731,228,128,-7.001856208,-97084,20492.1875,16128,128
-1.179909847,-16360,-20.04123033,-277881,0.036854152,511,128,-6.919493308,-95942,20511.71875,16768,128
-0.041686301,-578,-20.12972356,-279108,0.261945756,3632,128,-6.813979365,-94479,20531.25,17408,128
-1.188780807,-16483,-20.15828373,-279504,0.294256245,4080,128,-6.80135808,-94304,20550.78125,18048,128
-0.062385209,-865,-20.15994253,-279527,0.295265948,4094,128,-6.788231944,-94122,20570.3125,18688,128
-0.147705096,-2048,-20.16527953,-279601,0.521583619,7232,128,-6.778423402,-93986,20589.84375,19328,128
-0.009231568,-128,-20.15597584,-279472,0.534853999,7416,128,-6.784481619,-94070,20609.375,19968,128
-1.181712887,-16385,-20.17061653,-279675,0.519275727,7200,128,-6.769696685,-93865,20628.90625,20608,128
-0.036926274,-512,-20.18035295,-279810,0.479753075,6652,128,-6.76681182,-93825,20648.4375,21248,128
-0.103927267,-1441,-20.18316569,-279849,0.471386966,6536,128,-6.766162725,-93816,20667.96875,21888,128
-0.036637787,-508,-20.1948494,-280011,0.476507601,6607,128,-6.781019781,-94022,20687.5,22528,128
-0.109985484,-1525,-20.18799784,-279916,0.519203606,7199,128,-6.79291985,-94187,20707.03125,23168,128
-1.183948658,-16416,-20.18590631,-279887,0.262234242,3636,128,-6.820253947,-94566,20726.5625,23808,128
-0.004110933,-57,-20.18193962,-279832,0.294544732,4084,128,-6.82660065,-94654,20746.09375,24448,128
-0.065197952,-904,-20.15280249,-279428,0.281562839,3904,128,-6.778495524,-93987,20765.625,25088,128
-0.065197952,-904,-20.13109388,-279127,0.554110474,7683,128,-6.74027106,-93457,20785.15625,25728,128
-6.49E-04,-9,-20.16261103,-279564,0.587214301,8142,128,-6.714956369,-93106,20804.6875,26368,128
-0.00353396,-49,-20.16138496,-279547,0.517256322,7172,128,-6.696204745,-92846,20824.21875,27008,128
-0.108759416,-1508,-20.18049719,-279812,0.582670639,8079,128,-6.691877448,-92786,20843.75,27648,128
-0.083084116,-1152,-20.18915179,-279932,0.525117579,7281,128,-6.692310177,-92792,20863.28125,28288,128
-8.65E-04,-12,-20.2055234,-280159,0.586132477,8127,128,-6.689064704,-92747,20882.8125,28928,128
-0.027838949,-386,-20.20263853,-280119,0.525694552,7289,128,-6.686828934,-92716,20902.34375,29568,128
-0.036421423,-505,-20.19795063,-280054,0.590531896,8188,128,-6.688199245,-92735,20921.875,30208,128
-0.113663687,-1576,-20.20155671,-280104,0.584978531,8111,128,-6.680410109,-92627,20941.40625,30848,128
-0.147488731,-2045,-20.21223071,-280252,0.589666437,8176,128,-6.684304677,-92681,20960.9375,31488,128
-0.051134235,-709,-20.21403375,-280277,0.590459775,8187,128,-6.68401619,-92677,20980.46875,32128,128
-0.147128123,-2040,-20.23170355,-280522,0.590748261,8191,128,-6.688848339,-92744,21000,32768,128
-0.009520055,-132,-20.20595613,-280165,0.525910917,7292,128,-6.681564055,-92643,21019.53125,33408,128
-0.14568569,-2020,-20.22427502,-280419,0.589666437,8176,128,-6.684160433,-92679,21039.0625,34048,128
-0.018463137,-256,-20.22636655,-280448,0.581588814,8064,128,-6.670529445,-92490,21058.59375,34688,128
-1.183948658,-16416,-20.21396163,-280276,0.517977538,7182,128,-6.587733816,-91342,21078.125,35328,128
-0.041542058,-576,-20.20314338,-280126,0.572429368,7937,128,-6.585209559,-91307,21097.65625,35968,128
-0.013919474,-193,-20.18958452,-279938,0.519564214,7204,128,-6.551240271,-90836,21117.1875,36608,128
-0.092243563,-1279,-20.16354861,-279577,0.588584612,8161,128,-6.589464735,-91366,21136.71875,37248,128
-0.101619375,-1409,-20.19383969,-279997,0.447442585,6204,128,-6.610091521,-91652,21156.25,37888,128
-0.001226068,-17,-20.23725691,-280599,0.572068759,7932,128,-6.701325381,-92917,21175.78125,38528,128
-0.146623271,-2033,-20.23646357,-280588,0.589666437,8176,128,-6.722024288,-93204,21195.3125,39168,128
-0.140781419,-1952,-20.23184779,-280524,0.58447368,8104,128,-6.734284965,-93374,21214.84375,39808,128
-0.262883337,-3645,-20.24482968,-280704,0.5145157,7134,128,-6.747988075,-93564,21234.375,40448,128
-0.240020781,-3328,-20.26379767,-280967,0.515886011,7153,128,-6.725125518,-93247,21253.90625,41088,128
-0.03497899,-485,-19.98771608,-277139,0.001947284,27,128,-6.53789777,-90651,21273.4375,41728,128
-0.606975628,-8416,-19.51265091,-270552,0.007933379,110,128,-6.583406518,-91282,21292.96875,42368,128
-1.181424401,-16381,-20.06301106,-278183,0,0,128,-7.096912515,-98402,21312.5,43008,128
-0.130323783,-1807,-20.16600074,-279611,0.147416609,2044,128,-6.836841921,-94796,21332.03125,43648,128
-0.259060891,-3592,-20.24338725,-280684,0.461506303,6399,128,-6.765369387,-93805,21351.5625,44288,128
-0.23735228,-3291,-20.25182548,-280801,0.496196806,6880,128,-6.742795318,-93492,21371.09375,44928,128
-0.001153946,-16,-20.24930122,-280766,0.502759874,6971,128,-6.736160128,-93400,21390.625,45568,128
-0.267643364,-3711,-20.25031093,-280780,0.477661547,6623,128,-6.762196036,-93761,21410.15625,46208,128
-0.036565666,-507,-20.23235264,-280531,0.514876308,7139,128,-6.74113652,-93469,21429.6875,46848,128
-0.239948659,-3327,-20.25975886,-280911,0.471026358,6531,128,-6.754695386,-93657,21449.21875,47488,128
-0.287332569,-3984,-20.24800304,-280748,0.567813583,7873,128,-6.74820444,-93567,21468.75,48128,128
-0.258772404,-3588,-20.25146487,-280796,0.461506303,6399,128,-6.773807618,-93922,21488.28125,48768,128
-0.028848652,-400,-20.2562249,-280862,0.479464588,6648,128,-6.774673077,-93934,21507.8125,49408,128
-1.215682175,-16856,-20.26048008,-280921,0.293967759,4076,128,-6.826456407,-94652,21527.34375,50048,128
-1.207316066,-16740,-20.25535944,-280850,0.275576744,3821,128,-6.815421798,-94499,21546.875,50688,128
-0.071472534,-991,-20.2332181,-280543,0.223865536,3104,128,-6.846938949,-94936,21566.40625,51328,128
-1.246333867,-17281,-20.19730153,-280045,0.278028879,3855,128,-6.797751999,-94254,21585.9375,51968,128
-2.88E-04,-4,-20.19117119,-279960,0.452346856,6272,128,-6.784625862,-94072,21605.46875,52608,128
-0.146046298,-2025,-20.18763723,-279911,0.517112078,7170,128,-6.749935359,-93591,21625,53248,128
-0.075006494,-1040,-20.18669965,-279898,0.520862403,7222,128,-6.767605158,-93836,21644.53125,53888,128
-0.018246772,-253,-20.19643607,-280033,0.522088471,7239,128,-6.759888144,-93729,21664.0625,54528,128
-0.102124226,-1416,-20.22110167,-280375,0.478887615,6640,128,-6.77301428,-93911,21683.59375,55168,128
-0.143161433,-1985,-20.20884099,-280205,0.523891511,7264,128,-6.774600956,-93933,21703.125,55808,128
-0.147705096,-2048,-20.23927632,-280627,0.459342654,6369,128,-6.777125213,-93968,21722.65625,56448,128
-0.01860738,-258,-20.22117379,-280376,0.527930323,7320,128,-6.783471916,-94056,21742.1875,57088,128
-1.200176024,-16641,-20.23696843,-280595,0.443115287,6144,128,-6.781091902,-94023,21761.71875,57728,128
-0.073852548,-1024,-20.22571745,-280439,0.293679272,4072,128,-6.796165323,-94232,21781.25,58368,128
-0.137608068,-1908,-20.22102955,-280374,0.281562839,3904,128,-6.811166622,-94440,21800.78125,59008,128
-0.143666285,-1992,-20.22283259,-280399,0.277379784,3846,128,-6.812464811,-94458,21820.3125,59648,128
-0.145397204,-2016,-20.23004475,-280499,0.29490534,4089,128,-6.823210934,-94607,21839.84375,60288,128
-1.216403391,-16866,-20.23076597,-280509,0.293102299,4064,128,-6.824437001,-94624,21859.375,60928,128
-0.073419818,-1018,-20.21626952,-280308,0.53535885,7423,128,-6.776620361,-93961,21878.90625,61568,128
-1.18979051,-16497,-20.20912948,-280209,0.557067461,7724,128,-6.725774613,-93256,21898.4375,62208,128
-0.140925663,-1954,-20.18309357,-279848,0.516967835,7168,128,-6.692598664,-92796,21917.96875,62848,128
-0.073996791,-1026,-20.17696323,-279763,0.57827122,8018,128,-6.763999076,-93786,21937.5,63488,128
-0.130323783,-1807,-20.22514048,-280431,0.288486515,4000,128,-6.819749095,-94559,21957.03125,64128,128
-7.21E-05,-1,-20.23905995,-280624,0.220547941,3058,128,-6.88105248,-95409,21976.5625,64768,128
-0.155782718,-2160,-20.25730673,-280877,0.205186034,2845,128,-6.890716778,-95543,21996.09375,65408,128
-1.18358805,-16411,-20.27194742,-281080,0.220475819,3057,128,-6.893096792,-95576,22015.625,512,128
-1.199887538,-16637,-20.267548,-281019,0.221557644,3072,128,-6.907376874,-95774,22035.15625,1152,128
-0.281346474,-3901,-20.29488209,-281398,0.22848132,3168,128,-6.863022073,-95159,22054.6875,1792,128
-0.016227366,-225,-19.85883473,-275352,0.037359004,518,128,-6.683655582,-92672,22074.21875,2432,128
-1.165485521,-16160,-19.73846373,-273683,0.033392314,463,128,-6.907737483,-95779,22093.75,3072,128
-0.069308885,-961,-20.17609777,-279751,1.033863549,14335,128,-7.157278318,-99239,22113.28125,3712,128
-1.195415997,-16575,-20.26725951,-281015,0.013847353,192,128,-6.950649852,-96374,22132.8125,4352,128
-1.250949651,-17345,-20.31673495,-281701,0.148282069,2056,128,-6.916969051,-95907,22152.34375,4992,128
-0.260647566,-3614,-20.30562822,-281547,0.226101306,3135,128,-6.904780496,-95738,22171.875,5632,128
-0.288558637,-4001,-20.33101503,-281899,0.258483918,3584,128,-6.894971954,-95602,22191.40625,6272,128
-1.190295361,-16504,-20.31817738,-281721,0.294039881,4077,128,-6.890211927,-95536,22210.9375,6912,128
-0.295410191,-4096,-20.35027151,-282166,0.281346474,3901,128,-6.883793102,-95447,22230.46875,7552,128
-1.216331269,-16865,-20.34810786,-282136,0.26302758,3647,128,-6.887327062,-95496,22250,8192,128
-1.467963632,-20354,-20.35806064,-282274,0.276947054,3840,128,-6.886750089,-95488,22269.53125,8832,128
-1.324802199,-18369,-20.36548917,-282377,0.274639162,3808,128,-6.89259194,-95569,22289.0625,9472,128
-0.293102299,-4064,-20.3755862,-282517,0.263388188,3652,128,-6.908675064,-95792,22308.59375,10112,128
-1.254988462,-17401,-20.38164441,-282601,0.222134617,3080,128,-6.922955146,-95990,22328.125,10752,128
-1.209407593,-16769,-20.3829426,-282619,0.143666285,1992,128,-6.956058974,-96449,22347.65625,11392,128
-0.281562839,-3904,-20.37320618,-282484,0.145397204,2016,128,-6.953534717,-96414,22367.1875,12032,128
-1.292491709,-17921,-20.3589261,-282286,0.223793414,3103,128,-6.896342265,-95621,22386.71875,12672,128
-1.293501412,-17935,-20.34745876,-282127,0.221557644,3072,128,-6.867854222,-95226,22406.25,13312,128
-1.311026968,-18178,-20.36916737,-282428,0.295121705,4092,128,-6.839654665,-94835,22425.78125,13952,128
-1.199887538,-16637,-20.40097301,-282869,0.222567346,3086,128,-6.839582543,-94834,22445.3125,14592,128
-0.558509893,-7744,-20.40710335,-282954,0.286322866,3970,128,-6.839221935,-94829,22464.84375,15232,128
-1.18402078,-16417,-20.43825989,-283386,0.295193827,4093,128,-6.840087395,-94841,22484.375,15872,128
-1.196353578,-16588,-20.43025439,-283275,0.293967759,4076,128,-6.83280311,-94740,22503.90625,16512,128
-0.58670945,-8135,-20.43378835,-283324,0.221701887,3074,128,-6.830350975,-94706,22523.4375,17152,128
-1.255493314,-17408,-20.4386205,-283391,0.29533807,4095,128,-6.832586745,-94737,22542.96875,17792,128
-1.202411795,-16672,-20.44063991,-283419,0.29533807,4095,128,-6.830062488,-94702,22562.5,18432,128
-1.182217739,-16392,-20.46566611,-283766,0.282428298,3916,128,-6.82616792,-94648,22582.03125,19072,128
-1.181712887,-16385,-20.46133881,-283706,0.290794407,4032,128,-6.827538231,-94667,22601.5625,19712,128
-1.197074794,-16598,-20.47258979,-283862,0.286394988,3971,128,-6.831144313,-94717,22621.09375,20352,128
-1.210489417,-16784,-20.47742194,-283929,0.293102299,4064,128,-6.823860028,-94616,22640.625,20992,128
-0.588007639,-8153,-20.4749698,-283895,0.266633662,3697,128,-6.820686677,-94572,22660.15625,21632,128
-0.574160287,-7961,-20.49545234,-284179,0.267715486,3712,128,-6.819749095,-94559,22679.6875,22272,128
-1.200680876,-16648,-20.48153287,-283986,0.443620139,6151,128,-6.771932456,-93896,22699.21875,22912,128
-1.182217739,-16392,-20.47316676,-283870,0.589882802,8179,128,-6.725846735,-93257,22718.75,23552,128
-0.517039957,-7169,-20.43386047,-283325,0.558221407,7740,128,-6.6800495,-92622,22738.28125,24192,128
-1.20306089,-16681,-20.44172173,-283434,0.572357246,7936,128,-6.731183735,-93331,22757.8125,24832,128
-0.590820383,-8192,-20.50237602,-284275,0.471459087,6537,128,-6.802800513,-94324,22777.34375,25472,128
-1.201041484,-16653,-20.5216325,-284542,0.28206769,3911,128,-6.838140111,-94814,22796.875,26112,128
-1.18625655,-16448,-20.5306477,-284667,0.29533807,4095,128,-6.848453504,-94957,22816.40625,26752,128
-1.186040185,-16445,-20.53547985,-284734,0.221774008,3075,128,-6.853357774,-95025,22835.9375,27392,128
-1.18625655,-16448,-20.53547985,-284734,0.29533807,4095,128,-6.861723883,-95141,22855.46875,28032,128
-1.476329741,-20470,-20.56166,-285097,0.286178623,3968,128,-6.808209635,-94399,22875,28672,128
-0.069020399,-957,-20.22102955,-280374,0.041469937,575,128,-6.666706999,-92437,22894.53125,29312,128
-0.888826953,-12324,-20.04101396,-277878,0.036637787,508,128,-6.947260135,-96327,22914.0625,29952,128
-1.476329741,-20470,-20.37681226,-282534,1.166350981,16172,128,-7.192834281,-99732,22933.59375,30592,128
-1.32884101,-18425,-20.52033431,-284524,0.152248758,2111,128,-6.896198022,-95619,22953.125,31232,128
-1.18625655,-16448,-20.57550735,-285289,0.279182825,3871,128,-6.855737788,-95058,22972.65625,31872,128
-1.183371685,-16408,-20.58812864,-285464,0.294400489,4082,128,-6.871604546,-95278,22992.1875,32512,128
-1.670409044,-23161,-20.58416195,-285409,0.228697685,3171,128,-6.846938949,-94936,23011.71875,33152,128
-1.21813431,-16890,-20.59649475,-285580,0.226029185,3134,128,-6.856026275,-95062,23031.25,33792,128
-1.396346855,-19361,-20.60349054,-285677,0.286755596,3976,128,-6.839077692,-94827,23050.78125,34432,128
-1.241213231,-17210,-20.58884985,-285474,0.22271159,3088,128,-6.857612951,-95084,23070.3125,35072,128
-1.457505996,-20209,-20.59663899,-285582,0.218095805,3024,128,-6.869729384,-95252,23089.84375,35712,128
-1.195415997,-16575,-20.61805911,-285879,0.295121705,4092,128,-6.851266247,-94996,23109.375,36352,128
-1.402044463,-19440,-20.59909112,-285616,0.221269157,3068,128,-6.892808305,-95572,23128.90625,36992,128
-1.399159598,-19400,-20.60154326,-285650,0.26302758,3647,128,-6.901967752,-95699,23148.4375,37632,128
-1.473661241,-20433,-20.583008,-285393,0.183982275,2551,128,-6.910622348,-95819,23167.96875,38272,128
-1.219793107,-16913,-20.55906362,-285061,0.254372985,3527,128,-6.908098091,-95784,23187.5,38912,128
-1.333961646,-18496,-20.55754907,-285040,0.276658568,3836,128,-6.892736184,-95571,23207.03125,39552,128
-1.328480402,-18420,-20.52379614,-284572,0.222062495,3079,128,-6.847011071,-94937,23226.5625,40192,128
-1.333096186,-18484,-20.53822047,-284772,0.291082894,4036,128,-6.835038881,-94771,23246.09375,40832,128
-1.196642065,-16592,-20.54139382,-284816,0.229491023,3182,128,-6.832947353,-94742,23265.625,41472,128
-1.329922835,-18440,-20.54348535,-284845,0.287260447,3983,128,-6.852492315,-95013,23285.15625,42112,128
-1.21856704,-16896,-20.56122727,-285091,0.221990373,3078,128,-6.858622653,-95098,23304.6875,42752,128
-0.590820383,-8192,-20.56180424,-285099,0.294761097,4087,128,-6.854151112,-95036,23324.21875,43392,128
-0.581660936,-8065,-20.55877513,-285057,0.223721292,3102,128,-6.864536627,-95180,23343.75,44032,128
-1.21856704,-16896,-20.56908853,-285200,0.230500726,3196,128,-6.870234236,-95259,23363.28125,44672,128
-1.331725875,-18465,-20.56151576,-285095,0.276947054,3840,128,-6.905068982,-95742,23382.8125,45312,128
-1.459164793,-20232,-20.56057817,-285082,0.223360684,3097,128,-6.901462901,-95692,23402.34375,45952,128
-1.214023377,-16833,-20.55581815,-285016,0.267427,3708,128,-6.896198022,-95619,23421.875,46592,128
-1.199022078,-16625,-20.54413444,-284854,0.258988769,3591,128,-6.89965986,-95667,23441.40625,47232,128
-1.215105202,-16848,-20.55589027,-285017,0.225019482,3120,128,-6.920791497,-95960,23460.9375,47872,128
-1.366272136,-18944,-20.55639512,-285024,0.21917763,3039,128,-6.898505914,-95651,23480.46875,48512,128
-1.181712887,-16385,-20.54824538,-284911,0.286394988,3971,128,-6.854583842,-95042,23500,49152,128
-0.57697303,-8000,-20.52177674,-284544,0.295265948,4094,128,-6.815349676,-94498,23519.53125,49792,128
-1.306483305,-18115,-20.50569362,-284321,0.265479716,3681,128,-6.865834816,-95198,23539.0625,50432,128
-0.559086866,-7752,-20.53677804,-284752,0.184054397,2552,128,-6.91603147,-95894,23558.59375,51072,128
-1.201329971,-16657,-20.550986,-284949,0.110778822,1536,128,-6.966011759,-96587,23578.125,51712,128
-1.181929252,-16388,-20.57824797,-285327,0.008149744,113,128,-7.027315143,-97437,23597.65625,52352,128
-1.200248146,-16642,-20.59187896,-285516,0.070318588,975,128,-7.047292834,-97714,23617.1875,52992,128
-1.396274733,-19360,-20.60659177,-285720,0.057625181,799,128,-7.060563214,-97898,23636.71875,53632,128
-1.417262127,-19651,-20.61430879,-285827,0.011395217,158,128,-7.079026351,-98154,23656.25,54272,128
-1.459741766,-20240,-20.4889614,-284089,0.131261364,1820,128,-6.911487807,-95831,23675.78125,54912,128
-1.144858735,-15874,-20.0198102,-277584,0.166240354,2305,128,-6.879033074,-95381,23695.3125,55552,128
-1.216187026,-16863,-20.23264113,-280535,0.960011001,13311,128,-7.23928061,-100376,23714.84375,56192,128
-1.329345862,-18432,-20.51600701,-284464,1.17695286,16319,128,-7.243030935,-100428,23734.375,56832,128
-1.468612727,-20363,-20.59642262,-285579,1.12560226,15607,128,-7.147037047,-99097,23753.90625,57472,128
-1.407814194,-19520,-20.62462218,-285970,1.163033386,16126,128,-7.12857391,-98841,23773.4375,58112,128
-1.756305904,-24352,-20.6253434,-285980,1.145796316,15887,128,-7.121217504,-98739,23792.96875,58752,128
-1.403414774,-19459,-20.61517425,-285839,1.172409197,16256,128,-7.128646031,-98842,23812.5,59392,128
-1.475320038,-20456,-20.6376762,-286151,1.179837725,16359,128,-7.146460074,-99089,23832.03125,60032,128
-1.312325157,-18196,-20.64063318,-286192,1.164259453,16143,128,-7.128646031,-98842,23851.5625,60672,128
-1.721182671,-23865,-20.62693007,-286002,1.181496523,16382,128,-7.145378249,-99074,23871.09375,61312,128
-1.19202628,-16528,-20.63342102,-286092,1.16721644,16184,128,-7.136507289,-98951,23890.625,61952,128
-1.767340513,-24505,-20.63515194,-286116,1.181352279,16380,128,-7.150354642,-99143,23910.15625,62592,128
-1.320691266,-18312,-20.65332659,-286368,1.104254258,15311,128,-7.181222699,-99571,23929.6875,63232,128
-1.772461149,-24576,-20.66428908,-286520,1.069924363,14835,128,-7.20076766,-99842,23949.21875,63872,128
-1.441206508,-19983,-20.64387866,-286237,1.119327679,15520,128,-7.225000528,-100178,23968.75,64512,128
-1.706902588,-23667,-20.60962088,-285762,1.144209641,15865,128,-7.1892282,-99682,23988.28125,65152,128
-1.699185574,-23560,-20.61063059,-285776,1.107788218,15360,128,-7.156412859,-99227,24007.8125,256,128
-1.186400793,-16450,-20.60962088,-285762,1.125962868,15612,128,-7.129295126,-98851,24027.34375,896,128
-1.439619832,-19961,-20.63226707,-286076,1.165413399,16159,128,-7.125544801,-98799,24046.875,1536,128
-1.320691266,-18312,-20.65159567,-286344,1.181135914,16377,128,-7.131747261,-98885,24066.40625,2176,128
-1.412357856,-19583,-20.65224476,-286353,1.110023988,15391,128,-7.120640531,-98731,24085.9375,2816,128
-1.47272366,-20420,-20.64697989,-286280,1.117741003,15498,128,-7.132973329,-98902,24105.46875,3456,128
-1.460895712,-20256,-20.65015324,-286324,1.125169531,15601,128,-7.12280418,-98761,24125,4096,128
-1.735606996,-24065,-20.64755686,-286288,1.149186033,15934,128,-7.122299328,-98754,24144.53125,4736,128
-1.463275726,-20289,-20.68275221,-286776,1.177529833,16327,128,-7.118332639,-98699,24164.0625,5376,128
-1.474815187,-20449,-20.64885505,-286306,1.145363587,15881,128,-7.116890206,-98679,24183.59375,6016,128
-1.324802199,-18369,-20.67416974,-286657,1.180342577,16366,128,-7.11883749,-98706,24203.125,6656,128
-1.329345862,-18432,-20.67633339,-286687,1.148248452,15921,128,-7.114726557,-98649,24222.65625,7296,128
-1.774552676,-24605,-20.68542071,-286813,1.145002978,15876,128,-7.121794477,-98747,24242.1875,7936,128
-1.758613796,-24384,-20.66919335,-286588,1.175871036,16304,128,-7.101744664,-98469,24261.71875,8576,128
-1.321051874,-18317,-20.67272731,-286637,0,0,128,-7.085012446,-98237,24281.25,9216,128
-1.770225378,-24545,-20.65909632,-286448,7.21E-05,1,128,-7.014116885,-97254,24300.78125,9856,128
-1.253257543,-17377,-20.65859147,-286441,0.14655115,2032,128,-6.965074177,-96574,24320.3125,10496,128
-1.735030023,-24057,-20.6396956,-286179,0.223721292,3102,128,-6.94040858,-96232,24339.84375,11136,128
-1.444596224,-20030,-20.65549024,-286398,0.001081824,15,128,-7.014910223,-97265,24359.375,11776,128
-1.477050957,-20480,-20.67640551,-286688,5.05E-04,7,128,-7.065106877,-97961,24378.90625,12416,128
-2.070684084,-28711,-20.71830818,-287269,1.181352279,16380,128,-7.108812584,-98567,24398.4375,13056,128
-1.772677514,-24579,-20.70662447,-287107,1.16368248,16135,128,-7.106216205,-98531,24417.96875,13696,128
-2.140642064,-29681,-20.72191426,-287319,1.151638168,15968,128,-7.10556711,-98522,24437.5,14336,128
-1.820422032,-25241,-20.72624156,-287379,1.179332874,16352,128,-7.10599984,-98528,24457.03125,14976,128
-2.348929328,-32569,-20.66544302,-286536,0,0,128,-6.973223921,-96687,24476.5625,15616,128
-1.44E-04,-2,-20.17112138,-279682,0.295121705,4092,128,-6.85184322,-95004,24496.09375,16256,128
-1.324874321,-18370,-20.17703535,-279764,1.115216746,15463,128,-7.149344939,-99129,24515.625,16896,128
-1.694930398,-23501,-20.59310503,-285533,1.026939872,14239,128,-7.291424548,-101099,24535.15625,17536,128
-1.788760637,-24802,-20.71347603,-287202,1.171832224,16248,128,-7.100157988,-98447,24554.6875,18176,128
-2.216730382,-30736,-20.76309571,-287890,0.018391015,255,128,-7.070732364,-98039,24574.21875,18816,128
-1.838019709,-25485,-20.74427196,-287629,0.017886164,248,128,-7.05464924,-97816,24593.75,19456,128
-1.784072731,-24737,-20.74441621,-287631,0.00353396,49,128,-7.047292834,-97714,24613.28125,20096,128
-2.096792113,-29073,-20.74715683,-287669,7.21E-05,1,128,-7.043326145,-97659,24632.8125,20736,128
-1.773687216,-24593,-20.75415263,-287766,0.002019406,28,128,-7.036979441,-97571,24652.34375,21376,128
-2.178938649,-30212,-20.75400838,-287764,0.00223577,31,128,-7.032219414,-97505,24671.875,22016,128
-1.887423025,-26170,-20.76035509,-287852,0.073275575,1016,128,-7.031426076,-97494,24691.40625,22656,128
-2.086334477,-28928,-20.76432178,-287907,0.003461838,48,128,-7.041378861,-97632,24710.9375,23296,128
-1.917930474,-26593,-20.77802489,-288097,0,0,128,-7.052918321,-97792,24730.46875,23936,128
-1.792366718,-24852,-20.76446602,-287909,0.022934678,318,128,-7.078954229,-98153,24750,24576,128
-2.068159827,-28676,-20.76612482,-287932,2.16E-04,3,128,-7.086454879,-98257,24769.53125,25216,128
-1.790924286,-24832,-20.70698508,-287112,7.21E-05,1,128,-7.070155391,-98031,24789.0625,25856,128
-1.772677514,-24579,-20.69046923,-286883,0.091738712,1272,128,-7.000413775,-97064,24808.59375,26496,128
-2.229135302,-30908,-20.6910462,-286891,0.117702498,1632,128,-6.971060273,-96657,24828.125,27136,128
-1.773615095,-24592,-20.6830407,-286780,0.144459622,2003,128,-6.945168608,-96298,24847.65625,27776,128
-1.787318204,-24782,-20.70857176,-287134,0.073708305,1022,128,-6.947764986,-96334,24867.1875,28416,128
-1.781548474,-24702,-20.70424446,-287074,0.224370387,3111,128,-6.939398878,-96218,24886.71875,29056,128
-2.067943462,-28673,-20.72032758,-287297,0.14878692,2063,128,-6.941057675,-96241,24906.25,29696,128
-1.790852164,-24831,-20.71650514,-287244,0.236486821,3279,128,-6.929013363,-96074,24925.78125,30336,128
-2.085324774,-28914,-20.72876581,-287414,0.221918252,3077,128,-6.932547323,-96123,24945.3125,30976,128
-1.772605392,-24578,-20.70929297,-287144,0.225596455,3128,128,-6.914949645,-95879,24964.84375,31616,128
-2.085973869,-28923,-20.70662447,-287107,0.226101306,3135,128,-6.914589037,-95874,24984.375,32256,128
-1.814003207,-25152,-20.72011122,-287294,0.294256245,4080,128,-6.869296654,-95246,25003.90625,32896,128
-2.139343874,-29663,-20.72696277,-287389,0.231294063,3207,128,-6.913939943,-95865,25023.4375,33536,128
-1.786380623,-24769,-20.72970339,-287427,0.269951257,3743,128,-6.89432286,-95593,25042.96875,34176,128
-1.773038122,-24584,-20.72458276,-287356,0.295121705,4092,128,-6.881557331,-95416,25062.5,34816,128
-1.846962791,-25609,-20.75783083,-287817,0.277740392,3851,128,-6.885956751,-95477,25082.03125,35456,128
-2.086334477,-28928,-20.73352584,-287480,0.256176025,3552,128,-6.835976462,-94784,25101.5625,36096,128
-2.085180531,-28912,-20.73280462,-287470,0.519131484,7198,128,-6.767605158,-93836,25121.09375,36736,128
-1.807368017,-25060,-20.71383664,-287207,0.571059057,7918,128,-6.743083804,-93496,25140.625,37376,128
-1.781187866,-24697,-20.71513483,-287225,0.286178623,3968,128,-6.802439905,-94319,25160.15625,38016,128
-1.841481548,-25533,-20.73850223,-287549,0.226173428,3136,128,-6.863671167,-95168,25179.6875,38656,128
-1.773542973,-24591,-20.7744188,-288047,0.260142715,3607,128,-6.901246536,-95689,25199.21875,39296,128
-2.354049963,-32640,-20.7787461,-288107,0.235188631,3261,128,-6.928508512,-96067,25218.75,39936,128
-1.772749635,-24580,-20.79468498,-288328,0.222927955,3091,128,-6.923315754,-95995,25238.28125,40576,128
-1.919661393,-26617,-20.797065,-288361,0.230212239,3192,128,-6.914949645,-95879,25257.8125,41216,128
-1.834846358,-25441,-20.81329236,-288586,0.294761097,4087,128,-6.87131606,-95274,25277.34375,41856,128
-0.232592253,-3225,-20.24894062,-280761,0.073564061,1020,128,-6.677597365,-92588,25296.875,42496,128
-1.320474901,-18309,-20.20833614,-280198,0.009375812,130,128,-7.004019857,-97114,25316.40625,43136,128
-1.314705171,-18229,-20.66407271,-286517,1.181568644,16383,128,-7.18482878,-99621,25335.9375,43776,128
-2.185790203,-30307,-20.76720664,-287947,2.16E-04,3,128,-6.971997854,-96670,25355.46875,44416,128
-2.123260751,-29440,-20.81422994,-288599,0.055389411,768,128,-6.963126893,-96547,25375,45056,128
-2.187881731,-30336,-20.80766687,-288508,0.115322484,1599,128,-6.966300245,-96591,25394.53125,45696,128
-1.902280081,-26376,-20.81372509,-288592,0.127150432,1763,128,-6.962694164,-96541,25414.0625,46336,128
-2.213196422,-30687,-20.79547832,-288339,0.139338987,1932,128,-6.966588732,-96595,25433.59375,46976,128
-2.207498814,-30608,-20.81819663,-288654,0.113086714,1568,128,-6.976613638,-96734,25453.125,47616,128
-1.994090914,-27649,-20.82706759,-288777,0.072698602,1008,128,-6.973296043,-96688,25472.65625,48256,128
-1.90624677,-26431,-20.81235478,-288573,0.102629078,1423,128,-6.985051869,-96851,25492.1875,48896,128
-1.912232865,-26514,-20.80031047,-288406,0.096642983,1340,128,-6.993201613,-96964,25511.71875,49536,128
-2.326427379,-32257,-20.80644081,-288491,0.076088318,1055,128,-7.009645344,-97192,25531.25,50176,128
-1.887783633,-26175,-20.82411061,-288736,0.003389717,47,128,-7.047509199,-97717,25550.78125,50816,128
-2.069025286,-28688,-20.79987774,-288400,0.018391015,255,128,-7.07145358,-98049,25570.3125,51456,128
-1.916488041,-26573,-20.78213582,-288154,0.036782031,510,128,-7.067198404,-97990,25589.84375,52096,128
-1.845159751,-25584,-20.75126776,-287726,0.009159447,127,128,-7.044191604,-97671,25609.375,52736,128
-2.095638167,-29057,-20.73727617,-287532,0.016587975,230,128,-7.038638239,-97594,25628.90625,53376,128
-1.776788447,-24636,-20.76085994,-287859,0.008005501,111,128,-7.028901819,-97459,25648.4375,54016,128
-1.84378944,-25565,-20.75004169,-287709,7.21E-05,1,128,-7.036113982,-97559,25667.96875,54656,128
-2.146916645,-29768,-20.75761446,-287814,0.018391015,255,128,-7.053134686,-97795,25687.5,55296,128
-1.777509663,-24646,-20.77723155,-288086,0.036854152,511,128,-7.064602025,-97954,25707.03125,55936,128
-2.205407286,-30579,-20.77816913,-288099,2.16E-04,3,128,-7.061140187,-97906,25726.5625,56576,128
-1.882158146,-26097,-20.77932307,-288115,0.001081824,15,128,-7.088834892,-98290,25746.09375,57216,128
-1.79157338,-24841,-20.77629397,-288073,7.21E-05,1,128,-7.088330041,-98283,25765.625,57856,128
-2.141868131,-29698,-20.78155885,-288146,1.146950262,15903,128,-7.110687746,-98593,25785.15625,58496,128
-2.20865276,-30624,-20.76338419,-287894,1.177529833,16327,128,-7.103187096,-98489,25804.6875,59136,128
-2.297001755,-31849,-20.77867398,-288106,1.161374588,16103,128,-7.117034449,-98681,25824.21875,59776,128
-1.773470852,-24590,-20.7997335,-288398,1.118101611,15503,128,-7.134199397,-98919,25843.75,60416,128
-2.069025286,-28688,-20.77254364,-288021,1.108220948,15366,128,-7.145522493,-99076,25863.28125,61056,128
-1.804915882,-25026,-20.78545341,-288200,1.108004583,15363,128,-7.13434364,-98921,25882.8125,61696,128
-2.198267245,-30480,-20.77420244,-288044,1.181496523,16382,128,-7.090565811,-98314,25902.34375,62336,128
-1.773615095,-24592,-20.76482663,-287914,0.00973642,135,128,-7.022410872,-97369,25921.875,62976,128
-2.07717503,-28801,-20.72609731,-287377,0.036349301,504,128,-7.021617534,-97358,25941.40625,63616,128
-2.104797614,-29184,-20.74982533,-287706,1.181568644,16383,128,-7.092585217,-98342,25960.9375,64256,128
-1.901630986,-26367,-20.76749513,-287951,1.181496523,16382,128,-7.15691771,-99234,25980.46875,64896,128
-2.335081975,-32377,-20.79518983,-288335,1.101730001,15276,128,-7.196440363,-99782,26000,0,128
-2.214566733,-30706,-20.8104075,-288546,1.111827029,15416,128,-7.214831378,-100037,26019.53125,640,128
-1.844077926,-25569,-20.84488164,-289024,1.035882954,14363,128,-7.225216892,-100181,26058.59375,1920,128
-2.220264342,-30785,-20.81473479,-288606,1.140098708,15808,128,-7.150787371,-99149,26078.125,2560,128
-1.21856704,-16896,-20.27995292,-281191,0,0,128,-7.006183506,-97144,26097.65625,3200,128
-1.337711971,-18548,-20.45448726,-283611,1.165990372,16167,128,-7.365565582,-102127,26117.1875,3840,128
-1.772605392,-24578,-20.73525676,-287504,1.03393567,14336,128,-7.364051028,-102106,26136.71875,4480,128
-2.208580638,-30623,-20.82605789,-288763,1.173202535,16267,128,-7.227957514,-100219,26156.25,5120,128
-2.06787134,-28672,-20.83103428,-288832,1.052110321,14588,128,-7.221682933,-100132,26175.78125,5760,128
-2.289501105,-31745,-20.8317555,-288842,1.107788218,15360,128,-7.208484675,-99949,26195.3125,6400,128
-2.01075101,-27880,-20.82396636,-288734,1.12603499,15613,128,-7.200551295,-99839,26214.84375,7040,128
-2.289789592,-31749,-20.83024094,-288821,1.146733898,15900,128,-7.187208794,-99654,26234.375,7680,128
-2.100326073,-29122,-20.83839069,-288934,1.107716096,15359,128,-7.183674834,-99605,26253.90625,8320,128
-2.215864923,-30724,-20.82973609,-288814,1.163177629,16128,128,-7.174154779,-99473,26273.4375,8960,128
-2.214927341,-30711,-20.8327652,-288856,1.098989379,15238,128,-7.171919009,-99442,26292.96875,9600,128
-1.915694704,-26562,-20.81516752,-288612,1.164908548,16152,128,-7.173866293,-99469,26312.5,10240,128
-2.206777597,-30598,-20.83658765,-288909,1.107643975,15358,128,-7.18612697,-99639,26332.03125,10880,128
-2.032026891,-28175,-20.81805239,-288652,1.153801817,15998,128,-7.200479174,-99838,26351.5625,11520,128
-2.219182517,-30770,-20.81156144,-288562,1.118101611,15503,128,-7.208196188,-99945,26371.09375,12160,128
-2.070034989,-28702,-20.76504299,-287917,1.143560546,15856,128,-7.194781565,-99759,26390.625,12800,128
-1.845808845,-25593,-20.7547296,-287774,1.112331881,15423,128,-7.121001139,-98736,26410.15625,13440,128
-1.827345708,-25337,-20.73179492,-287456,1.181496523,16382,128,-7.090421568,-98312,26429.6875,14080,128
-1.841986399,-25540,-20.75321505,-287753,0.00353396,49,128,-7.063664444,-97941,26449.21875,14720,128
-1.844005805,-25568,-20.74441621,-287631,0.018030407,250,128,-7.051403767,-97771,26468.75,15360,128
-2.070251354,-28705,-20.74629137,-287657,0.064620979,896,128,-7.041306739,-97631,26488.28125,16000,128
-1.772749635,-24580,-20.75429687,-287768,0.073780426,1023,128,-7.029118184,-97462,26507.8125,16640,128
-1.920166245,-26624,-20.74088225,-287582,0.005625487,78,128,-7.023420575,-97383,26527.34375,17280,128
-1.841481548,-25533,-20.75069079,-287718,0.065774925,912,128,-7.014838101,-97264,26546.875,17920,128
-1.845808845,-25593,-20.74023315,-287573,0.003894568,54,128,-7.015126588,-97268,26566.40625,18560,128
-1.774408433,-24603,-20.74016103,-287572,0.073852548,1024,128,-6.995148897,-96991,26585.9375,19200,128
-2.085757504,-28920,-20.73143431,-287451,0.076232562,1057,128,-6.986710666,-96874,26605.46875,19840,128
-1.83715425,-25473,-20.7077063,-287122,0.106235159,1473,128,-6.976036665,-96726,26625,20480,128
-1.775346014,-24616,-20.72681853,-287387,0.113014592,1567,128,-6.971565124,-96664,26644.53125,21120,128
-1.773615095,-24592,-20.71758696,-287259,0.12087585,1676,128,-6.968536016,-96622,26664.0625,21760,128
-1.845303994,-25586,-20.7103748,-287159,0.126861945,1759,128,-6.947260135,-96327,26683.59375,22400,128
-1.828427533,-25352,-20.71051904,-287161,0.221557644,3072,128,-6.913795699,-95863,26703.125,23040,128
-1.78003392,-24681,-20.68628617,-286825,0.29533807,4095,128,-6.835687975,-94780,26722.65625,23680,128
-1.477050957,-20480,-20.64705201,-286281,0.292813813,4060,128,-6.794939255,-94215,26742.1875,24320,128
-1.209912444,-16776,-20.64121016,-286200,0.262811215,3644,128,-6.85891114,-95102,26761.71875,24960,128
-1.327110091,-18401,-20.671357,-286618,0.278028879,3855,128,-6.891149508,-95549,26781.25,25600,128
-1.472507295,-20417,-20.67489096,-286667,0.148209947,2055,128,-6.937090985,-96186,26800.78125,26240,128
-1.796477651,-24909,-20.70186445,-287041,0.072698602,1008,128,-6.955121393,-96436,26820.3125,26880,128
-1.809387423,-25088,-20.71989485,-287291,0.062529452,867,128,-6.953029865,-96407,26839.84375,27520,128
-1.773615095,-24592,-20.70013353,-287017,0.071544656,992,128,-6.949351662,-96356,26859.375,28160,128
-1.795756435,-24899,-20.71946212,-287285,0.072698602,1008,128,-6.914084186,-95867,26878.90625,28800,128
-0.451769883,-6264,-20.26141766,-280934,0,0,128,-6.721519437,-93197,26898.4375,29440,128
-1.113557948,-15440,-20.04887522,-277987,0.064044006,888,128,-6.925984255,-96032,26917.96875,30080,128
-1.326965848,-18399,-20.54146594,-284817,1.144858735,15874,128,-7.165500184,-99353,26937.5,30720,128
-1.441278629,-19984,-20.67453035,-286662,0.05625487,780,128,-6.975099084,-96713,26957.03125,31360,128
-1.774336311,-24602,-20.69847473,-286994,0.147777217,2049,128,-6.935143701,-96159,26976.5625,32000,128
-1.790707921,-24829,-20.70691296,-287111,0.18023195,2499,128,-6.903554428,-95721,26996.09375,32640,128
-1.809315301,-25087,-20.70525416,-287088,0.220980671,3064,128,-6.890428292,-95539,27015.625,33280,128
-1.787750934,-24788,-20.7000614,-287016,0.204176331,2831,128,-6.868575438,-95236,27035.15625,33920,128
-1.790635799,-24828,-20.6943638,-286937,0.212253953,2943,128,-6.888985859,-95519,27054.6875,34560,128
-1.777149055,-24641,-20.68765648,-286844,0.277884636,3853,128,-6.878023371,-95367,27074.21875,35200,128
-1.77253327,-24577,-20.69054135,-286884,0.219538238,3044,128,-6.891510116,-95554,27093.75,35840,128
-1.774769041,-24608,-20.68066069,-286747,0.295121705,4092,128,-6.850040179,-94979,27113.28125,36480,128
-1.773615095,-24592,-20.67993947,-286737,0.287909542,3992,128,-6.88105248,-95409,27132.8125,37120,128
-1.783207271,-24725,-20.69306561,-286919,0.212398197,2945,128,-6.895404684,-95608,27152.34375,37760,128
-1.775922987,-24624,-20.67957886,-286732,0.267571243,3710,128,-6.882350669,-95427,27171.875,38400,128
-1.468107875,-20356,-20.64899929,-286308,0.244564443,3391,128,-6.906367172,-95760,27191.40625,39040,128
-1.403414774,-19459,-20.61250575,-285802,0.294256245,4080,128,-6.849318963,-94969,27210.9375,39680,128
-1.186040185,-16445,-20.60096629,-285642,0.258483918,3584,128,-6.826312164,-94650,27230.46875,40320,128
-1.449861103,-20103,-20.61459727,-285831,0.260214837,3608,128,-6.816143014,-94509,27250,40960,128
-1.254988462,-17401,-20.61820336,-285881,0.443331652,6147,128,-6.803665972,-94336,27269.53125,41600,128
-1.300713575,-18035,-20.61228938,-285799,0.29533807,4095,128,-6.805541135,-94362,27289.0625,42240,128
-1.327182213,-18402,-20.61690517,-285863,0.221774008,3075,128,-6.807344175,-94387,27308.59375,42880,128
-1.264724882,-17536,-20.62952645,-286038,0.283942852,3937,128,-6.836697678,-94794,27328.125,43520,128
-1.403270531,-19457,-20.6296707,-286040,0.278028879,3855,128,-6.813690879,-94475,27347.65625,44160,128
-1.255565435,-17409,-20.61892457,-285891,0.265623959,3683,128,-6.832442502,-94735,27367.1875,44800,128
-1.324874321,-18370,-20.60926027,-285757,0.235404996,3264,128,-6.826312164,-94650,27386.71875,45440,128
-1.209335471,-16768,-20.6146694,-285832,0.274567041,3807,128,-6.816936352,-94520,27406.25,46080,128
-1.407958437,-19522,-20.60962088,-285762,0.225019482,3120,128,-6.842828017,-94879,27425.78125,46720,128
-1.403342653,-19458,-20.62931009,-286035,0.294256245,4080,128,-6.839077692,-94827,27445.3125,47360,128
-1.200103903,-16640,-20.60421176,-285687,0.226678279,3143,128,-6.843549233,-94889,27464.84375,48000,128
-1.262561233,-17506,-20.6103421,-285772,0.221557644,3072,128,-6.817801811,-94532,27484.375,48640,128
-1.333745281,-18493,-20.58113284,-285367,0.29533807,4095,128,-6.79429016,-94206,27503.90625,49280,128
-0.590604018,-8189,-20.577671,-285319,0.581588814,8064,128,-6.721158829,-93192,27523.4375,49920,128
-1.18625655,-16448,-20.52877254,-284641,0.525910917,7292,128,-6.735294668,-93388,27542.96875,50560,128
-1.198949957,-16624,-20.54810113,-284909,0.447586828,6206,128,-6.786501025,-94098,27562.5,51200,128
-1.23760715,-17160,-20.58697469,-285448,0.239804416,3325,128,-6.889346467,-95524,27582.03125,51840,128
-1.475969133,-20465,-20.6226749,-285943,0.263316067,3651,128,-6.89922713,-95661,27601.5625,52480,128
-1.395120787,-19344,-20.60082204,-285640,0.235909848,3271,128,-6.924325457,-96009,27621.09375,53120,128
-1.258450301,-17449,-20.60493298,-285697,0.221557644,3072,128,-6.911848415,-95836,27640.625,53760,128
-1.404280234,-19471,-20.6306804,-286054,0.069741615,967,128,-6.934999458,-96157,27660.15625,54400,128
-1.47272366,-20420,-20.57788737,-285322,0.286178623,3968,128,-6.835976462,-94784,27679.6875,55040,128
-5.77E-04,-8,-20.04094184,-277877,0.005048514,70,128,-6.752171129,-93622,27699.21875,55680,128
-1.214528229,-16840,-20.37645166,-282529,0.147416609,2044,128,-7.171702644,-99439,27718.75,56320,128
-1.293357169,-17933,-20.49509174,-284174,1.050090915,14560,128,-7.186776064,-99648,27738.28125,56960,128
-1.338649552,-18561,-20.59894688,-285614,0.004615784,64,128,-6.965434786,-96579,27757.8125,57600,128
-1.403198409,-19456,-20.59555716,-285567,0.073780426,1023,128,-6.961684461,-96527,27777.34375,58240,128
-1.260109098,-17472,-20.59512443,-285561,0.221557644,3072,128,-6.956419582,-96454,27796.875,58880,128
-1.475969133,-20465,-20.60579844,-285709,0.07349194,1019,128,-6.978272435,-96757,27816.40625,59520,128
-1.25534907,-17406,-20.6033463,-285675,0.129674689,1798,128,-6.960242028,-96507,27835.9375,60160,128
-1.394255327,-19332,-20.61156817,-285789,0.036854152,511,128,-6.980363963,-96786,27855.46875,60800,128
-1.473012146,-20424,-20.59728808,-285591,0.076088318,1055,128,-6.990749477,-96930,27875,61440,128
-1.21856704,-16896,-20.59851415,-285608,0.073636183,1021,128,-6.963703866,-96555,27894.53125,62080,128
-1.394255327,-19332,-20.59880264,-285612,0.013703109,190,128,-7.002721668,-97096,27914.0625,62720,128
-1.459669645,-20239,-20.64885505,-286306,0.032815341,455,128,-7.078377256,-98145,27933.59375,63360,128
-1.790780043,-24830,-20.69587835,-286958,1.163177629,16128,128,-7.100446475,-98451,27953.125,64000,128
-1.77426419,-24601,-20.67092427,-286612,1.107788218,15360,128,-7.129655734,-98856,27972.65625,64640,128
-1.474743065,-20448,-20.65895208,-286446,1.125674382,15608,128,-7.126626626,-98814,27992.1875,65280,128
-1.763301702,-24449,-20.65383144,-286375,1.163177629,16128,128,-7.108884705,-98568,28011.71875,384,128
-1.772244784,-24573,-20.6883777,-286854,1.181568644,16383,128,-7.100590718,-98453,28031.25,1024,128
-1.775850865,-24623,-20.70042201,-287021,1.176448009,16312,128,-7.095037352,-98376,28050.78125,1664,128
-1.788688515,-24801,-20.71852454,-287272,1.172120711,16252,128,-7.133694545,-98912,28070.3125,2304,128
-2.070107111,-28703,-20.71758696,-287259,1.181496523,16382,128,-7.127492085,-98826,28089.84375,2944,128
-1.846313697,-25600,-20.7380695,-287543,1.173491022,16271,128,-7.124102369,-98779,28109.375,3584,128
-2.085252653,-28913,-20.74708471,-287668,1.144714492,15872,128,-7.136146681,-98946,28128.90625,4224,128
-1.847034913,-25610,-20.75710961,-287807,1.108293069,15367,128,-7.14451279,-99062,28148.4375,4864,128
-1.910718311,-26493,-20.75855205,-287827,1.116947665,15487,128,-7.152878899,-99178,28167.96875,5504,128
-2.070107111,-28703,-20.78163097,-288147,1.107716096,15359,128,-7.167375346,-99379,28187.5,6144,128
-2.178866527,-30211,-20.7777364,-288093,1.146733898,15900,128,-7.198171282,-99806,28207.03125,6784,128
-2.104797614,-29184,-20.78776131,-288232,1.116947665,15487,128,-7.200695539,-99841,28226.5625,7424,128
-2.078256855,-28816,-20.80968628,-288536,1.100287569,15256,128,-7.181006334,-99568,28246.09375,8064,128
-2.068448313,-28680,-20.80968628,-288536,1.10786034,15361,128,-7.237477569,-100351,28265.625,8704,128
-2.2104558,-30649,-20.82028816,-288683,1.106057299,15336,128,-7.214254405,-100029,28285.15625,9344,128
-2.21795645,-30753,-20.8087487,-288523,1.145219343,15879,128,-7.171125671,-99431,28304.6875,9984,128
-2.081862936,-28866,-20.80882082,-288524,1.179332874,16352,128,-7.100446475,-98451,28324.21875,10624,128
-2.197113299,-30464,-20.81386933,-288594,0.01817465,252,128,-7.141627925,-99022,28343.75,11264,128
-2.354049963,-32640,-20.81632147,-288628,1.106345785,15340,128,-7.174659631,-99480,28363.28125,11904,128
-2.003250361,-27776,-20.85245441,-289129,1.177241347,16323,128,-7.289549385,-101073,28382.8125,12544,128
-2.217379477,-30745,-20.8697636,-289369,1.163610359,16134,128,-7.329432646,-101626,28402.34375,13184,128
-2.217307355,-30744,-20.91015171,-289929,1.089325081,15104,128,-7.362320109,-102082,28421.875,13824,128
-2.292241727,-31783,-20.90293955,-289829,1.116514935,15481,128,-7.383884476,-102381,28441.40625,14464,128
-2.358665747,-32704,-20.93892824,-290328,1.03393567,14336,128,-7.372633502,-102225,28460.9375,15104,128
-2.326427379,-32257,-20.89356373,-289699,1.146950262,15903,128,-7.276783857,-100896,28480.46875,15744,128
-1.717071738,-23808,-20.62072761,-285916,2.305007256,31960,128,-7.129655734,-98856,28500,16384,128
-1.467675146,-20350,-20.80088744,-288414,1.181568644,16383,128,-7.665086706,-106280,28519.53125,17024,128
-1.790996407,-24833,-20.85137258,-289114,1.052903658,14599,128,-7.622679189,-105692,28539.0625,17664,128
-2.363281532,-32768,-20.96272838,-290658,1.117308273,15492,128,-7.424561074,-102945,28558.59375,18304,128
-2.291232025,-31769,-20.9874661,-291001,1.171471616,16243,128,-7.433287791,-103066,28578.125,18944,128
-2.075876841,-28783,-20.9991498,-291163,1.107788218,15360,128,-7.421820452,-102907,28597.65625,19584,128
-2.076021084,-28785,-20.97736907,-290861,1.108004583,15363,128,-7.507428826,-104094,28617.1875,20224,128
-2.224808004,-30848,-21.01638687,-291402,1.10786034,15361,128,-7.440572076,-103167,28636.71875,20864,128
-2.070395597,-28707,-21.02395964,-291507,1.172625562,16259,128,-7.547384208,-104648,28656.25,21504,128
-2.252791196,-31236,-21.02258933,-291488,1.17695286,16319,128,-7.538296883,-104522,28675.78125,22144,128
-2.068159827,-28676,-21.04927433,-291858,1.17471709,16288,128,-7.599888754,-105376,28695.3125,22784,128
-2.068159827,-28676,-21.05165434,-291891,1.177529833,16327,128,-7.59707601,-105337,28714.84375,23424,128
-2.358882112,-32707,-21.08706606,-292382,1.093580257,15163,128,-7.639627771,-105927,28734.375,24064,128
-2.359963937,-32722,-21.0958649,-292504,0.572357246,7936,128,-7.69624325,-106712,28753.90625,24704,128
-2.186872028,-30322,-21.09600915,-292506,0.588224004,8156,128,-7.735838024,-107261,28773.4375,25344,128
-2.21442249,-30704,-21.08547939,-292360,0.558582015,7745,128,-7.7117494,-106927,28792.96875,25984,128
-2.068448313,-28680,-21.07603146,-292229,0.59024341,8184,128,-7.710667576,-106912,28812.5,26624,128
-2.215648558,-30721,-21.12009777,-292840,0.590748261,8191,128,-7.702157223,-106794,28832.03125,27264,128
-2.362848802,-32762,-21.13827242,-293092,0.59067614,8190,128,-7.708792413,-106886,28851.5625,27904,128
-2.234328059,-30980,-21.14094092,-293129,0.59024341,8184,128,-7.73966047,-107314,28871.09375,28544,128
-2.326427379,-32257,-21.15897133,-293379,0.515886011,7153,128,-7.755310864,-107531,28890.625,29184,128
