Device,Device,Device,Device,Device,Device,Device,Device,Device,Device,Device,Device
ECG Vx-RL,ECG Vx-RL,ECG LA-RA,ECG LA-RA,ExG2 CH1,ExG2 CH1,EXG1 Status,ECG LL-RA,ECG LL-RA,Timestamp,Timestamp,EXG2 Status
CAL,RAW,CAL,RAW,CAL,RAW,RAW,CAL,RAW,CAL,RAW,RAW
mV,No Units,mV,No Units,mV,No Units,No Units,mV,No Units,mSecs,No Units,No Units
33.38127951,462847,33.8083838,468769,0.537666743,7455,128,20.3732783,282485,32058.59375,1920,128
33.21864524,460592,33.52602762,464854,0.223937657,3105,128,20.19448879,280006,32078.125,2560,128
35.72443911,495336,33.28117469,461459,1.181568644,16383,128,20.01483381,277515,32097.65625,3200,128
36.63432558,507952,33.19852331,460313,1.108365191,15368,128,20.01093924,277461,32117.1875,3840,128
37.69999477,522728,33.12863745,459344,1.126323477,15617,128,19.94509219,276548,32136.71875,4480,128
33.10325064,458992,33.07505108,458601,1.11586584,15472,128,19.91573869,276141,32156.25,5120,128
37.81178329,524278,33.08428265,458729,1.181568644,16383,128,19.86496507,275437,32175.78125,5760,128
37.8121439,524283,32.97985053,457281,1.173563143,16272,128,19.69612833,273096,32195.3125,6400,128
37.75668237,523514,32.94602548,456812,1.116587057,15482,128,19.63540192,272254,32214.84375,7040,128
37.57421465,520984,32.89691066,456131,1.107788218,15360,128,19.56652577,271299,32234.375,7680,128
37.81034086,524258,32.86899958,455744,1.155172128,16017,128,19.52844555,270771,32253.90625,8320,128
37.77500126,523768,33.0697862,458528,0.077891359,1080,128,19.97783541,277002,32273.4375,8960,128
33.31615368,461944,33.28535775,461517,1.182145617,16391,128,20.58560438,285429,32292.96875,9600,128
37.66681882,522268,32.83178482,455228,1.133175031,15712,128,19.74264678,273741,32312.5,10240,128
37.54385144,520563,32.7873579,454612,1.148825425,15929,128,19.48156649,270121,32332.03125,10880,128
37.24238303,516383,32.75057587,454102,0.53535885,7423,128,19.39509265,268922,32351.5625,11520,128
37.22168412,516096,32.72331389,453724,0.59067614,8190,128,19.35694031,268393,32371.09375,12160,128
37.69472989,522655,32.69713374,453361,0.554975933,7695,128,19.35686819,268392,32390.625,12800,128
37.81236026,524286,32.69655677,453353,0.57430453,7963,128,19.3385493,268138,32410.15625,13440,128
37.79627714,524063,32.68941673,453254,0.588656734,8162,128,19.34028022,268162,32429.6875,14080,128
37.80550871,524191,32.7006677,453410,0,0,128,19.35052149,268304,32449.21875,14720,128
37.80060444,524123,32.72021266,453681,2.16E-04,3,128,19.37778346,268682,32468.75,15360,128
37.74117622,523299,32.74978253,454091,0,0,128,19.44103413,269559,32488.28125,16000,128
37.81221602,524284,32.8157017,455005,0,0,128,19.58433981,271546,32507.8125,16640,128
37.5537321,520700,32.80942712,454918,0.00973642,135,128,19.58491678,271554,32527.34375,17280,128
37.74088773,523295,32.68148335,453144,0.589666437,8176,128,19.3919193,268878,32546.875,17920,128
37.33469872,517663,32.54510135,451253,0.517400565,7174,128,19.18644478,266029,32566.40625,18560,128
37.80788872,524224,32.45776206,450042,0.29533807,4095,128,19.03491724,263928,32585.9375,19200,128
37.16622259,515327,32.44744866,449899,0.00973642,135,128,18.99496186,263374,32605.46875,19840,128
37.21245256,515968,32.41210907,449409,0.018391015,255,128,18.96034348,262894,32625,20480,128
37.2009131,515808,32.38881378,449086,0.032526855,451,128,18.92810511,262447,32644.53125,21120,128
37.2195926,516067,32.38614528,449049,0,0,128,18.89831887,262034,32664.0625,21760,128
37.22153988,516094,32.37965433,448959,2.355059666,32654,128,18.86867689,261623,32683.59375,22400,128
37.16232802,515273,32.35282509,448587,2.32866315,32288,128,18.85490165,261432,32703.125,23040,128
37.21310165,515977,32.33176557,448295,2.289140497,31740,128,18.8213651,260967,32722.65625,23680,128
36.96774387,512575,32.32094733,448145,2.281351361,31632,128,18.79064128,260541,32742.1875,24320,128
36.76940939,509825,32.2995272,447848,2.21838918,30759,128,18.75551805,260054,32761.71875,24960,128
36.92663454,512005,32.28322772,447622,2.133357779,29580,128,18.72421726,259620,32781.25,25600,128
36.74589774,509499,32.27601555,447522,2.150883335,29823,128,18.70856687,259403,32800.78125,26240,128
36.98570216,512824,32.24925843,447151,2.082223544,28871,128,18.66363509,258780,32820.3125,26880,128
36.69562896,508802,32.23952201,447016,2.069746503,28698,128,18.62858398,258294,32839.84375,27520,128
36.63309951,507935,32.18831565,446306,1.845953089,25595,128,18.57377155,257534,32859.375,28160,128
36.77633307,509921,32.18211319,446220,1.874080524,25985,128,18.59418197,257817,32878.90625,28800,128
36.91754722,511879,32.14598026,445719,1.901919472,26371,128,18.56252057,257378,32898.4375,29440,128
36.77640519,509922,32.16336157,445960,1.910934676,26496,128,18.58531101,257694,32917.96875,30080,128
36.89295374,511538,32.13869597,445618,1.911006798,26497,128,18.55725569,257305,32937.5,30720,128
36.6633906,508355,32.06469918,444592,1.772966,24583,128,18.41070454,255273,32957.03125,31360,128
36.74185893,509443,32.01104069,443848,1.788544272,24799,128,18.31838886,253993,32976.5625,32000,128
33.08139778,458689,31.95464158,443066,1.255709679,17411,128,18.23963204,252901,32996.09375,32640,128
33.07562805,458609,31.91446983,442509,1.21416762,16835,128,18.18424263,252133,33015.625,33280,128
33.04901517,458240,31.90552675,442385,1.310810603,18175,128,18.17811229,252048,33035.15625,33920,128
36.63547953,507968,32.21673157,446700,2.290510808,31759,128,19.02489233,263789,33054.6875,34560,128
36.63201769,507920,31.94598698,442946,1.16368248,16135,128,18.47842675,256212,33074.21875,35200,128
32.93960666,456723,31.8883618,442147,1.255060584,17402,128,18.19520512,252285,33093.75,35840,128
33.06964196,458526,31.85107492,441630,1.246261745,17280,128,18.07714201,250648,33113.28125,36480,128
33.08197475,458697,31.80549405,440998,1.183732293,16413,128,18.00934768,249708,33132.8125,37120,128
33.00458825,457624,31.79258428,440819,1.329201618,18430,128,17.98410511,249358,33152.34375,37760,128
32.9750905,457215,31.77513084,440577,1.311748184,18188,128,17.95669889,248978,33171.875,38400,128
33.05182791,458279,31.77577994,440586,1.330427686,18447,128,17.93297087,248649,33191.40625,39040,128
32.94018363,456731,31.77246234,440540,1.358266635,18833,128,17.95684313,248980,33210.9375,39680,128
33.04908729,458241,31.78075633,440655,1.409977843,19550,128,17.95489585,248953,33230.46875,40320,128
32.93866908,456710,31.80664799,441014,1.476113376,20467,128,18.01706469,249815,33250,40960,128
33.04504848,458185,31.83275602,441376,1.191377186,16519,128,18.15222062,251689,33269.53125,41600,128
33.08067657,458679,31.81595168,441143,1.395337152,19347,128,18.2244865,252691,33289.0625,42240,128
33.0857972,458750,31.771669,440529,1.218206432,16891,128,18.1287811,251364,33308.59375,42880,128
33.05355883,458303,31.70639893,439624,1.218278553,16892,128,17.94414973,248804,33328.125,43520,128
33.07101227,458545,31.55883808,437578,1.21856704,16896,128,17.71220657,245588,33347.65625,44160,128
32.76788506,454342,31.53640825,437267,0.147632974,2047,128,17.63207944,244477,33367.1875,44800,128
32.68025728,453127,31.50618929,436848,0.151239056,2097,128,17.58967192,243889,33386.71875,45440,128
32.53089339,451056,31.47871095,436467,0.008943082,124,128,17.54935593,243330,33406.25,46080,128
32.64167221,452592,31.45902174,436194,0.014063718,195,128,17.5312534,243079,33425.78125,46720,128
33.08233536,458702,31.44106346,435945,0.004543663,63,128,17.49209136,242536,33445.3125,47360,128
32.49562591,450567,31.42837005,435769,0,0,128,17.46425241,242150,33464.84375,48000,128
32.49512106,450560,31.39988201,435374,0.016155245,224,128,17.44153409,241835,33484.375,48640,128
32.49966472,450623,31.39028983,435241,0.293102299,4064,128,17.39984779,241257,33503.90625,49280,128
33.07714261,458630,31.37312488,435003,0.294256245,4080,128,17.39112108,241136,33523.4375,49920,128
32.86431168,455679,31.35062293,434691,0.221557644,3072,128,17.35671906,240659,33542.96875,50560,128
33.076782,458625,31.32292823,434307,0.153474826,2128,128,17.3241922,240208,33562.5,51200,128
32.79053125,454656,31.30136386,434008,0.167250057,2319,128,17.28704957,239693,33582.03125,51840,128
32.48639434,450439,31.29609898,433935,0.149868745,2078,128,17.28567926,239674,33601.5625,52480,128
32.48588949,450432,31.25621572,433382,0.035123233,487,128,17.21456733,238688,33621.09375,53120,128
32.43013947,449659,31.22823253,432994,0.002380014,33,128,17.18982961,238345,33640.625,53760,128
32.49483257,450556,31.22130885,432898,0.061014898,846,128,17.22473648,238829,33660.15625,54400,128
32.42069154,449528,31.21027424,432745,0.00223577,31,128,17.19148841,238368,33679.6875,55040,128
32.49396712,450544,31.21553912,432818,0.073780426,1023,128,17.20728304,238587,33699.21875,55680,128
32.47665792,450304,31.2091203,432729,0.056831843,788,128,17.16501977,238001,33718.75,56320,128
32.34741597,448512,31.17731466,432288,0.239011078,3314,128,17.09152783,236982,33738.28125,56960,128
32.04731787,444351,31.13231076,431664,0.147705096,2048,128,17.00375581,235765,33757.8125,57600,128
32.04969788,444384,31.11529006,431428,0.151743907,2104,128,16.989043,235561,33777.34375,58240,128
32.19971087,446464,31.0524,430556,0.002307892,32,128,16.90754556,234431,33796.875,58880,128
32.23187712,446910,31.12581982,431574,0,0,128,17.0120498,235880,33816.40625,59520,128
32.82392357,455119,31.53806705,437290,1.190800213,16511,128,17.94155335,248768,33835.9375,60160,128
32.49281317,450528,31.09062446,431086,1.177024982,16320,128,17.17576589,238150,33855.46875,60800,128
32.27262584,447475,31.06213642,430691,0.014712812,204,128,16.96387255,235212,33875,61440,128
31.90884434,442431,31.01619494,430054,0.016083123,223,128,16.85042523,233639,33894.53125,62080,128
32.19502296,446399,31.01215613,429998,0.034329895,476,128,16.85886346,233756,33914.0625,62720,128
32.16732826,446015,30.97941291,429544,0.295121705,4092,128,16.80008433,232941,33933.59375,63360,128
32.19451811,446392,30.98222565,429583,0.291876232,4047,128,16.79813704,232914,33953.125,64000,128
32.14771118,445743,30.96621465,429361,0.293030178,4063,128,16.7969831,232898,33972.65625,64640,128
32.19855692,446448,30.9610219,429289,0.293102299,4064,128,16.79503581,232871,33992.1875,65280,128
32.16285672,445953,30.98410082,429609,0.277451906,3847,128,16.82309113,233260,34011.71875,384,128
32.1904793,446336,31.0437454,430436,1.44E-04,2,128,16.93776452,234850,34031.25,1024,128
32.23706987,446982,31.06754554,430766,0.184559248,2559,128,17.01370859,235903,34050.78125,1664,128
31.90545462,442384,31.08543171,431014,0.26259485,3641,128,17.06801618,236656,34070.3125,2304,128
32.02423895,444031,30.99953485,429823,0.131549851,1824,128,16.95190036,235046,34089.84375,2944,128
32.05106819,444403,30.81800471,427306,0.134723203,1868,128,16.70683106,231648,34109.375,3584,128
31.95969009,443136,30.73636302,426174,0.007500649,104,128,16.57593031,229833,34128.90625,4224,128
30.68970033,425527,30.68847426,425510,2.358665747,32704,128,16.49428862,228701,34148.4375,4864,128
30.69272944,425569,30.67686268,425349,2.312435783,32063,128,16.4818837,228529,34167.96875,5504,128
29.50863654,409151,30.65299042,425018,2.251997859,31225,128,16.46111267,228241,34187.5,6144,128
30.71566411,425887,30.63770063,424806,2.244929939,31127,128,16.4355095,227886,34207.03125,6784,128
29.46493083,408545,30.62594481,424643,2.215792801,30723,128,16.41531544,227606,34226.5625,7424,128
30.60950108,424415,30.58353729,424055,2.21665826,30735,128,16.38286071,227156,34246.09375,8064,128
30.57142086,423887,30.55295772,423631,2.362993045,32764,128,16.34564595,226640,34265.625,8704,128
29.50604016,409115,30.54141826,423471,2.326787988,32262,128,16.3204755,226291,34285.15625,9344,128
29.35631566,407039,30.5115599,423057,2.243271141,31104,128,16.30951301,226139,34304.6875,9984,128
29.53979308,409583,30.49482769,422825,2.250699669,31207,128,16.2824674,225764,34324.21875,10624,128
29.45093923,408351,30.47167664,422504,2.215648558,30721,128,16.24784902,225284,34343.75,11264,128
30.42775457,421895,30.4651857,422414,2.066140421,28648,128,16.24597385,225258,34363.28125,11904,128
29.42908638,408048,30.4598487,422340,2.040248756,28289,128,16.22015431,224900,34382.8125,12544,128
29.25426355,405624,30.43597644,422009,2.065563448,28640,128,16.20205178,224649,34402.34375,13184,128
29.39374678,407558,30.44729953,422166,2.064048894,28619,128,16.24748841,225279,34421.875,13824,128
29.24661866,405518,30.42624002,421874,2.233823208,30973,128,16.25001267,225314,34441.40625,14464,128
30.16869368,418303,30.44924682,422193,2.215864923,30724,128,16.27951041,225723,34460.9375,15104,128
29.41170507,407807,30.44758802,422170,2.224808004,30848,128,16.24943569,225306,34480.46875,15744,128
29.41170507,407807,30.4441983,422123,2.003106118,27774,128,16.20125844,224638,34500,16384,128
29.50560743,409109,30.38794343,421343,1.920238366,26625,128,16.10158635,223256,34519.53125,17024,128
29.47279209,408654,30.36940817,421086,1.790635799,24828,128,16.09148933,223116,34539.0625,17664,128
29.53698034,409544,30.34762744,420784,1.774480554,24604,128,16.07230497,222850,34558.59375,18304,128
29.50632864,409119,30.31870667,420383,1.836793642,25468,128,16.01446343,222048,34578.125,18944,128
30.71371683,425860,30.91508042,428652,0.143954771,1996,128,17.12080921,237388,34597.65625,19584,128
31.97346532,443327,30.47744637,422584,0.004399419,61,128,16.64646526,230811,34617.1875,20224,128
30.13227226,417798,30.37806277,421206,1.889081823,26193,128,16.2167646,224853,34636.71875,20864,128
29.53070575,409457,30.35606567,420901,1.92218565,26652,128,16.07944501,222949,34656.25,21504,128
29.46723872,408577,30.35577719,420897,1.793160056,24863,128,16.05095697,222554,34675.78125,22144,128
29.50640076,409120,30.35209898,420846,1.789626096,24814,128,16.01431918,222046,34695.3125,22784,128
29.46731084,408578,30.35527234,420890,1.774624798,24606,128,16.01129007,222004,34714.84375,23424,128
29.54015369,409588,30.35130565,420835,1.804771638,25024,128,16.01229978,222018,34734.375,24064,128
29.47567695,408694,30.36810999,421068,1.773038122,24584,128,16.03112352,222279,34753.90625,24704,128
29.53438396,409508,30.37452881,421157,1.790996407,24833,128,16.04727877,222503,34773.4375,25344,128
30.13645531,417856,30.42407637,421844,1.809315301,25087,128,16.11471249,223438,34792.96875,25984,128
29.40773838,407752,30.47867244,422601,2.035416607,28222,128,16.2194331,224890,34812.5,26624,128
30.42724972,421888,30.51437265,423096,2.21665826,30735,128,16.29919962,225996,34832.03125,27264,128
29.50510258,409102,30.47182089,422506,1.920094123,26623,128,16.24640658,225264,34851.5625,27904,128
29.24438289,405487,30.26605788,419653,1.883239971,26112,128,15.96527648,221366,34871.09375,28544,128
28.96375763,401596,30.18239679,418493,1.219071891,16903,128,15.84173213,219653,34890.625,29184,128
28.96837341,401660,30.12635829,417716,1.329129497,18429,128,15.72186598,217991,34910.15625,29824,128
28.48631245,394976,30.09988965,417349,1.190800213,16511,128,15.67816027,217385,34929.6875,30464,128
28.91312825,400894,30.09476901,417278,1.181640766,16384,128,15.67376085,217324,34949.21875,31104,128
28.43784671,394304,30.06808401,416908,1.441278629,19984,128,15.62529512,216652,34968.75,31744,128
28.53874487,395703,30.01579583,416183,1.403486896,19460,128,15.58663792,216116,34988.28125,32384,128
28.3681051,393337,30.00324667,416009,1.254555733,17395,128,15.54170615,215493,35007.8125,33024,128
28.88442384,400496,29.9993521,415955,1.355814499,18799,128,15.53550369,215407,35027.34375,33664,128
28.59002335,396414,29.99199569,415853,1.338505308,18559,128,15.49872166,214897,35046.875,34304,128
28.36853783,393343,29.97396528,415603,1.202123308,16668,128,15.45970386,214356,35066.40625,34944,128
28.45054012,394480,29.94605421,415216,1.216114904,16862,128,15.42335456,213852,35085.9375,35584,128
28.46958023,394744,29.93581294,415074,1.185679577,16440,128,15.40712719,213627,35105.46875,36224,128
28.36853783,393343,29.91597949,414799,1.183876536,16415,128,15.38159613,213273,35125,36864,128
28.94579934,401347,29.90371882,414629,0.286683474,3975,128,15.34394864,212751,35144.53125,37504,128
28.38822703,393616,29.89528059,414512,0.260142715,3607,128,15.3304619,212564,35164.0625,38144,128
28.36637418,393313,29.92355227,414904,1.195704483,16579,128,15.39674168,213483,35183.59375,38784,128
28.9093058,400841,29.9340099,415049,1.19556024,16577,128,15.41231995,213699,35203.125,39424,128
28.41036837,393923,29.95521366,415343,1.255421192,17407,128,15.4198206,213803,35222.65625,40064,128
28.50491983,395234,29.9633634,415456,1.238761096,17176,128,15.38599555,213334,35242.1875,40704,128
28.4151284,393989,29.89679514,414533,0.073780426,1023,128,15.27759675,211831,35261.71875,41344,128
28.87858199,400415,29.84876214,413867,0.017886164,248,128,15.19537809,210691,35281.25,41984,128
28.87656258,400387,29.83657358,413698,0.028704408,398,128,15.17064037,210348,35300.78125,42624,128
28.645557,397184,29.79236302,413085,0.01507342,209,128,15.09548963,209306,35320.3125,43264,128
28.87620197,400382,29.90436791,414638,0.294256245,4080,128,15.31084482,212292,35339.84375,43904,128
29.40218501,407675,30.11604489,417573,2.049480325,28417,128,16.06956435,222812,35359.375,44544,128
28.64613398,397192,29.80931161,413320,0.102124226,1416,128,15.31582121,212361,35378.90625,45184,128
28.4884761,395006,29.81190798,413356,0.147632974,2047,128,15.20432117,210815,35398.4375,45824,128
28.4424625,394368,29.78825209,413028,0.018391015,255,128,15.09116233,209246,35417.96875,46464,128
28.50499195,395235,29.79279575,413091,0.277524028,3848,128,15.0480336,208648,35437.5,47104,128
28.61663623,396783,29.78277085,412952,0.258195431,3580,128,15.01824737,208235,35457.03125,47744,128
28.39450161,393703,29.75832161,412613,0.233024983,3231,128,15.00324607,208027,35476.5625,48384,128
28.63394542,397023,29.74180576,412384,0.223793414,3103,128,14.99588966,207925,35496.09375,49024,128
28.36154203,393246,29.73704573,412318,0.239948659,3327,128,15.0056982,208061,35515.625,49664,128
28.65471645,397311,29.7506046,412506,0.257329971,3568,128,15.03757596,208503,35535.15625,50304,128
28.65248068,397280,29.79113696,413068,0.016732218,232,128,15.12318434,209690,35554.6875,50944,128
28.41700356,394015,29.82705353,413566,0.045869356,636,128,15.18398287,210533,35574.21875,51584,128
28.50672287,395259,29.8083019,413306,0.168476125,2336,128,15.21715882,210993,35593.75,52224,128
28.36334507,393271,29.70177826,411829,0.145613568,2019,128,15.05459667,208739,35613.28125,52864,128
28.43207698,394224,29.54130763,409604,0.109841241,1523,128,14.78075084,204942,35632.8125,53504,128
28.645557,397184,29.49500555,408962,0.133929865,1857,128,14.70163342,203845,35652.34375,54144,128
28.4268121,394151,29.4505065,408345,0.147921461,2051,128,14.61876567,202696,35671.875,54784,128
28.36219112,393255,29.42829304,408037,0.00930369,129,128,14.59575887,202377,35691.40625,55424,128
28.35995535,393224,29.40326684,407690,0.009159447,127,128,14.57505996,202090,35710.9375,56064,128
29.53582639,409528,29.37016301,407231,0,0,128,14.51043898,201194,35730.46875,56704,128
28.450468,394479,29.33648221,406764,0.29533807,4095,128,14.46341568,200542,35750,57344,128
28.42623513,394143,29.2960941,406204,0.245790511,3408,128,14.4314658,200099,35769.53125,57984,128
29.50409287,409088,29.25981692,405701,0.149868745,2078,128,14.38437037,199446,35789.0625,58624,128
28.35995535,393224,29.24019983,405429,0.166096111,2303,128,14.33893375,198816,35808.59375,59264,128
29.53157121,409469,29.21712091,405109,0.00223577,31,128,14.30590204,198358,35828.125,59904,128
28.36219112,393255,29.18668558,404687,0.018318894,254,128,14.26060966,197730,35847.65625,60544,128
29.46255081,408512,29.16353454,404366,0.009159447,127,128,14.22216883,197197,35867.1875,61184,128
29.52197904,409336,29.15040841,404184,5.05E-04,7,128,14.2280828,197279,35886.71875,61824,128
29.51354081,409219,29.13634469,403989,8.65E-04,12,128,14.17745342,196577,35906.25,62464,128
28.41029625,393922,29.14420595,404098,0.004399419,61,128,14.20082083,196901,35925.78125,63104,128
29.50495833,409100,29.1040342,403541,2.36320941,32767,128,14.17687645,196569,35945.3125,63744,128
29.50495833,409100,29.13915743,404028,0.024160746,335,128,14.20457115,196953,35964.84375,64384,128
29.52493602,409377,29.12696888,403859,2.36320941,32767,128,14.1437005,196109,35984.375,65024,128
29.4671666,408576,29.04287506,402693,2.298299944,31867,128,14.04085505,194683,36003.90625,128,128
29.453175,408382,28.99606812,402044,2.139127509,29660,128,13.92755198,193112,36023.4375,768,128
28.95019876,401408,28.95712244,401504,2.075948963,28784,128,13.87786017,192423,36042.96875,1408,128
28.94796299,401377,28.94796299,401377,2.035272364,28220,128,13.85030971,192041,36062.5,2048,128
28.46921962,394739,28.99707782,402058,1.922402015,26655,128,13.96700251,193659,36082.03125,2688,128
28.57632024,396224,29.44012099,408201,1.44E-04,2,128,14.86325799,206086,36101.5625,3328,128
29.53207606,409476,28.91384946,400904,0.294833218,4088,128,14.0146749,194320,36121.09375,3968,128
28.49063975,395036,28.88067351,400444,1.883239971,26112,128,13.86300312,192217,36140.625,4608,128
28.55093343,395872,28.8466321,399972,1.807440139,25061,128,13.77155289,190949,36160.15625,5248,128
28.54170186,395744,28.86076794,400168,1.790635799,24828,128,13.73635754,190461,36179.6875,5888,128
28.64036425,397112,28.86192189,400184,1.920454731,26628,128,13.74674305,190605,36199.21875,6528,128
28.84454058,399943,28.84331451,399926,1.919012298,26608,128,13.71313437,190139,36218.75,7168,128
28.51112229,395320,28.8296114,399736,1.782413934,24714,128,13.69113728,189834,36238.28125,7808,128
28.39652102,393731,28.85189698,400045,1.80527649,25031,128,13.73527571,190446,36257.8125,8448,128
28.57978208,396272,28.85716186,400118,1.807079531,25056,128,13.73469874,190438,36277.34375,9088,128
28.90865671,400832,28.91240703,400884,1.956948275,27134,128,13.83696721,191856,36296.875,9728,128
29.26868788,405824,28.97385466,401736,2.261662157,31359,128,13.93699991,193243,36316.40625,10368,128
29.24993625,405564,28.98164379,401844,2.349362057,32575,128,13.99801481,194089,36335.9375,11008,128
28.82030771,399607,28.85016606,400021,1.874296889,25988,128,13.84071754,191908,36355.46875,11648,128
28.43323093,394240,28.72972294,398351,1.781620596,24703,128,13.64404185,189181,36375,12288,128
28.50434285,395226,28.63589271,397050,1.251382381,17351,128,13.4661178,186714,36394.53125,12928,128
28.6451964,397179,28.6065392,396643,1.327254334,18403,128,13.41195445,185963,36414.0625,13568,128
28.43553882,394272,28.5771857,396236,1.327398578,18405,128,13.37091725,185394,36433.59375,14208,128
28.42861514,394176,28.55792922,395969,1.182794712,16400,128,13.35944991,185235,36453.125,14848,128
28.38707309,393600,28.53600425,395665,1.210705782,16787,128,13.31358055,184599,36472.65625,15488,128
28.35937838,393216,28.51710838,395403,1.186184428,16447,128,13.30723385,184511,36492.1875,16128,128
28.36853783,393343,28.5135023,395353,1.186184428,16447,128,13.30261806,184447,36511.71875,16768,128
28.50585741,395247,28.48703366,394986,1.321917334,18329,128,13.26670149,183949,36531.25,17408,128
28.39168887,393664,28.46611839,394696,1.330355564,18446,128,13.21686545,183258,36550.78125,18048,128
28.37784152,393472,28.4531365,394516,1.330211321,18444,128,13.20049384,183031,36570.3125,18688,128
28.4124599,393952,28.4124599,393952,1.329850713,18439,128,13.16407241,182526,36589.84375,19328,128
28.36969177,393359,28.38736157,393604,1.327254334,18403,128,13.12404491,181971,36609.375,19968,128
28.37553363,393440,28.36889844,393348,1.327470699,18406,128,13.10002841,181638,36628.90625,20608,128
28.35937838,393216,28.36774449,393332,1.324225226,18361,128,13.08423377,181419,36648.4375,21248,128
21.26837984,294896,28.31213871,392561,1.217413094,16880,128,13.03151286,180688,36667.96875,21888,128
21.26931742,294909,28.30521504,392465,1.217629459,16883,128,13.02357948,180578,36687.5,22528,128
21.26484588,294847,28.33146731,392829,1.248497516,17311,128,13.08596469,181443,36707.03125,23168,128
21.26946166,294911,28.33846311,392926,1.185751699,16441,128,13.08870531,181481,36726.5625,23808,128
21.26946166,294911,28.36103718,393239,1.183876536,16415,128,13.1006775,181647,36746.09375,24448,128
28.36601357,393308,28.3654366,393300,1.329201618,18430,128,13.08762349,181466,36765.625,25088,128
21.26722589,294880,28.3161054,392616,1.181640766,16384,128,13.01708853,180488,36785.15625,25728,128
21.19575336,293889,28.28559795,392193,0.145397204,2016,128,12.9472748,179520,36804.6875,26368,128
21.2685962,294899,28.27182272,392002,0.073780426,1023,128,12.91720008,179103,36824.21875,27008,128
21.15875496,293376,28.21866908,391265,0.029497746,409,128,12.8419051,178059,36843.75,27648,128
21.23960331,294497,28.33968918,392943,1.225923446,16998,128,13.05156267,180966,36863.28125,28288,128
28.36046021,393231,28.67880507,397645,2.125929251,29477,128,13.86877285,192297,36882.8125,28928,128
21.19907095,293935,28.30730656,392494,1.210489417,16784,128,13.1653706,182544,36902.34375,29568,128
21.26145616,294800,28.27348152,392025,0.146190542,2027,128,12.97367131,179886,36921.875,30208,128
21.13098814,292991,28.26699057,391935,0.221557644,3072,128,12.93840384,179397,36941.40625,30848,128
21.20527341,294021,28.29511801,392325,0.14878692,2063,128,12.91489219,179071,36960.9375,31488,128
21.21414437,294144,28.30420533,392451,0.149940866,2079,128,12.91720008,179103,36980.46875,32128,128
21.26946166,294911,28.30326775,392438,0.14655115,2032,128,12.94049536,179426,37000,32768,128
21.26946166,294911,28.31790844,392641,0.237208037,3289,128,12.95564091,179636,37019.53125,33408,128
21.26837984,294896,28.33283762,392848,0.294184124,4079,128,12.9782871,179950,37039.0625,34048,128
28.35988323,393223,28.36846571,393342,1.217413094,16880,128,13.0473075,180907,37058.59375,34688,128
28.35959475,393219,28.43395214,394250,1.254988462,17401,128,13.14423897,182251,37078.125,35328,128
28.35937838,393216,28.49871737,395148,1.431974939,19855,128,13.24823835,183693,37097.65625,35968,128
28.50477558,395232,28.48458153,394952,1.319825807,18300,128,13.28343371,184181,37117.1875,36608,128
28.36002748,393225,28.37849061,393481,1.181640766,16384,128,13.14813353,182305,37136.71875,37248,128
21.26015797,294782,28.20085504,391018,0.035772328,496,128,12.87933622,178578,37156.25,37888,128
20.9751333,290830,28.16032269,390456,0.131261364,1820,128,12.80101213,177492,37175.78125,38528,128
21.23635784,294452,28.13385405,390089,0.073275575,1016,128,12.73617479,176593,37195.3125,39168,128
21.18882968,293793,28.12173761,389921,0.036349301,504,128,12.73841056,176624,37214.84375,39808,128
21.04588461,291811,28.11726607,389859,0.001370311,19,128,12.73422751,176566,37234.375,40448,128
20.97852301,290877,28.10529388,389693,0.002019406,28,128,12.72456321,176432,37253.90625,41088,128
20.069502,278273,28.10197629,389647,0.006995798,97,128,12.70977827,176227,37273.4375,41728,128
20.97686422,290854,28.07651735,389294,0.147128123,2040,128,12.67155381,175697,37292.96875,42368,128
20.97412359,290816,28.06858397,389184,0.223865536,3104,128,12.64119061,175276,37312.5,43008,128
20.05904437,278128,28.04038442,388793,0.138257162,1917,128,12.62070806,174992,37332.03125,43648,128
21.26946166,294911,28.02321947,388555,0.14878692,2063,128,12.60657222,174796,37351.5625,44288,128
20.07866145,278400,27.99242353,388128,0.03231049,448,128,12.58421452,174486,37371.09375,44928,128
20.71448573,287216,27.98088407,387968,0.147632974,2047,128,12.55356283,174061,37390.625,45568,128
20.69775351,286984,27.9723016,387849,0.008943082,124,128,12.52702207,173693,37410.15625,46208,128
20.68044432,286744,27.93667351,387355,0.138401406,1919,128,12.48901397,173166,37429.6875,46848,128
20.8300967,288819,27.92477345,387190,0.073275575,1016,128,12.46665626,172856,37449.21875,47488,128
19.79248283,274432,27.89945875,386839,0.018463137,256,128,12.43066757,172357,37468.75,48128,128
20.69840261,286993,27.90393029,386901,0.062529452,867,128,12.45122224,172642,37488.28125,48768,128
20.05298615,278044,27.88416897,386627,0.071544656,992,128,12.4497798,172622,37507.8125,49408,128
20.7707406,287996,27.87731741,386532,0.065414317,907,128,12.4761042,172987,37527.34375,50048,128
19.90326165,275968,27.89404963,386764,0.064620979,896,128,12.46290594,172804,37546.875,50688,128
20.68787285,286847,27.84911786,386141,0.101547253,1408,128,12.36345021,171425,37566.40625,51328,128
19.8294091,274944,27.81067703,385608,5.05E-04,7,128,12.27849093,170247,37585.9375,51968,128
20.08731605,278520,27.80259941,385496,0,0,128,12.26507631,170061,37605.46875,52608,128
19.81080172,274686,27.7995703,385454,0.147416609,2044,128,12.24682954,169808,37625,53248,128
19.80229137,274568,27.81875465,385720,0.15809061,2192,128,12.2883716,170384,37644.53125,53888,128
21.23260751,294400,28.33117882,392825,1.201257849,16656,128,13.1653706,182544,37664.0625,54528,128
20.95566046,290560,27.86743675,386395,1.144714492,15872,128,12.57671387,174382,37683.59375,55168,128
20.07866145,278400,27.83447717,385938,0.091810833,1273,128,12.35147802,171259,37703.125,55808,128
20.00942469,277440,27.82474075,385803,0.137896554,1912,128,12.24913743,169840,37722.65625,56448,128
20.74333438,287616,27.82517348,385809,0.022429827,311,128,12.21257177,169333,37742.1875,57088,128
20.08500815,278488,27.81197522,385626,0.018391015,255,128,12.20377293,169211,37761.71875,57728,128
19.53169102,270816,27.80404184,385516,0.004543663,63,128,12.19021406,169023,37781.25,58368,128
20.67950674,286731,27.80281577,385499,0.002812744,39,128,12.16136541,168623,37800.78125,59008,128
19.52245945,270688,27.79488239,385389,5.05E-04,7,128,12.16446664,168666,37820.3125,59648,128
19.79594467,274480,27.80930672,385589,0.001081824,15,128,12.18776193,168989,37839.84375,60288,128
20.73756465,287536,27.82654379,385828,0.01637161,227,128,12.21617785,169383,37859.375,60928,128
20.73460766,287495,27.88503443,386639,0.226173428,3136,128,12.33878462,171083,37878.90625,61568,128
20.74795017,287680,27.90414666,386904,0.293102299,4064,128,12.38414912,171712,37898.4375,62208,128
20.0878209,278527,27.82928441,385866,0.039017801,541,128,12.29825226,170521,37917.96875,62848,128
19.49700052,270335,27.72175106,384375,0.004543663,63,128,12.12494399,168118,37937.5,63488,128
19.20187881,266243,27.58933575,382539,0.08279563,1148,128,11.89812146,164973,37957.03125,64128,128
19.20858612,266336,27.55399615,382049,0.016299488,226,128,11.83357261,164078,37976.5625,64768,128
19.26736525,267151,27.53452331,381779,2.345323246,32519,128,11.80457971,163676,37996.09375,65408,128
18.94426035,262671,27.5107953,381450,2.345683854,32524,128,11.76649949,163148,38015.625,512,128
18.90675711,262151,27.49326974,381207,2.344241422,32504,128,11.75474367,162985,38035.15625,1152,128
18.92110931,262350,27.50185221,381326,2.363137288,32766,128,11.75972006,163054,38054.6875,1792,128
18.90827166,262172,27.50004917,381301,2.362127586,32752,128,11.72063014,162512,38074.21875,2432,128
18.94310641,262655,27.47184962,380910,2.358809991,32706,128,11.7011573,162242,38093.75,3072,128
19.19264724,266115,27.45547801,380683,2.330466191,32313,128,11.67223652,161841,38113.28125,3712,128
19.17389562,265855,27.44328945,380514,2.211177017,30659,128,11.65045579,161539,38132.8125,4352,128
19.12896384,265232,27.42352813,380240,2.199132705,30492,128,11.61540468,161053,38152.34375,4992,128
19.20043638,266223,27.42569177,380270,2.215504314,30719,128,11.60768766,160946,38171.875,5632,128
18.90863227,262177,27.42013841,380193,2.137324469,29635,128,11.59037847,160706,38191.40625,6272,128
19.14692213,265481,27.42302327,380233,2.123332873,29441,128,11.58121903,160579,38210.9375,6912,128
19.16495254,265731,27.40932016,380043,2.107970966,29228,128,11.57032866,160428,38230.46875,7552,128
18.9754169,263103,27.39258795,379811,2.106744898,29211,128,11.5667947,160379,38250,8192,128
19.13228144,265278,27.34736769,379184,2.104725493,29183,128,11.55576009,160226,38269.53125,8832,128
19.09073938,264702,27.35732047,379322,2.123332873,29441,128,11.58222873,160593,38289.0625,9472,128
19.13127174,265264,27.32169239,378828,2.068376192,28679,128,11.48738879,159278,38308.59375,10112,128
18.90625225,262144,27.255052,377904,1.774480554,24604,128,11.39298158,157969,38328.125,10752,128
18.90733408,262159,27.21682754,377374,1.885475741,26143,128,11.30564228,156758,38347.65625,11392,128
20.08104146,278433,27.1710303,376739,1.772966,24583,128,11.24506012,155918,38367.1875,12032,128
19.03722513,263960,27.14196529,376336,1.320114293,18304,128,11.22010603,155572,38386.71875,12672,128
19.48207134,270128,27.14427318,376368,1.326893726,18398,128,11.21318236,155476,38406.25,13312,128
18.92377781,262387,27.5775078,382375,0.32764856,4543,128,12.143335,168373,38425.78125,13952,128
20.04685581,277959,27.12436761,376092,1.163249751,16129,128,11.47159415,159059,38445.3125,14592,128
20.06942988,278272,27.10850085,375872,1.777004811,24639,128,11.26676873,156219,38464.84375,15232,128
19.41232972,269161,27.07467581,375403,1.273884329,17663,128,11.17012574,154879,38484.375,15872,128
19.46238213,269855,27.07381035,375391,1.246405989,17282,128,11.1426474,154498,38503.90625,16512,128
19.49591869,270320,27.07972432,375473,1.227221635,17016,128,11.12288608,154224,38523.4375,17152,128
19.42322009,269312,27.04907263,375048,1.188564442,16480,128,11.08574344,153709,38542.96875,17792,128
19.3529015,268337,27.03255678,374819,1.328336159,18418,128,11.07456459,153554,38562.5,18432,128
18.90625225,262144,27.05924178,375189,1.238400488,17171,128,11.11617876,154131,38582.03125,19072,128
19.49007684,270239,27.06118906,375216,1.242078691,17222,128,11.13889708,154446,38601.5625,19712,128
19.49469262,270303,27.0876577,375583,1.32927374,18431,128,11.18051126,155023,38621.09375,20352,128
19.20101335,266231,27.15732719,376549,1.777653906,24648,128,11.33232729,157128,38640.625,20992,128
19.49620718,270324,27.17463638,376789,1.917858352,26592,128,11.36954205,157644,38660.15625,21632,128
0,0,27.1196797,376027,0.124626175,1728,128,11.28047184,156409,38679.6875,22272,0
19.14620091,265471,26.99180806,374254,1.236453204,17144,128,11.09612895,153853,38699.21875,22912,128
19.20166245,266240,26.86927341,372555,1.248281151,17308,128,10.86425792,150638,38718.75,23552,128
19.14555182,265462,26.82809196,371984,1.18402078,16417,128,10.81254671,149921,38738.28125,24192,128
19.20058062,266225,26.80082998,371606,1.190728091,16510,128,10.77814469,149444,38757.8125,24832,128
18.97721994,263128,26.80068574,371604,1.32927374,18431,128,10.7575179,149158,38777.34375,25472,128
19.18319931,265984,26.78517959,371389,1.314344563,18224,128,10.73378989,148829,38796.875,26112,128
18.90625225,262144,26.76029763,371044,1.294655358,17951,128,10.68900236,148208,38816.40625,26752,128
19.05439008,264198,26.75402305,370957,1.235227136,17127,128,10.68828114,148198,38835.9375,27392,128
19.04458154,264062,26.71745738,370450,1.188636564,16481,128,10.63786812,147499,38855.46875,28032,128
18.97887873,263151,26.7288526,370608,0.147416609,2044,128,10.63116081,147406,38875,28672,128
19.05164946,264160,26.69885,370192,0.117702498,1632,128,10.621785,147276,38894.53125,29312,128
9.442740612,130928,26.67807897,369904,0.140492933,1948,128,10.58017082,146699,38914.0625,29952,128
18.98234057,263199,26.66293343,369694,0.029425625,408,128,10.55305309,146323,38933.59375,30592,128
9.450746113,131039,26.62824293,369213,0.036854152,511,128,10.52232927,145897,38953.125,31232,128
18.93445181,262535,26.61071737,368970,0.002524257,35,128,10.49557215,145526,38972.65625,31872,128
18.93856274,262592,26.58323903,368589,0.101547253,1408,128,10.64558514,147606,38992.1875,32512,128
19.05035127,264142,26.58965785,368678,1.218422797,16894,128,10.72874138,148759,39011.71875,33152,128
18.90798317,262168,26.60422642,368880,1.320114293,18304,128,10.81788371,149995,39031.25,33792,128
18.94310641,262655,26.6074719,368925,1.181857131,16387,128,10.82322071,150069,39050.78125,34432,128
19.05309189,264180,26.55100066,368142,1.251959354,17359,128,10.75066635,149063,39070.3125,35072,128
9.434879355,130819,26.50253493,367470,1.190800213,16511,128,10.68575688,148163,39089.84375,35712,128
18.97772479,263135,26.50650162,367525,1.186328672,16449,128,10.69340178,148269,39109.375,36352,128
18.91303169,262238,26.4597668,366877,1.183876536,16415,128,10.68020352,148086,39128.90625,36992,128
18.9084159,262174,26.44029396,366607,1.200031781,16639,128,10.6314493,147410,39148.4375,37632,128
18.94339489,262659,26.91218578,373150,1.47762793,20488,128,11.59499426,160770,39167.96875,38272,128
19.28005866,267327,26.71781799,370455,0.05755306,798,128,11.55489463,160214,39187.5,38912,128
19.16935196,265792,26.47685963,367114,1.225562838,16993,128,10.83057711,150171,39207.03125,39552,128
18.92384993,262388,26.45551162,366818,1.185607455,16439,128,10.78578958,149550,39226.5625,40192,128
19.04580761,264079,26.43106239,366479,1.273884329,17663,128,10.74547359,148991,39246.09375,40832,128
18.90733408,262159,26.42269628,366363,1.315426387,18239,128,10.73328504,148822,39265.625,41472,128
9.453054005,131071,26.4170708,366285,1.278283748,17724,128,10.73501596,148846,39285.15625,42112,128
18.90711771,262156,26.40509861,366119,1.292708074,17924,128,10.74871907,149036,39304.6875,42752,128
19.01688683,263678,26.40596407,366131,1.275398883,17684,128,10.76126823,149210,39324.21875,43392,128
19.03224874,263891,26.44144791,366623,1.18272259,16399,128,10.82661043,150116,39343.75,44032,128
18.91519534,262268,26.46669048,366973,1.292635953,17923,128,10.91979157,151408,39363.28125,44672,128
18.99164426,263328,26.55691463,368224,1.317806401,18272,128,11.07492519,153559,39382.8125,45312,128
19.48791319,270209,26.57638747,368494,1.222101,16945,128,11.15743234,154703,39402.34375,45952,128
18.90625225,262144,26.58230145,368576,1.314128198,18221,128,11.16644754,154828,39421.875,46592,128
19.05402947,264193,26.39312642,365953,1.202123308,16668,128,10.93839895,151666,39441.40625,47232,128
18.91995536,262334,26.30694107,364758,1.253185422,17376,128,10.80995033,149885,39460.9375,47872,128
9.44706791,130988,26.23986795,363828,1.255421192,17407,128,10.73184261,148802,39480.46875,48512,128
9.417281677,130575,26.2143369,363474,1.181640766,16384,128,10.72268316,148675,39500,49152,128
9.314724721,129153,26.18693068,363094,1.185968064,16444,128,10.68849751,148201,39519.53125,49792,128
9.450746113,131039,26.17452576,362922,1.182217739,16392,128,10.69051691,148229,39539.0625,50432,128
9.44396668,130945,26.16478934,362787,1.200031781,16639,128,10.68301626,148125,39558.59375,51072,128
9.388433026,130175,26.15476443,362648,1.185030482,16431,128,10.68445869,148145,39578.125,51712,128
9.379562066,130052,26.14423467,362502,1.182073496,16390,128,10.66700526,147903,39597.65625,52352,128
18.90625225,262144,26.12793519,362276,1.218278553,16892,128,10.68027564,148087,39617.1875,52992,128
9.451972181,131056,26.1233194,362212,1.182145617,16391,128,10.67162105,147967,39636.71875,53632,128
9.452765519,131067,26.10738052,361991,1.200031781,16639,128,10.66736587,147908,39656.25,54272,128
9.268855365,128517,26.10810174,362001,1.201185727,16655,128,10.65972098,147802,39675.78125,54912,128
9.286957894,128768,26.09324468,361795,1.183876536,16415,128,10.64565726,147607,39695.3125,55552,128
9.333332102,129411,26.05026019,361199,1.18892505,16485,128,10.62070318,147261,39714.84375,56192,128
9.220029023,127840,26.05840994,361312,0.144531744,2004,128,10.62704988,147349,39734.375,56832,128
9.313498654,129136,26.02804673,360891,0.143594163,1991,128,10.61659224,147204,39753.90625,57472,128
9.193488263,127472,26.02609945,360864,1.191449307,16520,128,10.66303857,147848,39773.4375,58112,128
9.452044302,131057,25.98881256,360347,0.147200244,2041,128,10.63642569,147479,39792.96875,58752,128
9.445048504,130960,25.9885962,360344,1.186184428,16447,128,10.65423973,147726,39812.5,59392,128
9.439062409,130877,25.94070744,359680,0.111860646,1551,128,10.54540819,146217,39832.03125,60032,128
9.423123529,130656,25.87298523,358741,0.003461838,48,128,10.46217984,145063,39851.5625,60672,128
9.443894558,130944,25.8762307,358786,0.10847093,1504,128,10.43210512,144646,39871.09375,61312,128
9.193993115,127479,25.84240566,358317,0.092243563,1279,128,10.4250372,144548,39890.625,61952,128
9.226880577,127935,25.80648909,357819,0.02127588,295,128,10.36863808,143766,39910.15625,62592,128
9.378552363,130038,26.16846754,362838,0.470809993,6528,128,10.97972464,152239,39929.6875,63232,128
19.03657604,263951,26.29720465,364623,2.033397202,28194,128,11.42536419,158418,39949.21875,63872,128
9.416271975,130561,25.88777016,358946,1.23984292,17191,128,10.59452302,146898,39968.75,64512,128
9.309531964,129081,25.85062752,358431,0,0,128,10.49492305,145517,39988.28125,65152,128
9.214187171,127759,25.83678017,358239,0.110778822,1536,128,10.45027977,144898,40007.8125,256,128
9.44396668,130945,25.84161232,358306,0.140492933,1948,128,10.4313839,144636,40027.34375,896,128
9.176106951,127231,25.84399233,358339,0.14655115,2032,128,10.44710641,144854,40046.875,1536,128
9.452549154,131064,25.84868024,358404,0.129458324,1795,128,10.43607181,144701,40066.40625,2176,128
9.305637396,129027,25.84024201,358287,0.147632974,2047,128,10.44732278,144857,40085.9375,2816,128
9.388433026,130175,25.87118219,358716,0.146406906,2030,128,10.50725585,145688,40105.46875,3456,128
9.343501251,129552,25.89079927,358988,0.060077317,833,128,10.57966597,146692,40125,4096,128
9.411728312,130498,25.96897912,360072,1.193108105,16543,128,10.68849751,148201,40144.53125,4736,128
9.436466031,130841,25.99256289,360399,1.186040185,16445,128,10.78023622,149473,40164.0625,5376,128
9.416416218,130563,25.99710655,360462,1.183876536,16415,128,10.78932354,149599,40183.59375,6016,128
9.451972181,131056,25.83908806,358271,1.250949651,17345,128,10.59452302,146898,40203.125,6656,128
9.452765519,131067,25.73090562,356771,0.056182749,779,128,10.39892917,144186,40222.65625,7296,128
9.157643814,126975,25.62048741,355240,0.074357399,1031,128,10.25555137,142198,40242.1875,7936,128
8.9338504,123872,25.5821187,354708,0.017309191,240,128,10.19085827,141301,40261.71875,8576,128
8.863387568,122895,25.55752522,354367,0.147416609,2044,128,10.16323568,140918,40281.25,9216,128
9.009938718,124927,25.52882082,353969,0.096715104,1341,128,10.13481976,140524,40300.78125,9856,128
9.452981884,131070,25.53336448,354032,0.110850943,1537,128,10.12291969,140359,40320.3125,10496,128
8.970199701,124376,25.49838549,353547,0.009231568,128,128,10.08101703,139778,40339.84375,11136,128
8.869085177,122974,25.49456304,353494,0.036854152,511,128,10.08051218,139771,40359.375,11776,128
8.933489792,123867,25.46066588,353024,0.018391015,255,128,10.04856229,139328,40378.90625,12416,128
9.448510343,131008,25.45381432,352929,0.009087325,126,128,10.04214347,139239,40398.4375,13056,128
8.894616234,123328,25.43996697,352737,0.112581863,1561,128,10.00298142,138696,40417.96875,13696,128
8.891082274,123279,25.43037479,352604,0.14655115,2032,128,9.982282517,138409,40437.5,14336,128
8.862377866,122881,25.41378682,352374,0.114817633,1592,128,9.952712649,137999,40457.03125,14976,128
9.451972181,131056,25.39561217,352122,0.022862556,317,128,9.944418662,137884,40476.5625,15616,128
9.453054005,131071,25.38075511,351916,0.018895867,262,128,9.920907011,137558,40496.09375,16256,128
8.858771784,122831,25.36402289,351684,2.16E-04,3,128,9.915065159,137477,40515.625,16896,128
8.82934616,122423,25.33878032,351334,0.110923065,1538,128,9.861767276,136738,40535.15625,17536,128
8.853074175,122752,25.30041162,350802,0.147272366,2042,128,9.87835525,136968,40554.6875,18176,128
8.857617838,122815,25.28663639,350611,0.147416609,2044,128,9.86595033,136796,40574.21875,18816,128
8.733135907,121089,25.27927998,350509,0.109696997,1521,128,9.841501098,136457,40593.75,19456,128
8.84441958,122632,25.26261988,350278,0.077386508,1073,128,9.785246227,135677,40613.28125,20096,128
8.659139116,120063,25.19634011,349359,0.08193017,1136,128,9.690839015,134368,40632.8125,20736,128
8.862017257,122876,25.17434301,349054,0,0,128,9.620808914,133397,40652.34375,21376,128
8.271557483,114689,25.13373853,348491,0.129169837,1791,128,9.58121414,132848,40671.875,22016,128
8.409958888,116608,25.07914246,347734,0.083011995,1151,128,9.501736105,131746,40691.40625,22656,128
9.451972181,131056,25.30985955,350933,0.517905416,7181,128,9.915642132,137485,40710.9375,23296,128
9.153316516,126915,25.35572891,351569,1.191088699,16515,128,10.31339291,143000,40730.46875,23936,128
8.63144441,119679,25.13756098,348544,0.590748261,8191,128,9.736347763,134999,40750,24576,128
8.280428443,114812,25.10012985,348025,0.004543663,63,128,9.603788209,133161,40769.53125,25216,128
8.566823431,118783,25.10402442,348079,0.147128123,2040,128,9.553880042,132469,40789.0625,25856,128
8.306031621,115167,25.1072699,348124,0.083011995,1151,128,9.53520054,132210,40808.59375,26496,128
8.714817013,120835,25.09933652,348014,0.130323783,1807,128,9.546307271,132364,40828.125,27136,128
8.566967674,118785,25.11311175,348205,0.110850943,1537,128,9.542484825,132311,40847.65625,27776,128
8.580742905,118976,25.1216221,348323,0.138978379,1927,128,9.570035287,132693,40867.1875,28416,128
8.640315371,119802,25.16186597,348881,0.147632974,2047,128,9.603283358,133154,40886.71875,29056,128
8.793141102,121921,25.2156687,349627,0.071544656,992,128,9.708941544,134619,40906.25,29696,128
8.714528527,120831,25.24422887,350023,0.137896554,1912,128,9.779404375,135596,40925.78125,30336,128
8.749435395,121315,25.29298309,350699,0.147128123,2040,128,9.877417669,136955,40945.3125,30976,128
8.78376529,121791,25.27913574,350507,0.00396669,55,128,9.881672845,137014,40964.84375,31616,128
8.566895553,118784,25.16201021,348883,0.073780426,1023,128,9.73533806,134985,40984.375,32256,128
8.550812429,118561,25.04452408,347254,0.076088318,1055,128,9.524454418,132061,41003.90625,32896,128
8.289371525,114936,24.97954249,346353,2.30565635,31969,128,9.414108326,130531,41023.4375,33536,128
8.415584375,116686,24.93663012,345758,2.289428984,31744,128,9.377686903,130026,41042.96875,34176,128
8.383418129,116240,24.92581188,345608,2.347054165,32543,128,9.357348604,129744,41062.5,34816,128
8.287568484,114911,24.92278277,345566,2.326283136,32255,128,9.341121237,129519,41082.03125,35456,128
8.273288402,114713,24.88390921,345027,2.324263731,32227,128,9.308522261,129067,41101.5625,36096,128
8.33610634,115584,24.87979828,344970,2.306738175,31984,128,9.316960492,129184,41121.09375,36736,128
8.340794246,115649,24.85679148,344651,2.21442249,30704,128,9.283784543,128724,41140.625,37376,128
8.280139956,114808,24.84005926,344419,2.169995567,30088,128,9.262148054,128424,41160.15625,38016,128
8.27985147,114804,24.80104146,343878,2.14179601,29697,128,9.232073335,128007,41179.6875,38656,128
9.451250965,131046,24.79260323,343761,2.097369086,29081,128,9.210076238,127702,41199.21875,39296,128
9.388433026,130175,24.75899455,343295,2.085180531,28912,128,9.191973709,127451,41218.75,39936,128
9.416271975,130561,24.76880309,343431,2.101191533,29134,128,9.179424546,127277,41238.28125,40576,128
8.271268996,114685,24.73865625,343013,1.919012298,26608,128,9.146176475,126816,41257.8125,41216,128
9.379201457,130047,24.7168034,342710,1.920094123,26623,128,9.109755052,126311,41277.34375,41856,128
9.43466299,130816,24.68701717,342297,1.864776834,25856,128,9.104201687,126234,41296.875,42496,128
9.416776826,130568,24.66437097,341983,1.8553289,25725,128,9.05963052,125616,41316.40625,43136,128
9.312272586,129119,24.67288133,342101,1.881076322,26082,128,9.118626013,126434,41335.9375,43776,128
8.266869577,114624,24.65340849,341831,1.8810042,26081,128,9.105427755,126251,41355.46875,44416,128
9.286813651,128766,24.65081211,341795,1.915045609,26553,128,9.104057444,126232,41375,45056,128
8.26744655,114632,24.64432116,341705,1.808089233,25070,128,9.080257306,125902,41394.53125,45696,128
9.435167841,130823,24.58756144,340918,1.773542973,24591,128,8.976257917,124460,41414.0625,46336,128
8.266941698,114625,24.56239099,340569,1.776139352,24627,128,8.906372059,123491,41433.59375,46976,128
7.980546711,110654,24.51745922,339946,1.773615095,24592,128,8.859853609,122846,41453.125,47616,128
8.271341118,114686,24.48644692,339516,1.272802505,17648,128,8.818455794,122272,41472.65625,48256,128
8.252950102,114431,24.64482601,341712,1.473516998,20431,128,9.158076544,126981,41492.1875,48896,128
8.271701726,114691,24.98307645,346402,0.07349194,1019,128,9.947808379,137931,41511.71875,49536,128
9.163341422,127054,24.4883942,339543,1.163177629,16128,128,8.979863999,124510,41531.25,50176,128
8.262253793,114560,24.4744026,339349,1.841697912,25536,128,8.873268232,123032,41550.78125,50816,128
8.269249591,114657,24.45680493,339105,1.258233936,17446,128,8.810233928,122158,41570.3125,51456,128
8.137555496,112831,24.44194787,338899,1.255493314,17408,128,8.788236831,121853,41589.84375,52096,128
8.245016723,114321,24.41901319,338581,1.197146916,16599,128,8.766816707,121556,41609.375,52736,128
8.241915493,114278,24.41071921,338466,1.181640766,16384,128,8.760253639,121465,41628.90625,53376,128
8.225760248,114054,24.4000452,338318,1.218422797,16894,128,8.746045678,121268,41648.4375,54016,128
8.12529482,112661,24.4060313,338401,1.211354877,16796,128,8.795953845,121960,41667.96875,54656,128
8.271196875,114684,24.41850834,338574,1.273595843,17659,128,8.835981349,122515,41687.5,55296,128
8.23910275,114239,24.44815033,338985,1.811118342,25112,128,8.903415072,123450,41707.03125,55936,128
8.89930414,123393,24.51450223,339905,1.777653906,24648,128,9.020035746,125067,41726.5625,56576,128
9.159446855,127000,24.52099318,339995,1.790852164,24831,128,9.063813575,125674,41746.09375,57216,128
8.268600496,114648,24.41180103,338481,1.837370615,25476,128,8.905290235,123476,41765.625,57856,128
8.142459767,112899,24.27981845,336651,1.190583848,16508,128,8.723327365,120953,41785.15625,58496,128
7.68564137,106565,24.22522238,335894,1.24647811,17283,128,8.590046595,119105,41804.6875,59136,128
8.266869577,114624,24.33044783,337353,1.186112307,16446,128,8.6664234,120164,41824.21875,59776,128
8.15630712,113091,24.42168169,338618,1.190728091,16510,128,8.753979058,121378,41843.75,60416,128
8.197127962,113657,24.41886895,338579,1.213734891,16829,128,8.743593543,121234,41863.28125,61056,128
8.125943914,112670,24.39139061,338198,1.319609442,18297,128,8.703710282,120681,41882.8125,61696,128
8.059015043,111742,24.33116905,337363,1.259027274,17457,128,8.640603857,119806,41902.34375,62336,128
7.989850401,110783,24.31097499,337083,1.213951256,16832,128,8.600936961,119256,41921.875,62976,128
7.754445404,107519,24.26308623,336419,1.199599051,16633,128,8.565380998,118763,41941.40625,63616,128
7.977301237,110609,24.22500601,335891,1.264580639,17534,128,8.529248062,118262,41960.9375,64256,128
7.237477569,100351,24.18721428,335367,1.273667964,17660,128,8.514751615,118061,41980.46875,64896,128
7.34775154,101880,24.17466511,335193,1.264652761,17535,128,8.502058208,117885,42000,0,128
7.532959882,104448,24.14675404,334806,1.186184428,16447,128,8.446813041,117119,42019.53125,640,128
7.126482383,98812,24.09251858,334054,1.325811902,18383,128,8.416954686,116705,42039.0625,1280,128
7.23574665,100327,24.064896,333671,1.272802505,17648,128,8.377936885,116164,42058.59375,1920,128
7.421459844,102902,24.04217768,333356,1.25664726,17424,128,8.366253181,116002,42078.125,2560,128
7.644243556,105991,24.00546777,332847,1.25534907,17406,128,8.324278393,115420,42097.65625,3200,128
7.097850096,98415,23.97171485,332379,1.292491709,17921,128,8.372095033,116083,42117.1875,3840,128
7.093378555,98353,23.96306026,332259,1.312613644,18200,128,8.365604087,115993,42136.71875,4480,128
7.117611422,98689,23.95858871,332197,1.325162807,18374,128,8.377936885,116164,42156.25,5120,128
7.098499191,98424,23.93623101,331887,1.314921536,18232,128,8.315768041,115302,42175.78125,5760,128
7.097850096,98415,23.86223422,330861,0.111932768,1552,128,8.240617304,114260,42195.3125,6400,128
7.384317205,102387,23.83540497,330489,0.110778822,1536,128,8.180612109,113428,42214.84375,7040,128
7.274403843,100863,23.81268666,330174,0.018391015,255,128,8.171596905,113303,42234.375,7680,128
7.251397044,100544,23.77244279,329616,0.018102529,251,128,8.090676438,112181,42253.90625,8320,128
7.163697143,99328,24.02869094,333169,1.495009243,20729,128,8.596393299,119193,42273.4375,8960,128
8.030887607,111352,23.97560942,332433,2.133574144,29583,128,8.869085177,122974,42292.96875,9600,128
7.245627313,100464,23.82473097,330341,1.199815416,16636,128,8.363584681,115965,42312.5,10240,128
7.265316518,100737,23.80972967,330133,0.13414623,1860,128,8.259152563,114517,42332.03125,10880,128
7.238054542,100359,23.77583251,329663,0.079550157,1103,128,8.184939407,113488,42351.5625,11520,128
7.367945596,102160,23.78167436,329744,0.018391015,255,128,8.174193284,113339,42371.09375,12160,128
7.161894102,99303,23.75859544,329424,0.017381313,241,128,8.169072648,113268,42390.625,12800,128
7.159009237,99263,23.77402947,329638,0.075944075,1053,128,8.203474665,113745,42410.15625,13440,128
7.201993728,99859,23.76472578,329509,0.036421423,505,128,8.194315218,113618,42429.6875,14080,128
7.237261204,100348,23.78023193,329724,0.1107067,1535,128,8.222659018,114011,42449.21875,14720,128
7.366719528,102143,23.79768536,329966,1.189718388,16496,128,8.277327213,114769,42468.75,15360,128
7.384317205,102387,23.88877498,331229,1.32927374,18431,128,8.417892267,116718,42488.28125,16000,128
7.101384056,98464,23.93976497,331936,1.310882725,18176,128,8.534296576,118332,42507.8125,16640,128
7.385038422,102397,23.90738236,331487,1.325956145,18385,128,8.527949873,118244,42527.34375,17280,128
7.237477569,100351,23.77943859,329713,1.21106639,16792,128,8.37418656,116112,42546.875,17920,128
7.127852694,98831,23.64399417,327835,0.004543663,63,128,8.159696836,113138,42566.40625,18560,128
4.661869962,64639,23.59430237,327146,0.035988693,499,128,8.08591641,112115,42585.9375,19200,128
4.68963679,65024,23.60288484,327265,0.092027198,1276,128,8.062837489,111795,42605.46875,19840,128
4.690646492,65038,23.59661026,327178,0.094118726,1305,128,8.070193895,111897,42625,20480,128
4.716754522,65400,23.58550353,327024,0.074068913,1027,128,8.053317434,111663,42644.53125,21120,128
4.595085334,63713,23.57295437,326850,0.019544961,271,128,8.048845893,111601,42664.0625,21760,128
4.595157456,63714,23.55679912,326626,0.036060814,500,128,8.035214905,111412,42683.59375,22400,128
4.64982565,64472,23.54150934,326414,0.034834747,483,128,8.046177393,111564,42703.125,23040,128
4.578857968,63488,23.5347299,326320,0.026757124,371,128,8.037667041,111446,42722.65625,23680,128
4.689853154,65027,23.50934309,325968,0.017886164,248,128,8.012785079,111101,42742.1875,24320,128
4.654946286,64543,23.48922115,325689,0.001658797,23,128,7.99158132,110807,42761.71875,24960,128
4.465699132,61919,23.47313803,325466,0,0,128,7.983575819,110696,42781.25,25600,128
4.717331495,65408,23.44053905,325014,0.1337135,1854,128,7.943043464,110134,42800.78125,26240,128
4.698724115,65150,23.42928808,324858,0.138545649,1921,128,7.93359553,110003,42820.3125,26880,128
4.651628691,64497,23.40015094,324454,0.101475132,1407,128,7.927176705,109914,42839.84375,27520,128
4.707090224,65266,23.38861148,324294,0.073924669,1025,128,7.902438987,109571,42859.375,28160,128
4.652782637,64513,23.35161309,323781,2.16E-04,3,128,7.871643051,109144,42878.90625,28800,128
4.433316521,61470,23.35557978,323836,0.004543663,63,128,7.868541821,109101,42898.4375,29440,128
4.583690117,63555,23.34981005,323756,0.018463137,256,128,7.926671854,109907,42917.96875,30080,128
4.465987619,61923,23.37274472,324074,0.111355795,1544,128,7.951337451,110249,42937.5,30720,128
4.633742527,64249,23.38651995,324265,0.013847353,192,128,7.991292833,110803,42957.03125,31360,128
4.722380009,65478,23.40173762,324476,0.018318894,254,128,7.96013629,110371,42976.5625,32000,128
4.670091828,64753,23.35363249,323809,3.61E-04,5,128,7.912391771,109709,42996.09375,32640,128
4.42884498,61408,23.31894199,323328,0.004471541,62,128,7.843443494,108753,43015.625,33280,128
4.426537088,61376,23.29139153,322946,0.128953472,1788,128,7.808825112,108273,43035.15625,33920,128
4.375835583,60673,23.26348046,322559,0.147344488,2043,128,7.801540828,108172,43054.6875,34560,128
4.65775903,64582,23.35283915,323798,0.281490717,3903,128,7.960713263,110379,43074.21875,35200,128
7.364988609,102119,23.86634515,330918,1.809315301,25087,128,8.885024057,123195,43093.75,35840,128
4.724255171,65504,23.29449276,322989,1.181568644,16383,128,8.067381152,111858,43113.28125,36480,128
4.69187256,65055,23.27018777,322652,0.001226068,17,128,7.915132393,109747,43132.8125,37120,128
4.648599583,64455,23.2496331,322367,0.006923676,96,128,7.853612644,108894,43152.34375,37760,128
4.643551069,64385,23.25684527,322467,0.004327298,60,128,7.832697372,108604,43171.875,38400,128
4.135959045,57347,23.26211015,322540,0.030507449,423,128,7.844020467,108761,43191.40625,39040,128
4.61571212,63999,23.2619659,322538,0.001947284,27,128,7.862555726,109018,43210.9375,39680,128
4.419685533,61281,23.25208524,322401,2.88E-04,4,128,7.86096905,108996,43230.46875,40320,128
4.274216208,59264,23.2913194,322945,0.119938269,1663,128,7.910372366,109681,43250,40960,128
4.707739318,65275,23.31338862,323251,0.140709298,1951,128,7.950183505,110233,43269.53125,41600,128
4.451851779,61727,23.39957397,324446,7.21E-05,1,128,8.099763763,112307,43289.0625,42240,128
4.460506375,61847,23.47046953,325429,0.260647566,3614,128,8.236578493,114204,43308.59375,42880,128
4.588089536,63616,23.48460537,325625,1.213951256,16832,128,8.297449147,115048,43328.125,43520,128
4.431224994,61441,23.3993576,324443,0.07349194,1019,128,8.197272205,113659,43347.65625,44160,128
4.429061345,61411,23.22814086,322069,0.029641989,411,128,7.927320949,109916,43367.1875,44800,128
4.725192753,65517,23.16986658,321261,0.009087325,126,128,7.837457399,108670,43386.71875,45440,128
4.136824505,57359,23.12846877,320687,0.075655589,1049,128,7.774927947,107803,43406.25,46080,128
4.144253033,57462,23.08728732,320116,0.036277179,503,128,7.745790809,107399,43425.78125,46720,128
4.168413778,57797,23.07062722,319885,0.032815341,455,128,7.741030781,107333,43445.3125,47360,128
3.840260367,53247,23.0288688,319306,0.001803041,25,128,7.694007479,106681,43464.84375,48000,128
3.803334093,52735,23.00355411,318955,0.147632974,2047,128,7.678717694,106469,43484.375,48640,128
4.097085487,56808,22.97896063,318614,0.129458324,1795,128,7.645685988,106011,43503.90625,49280,128
3.729048816,51705,22.96706056,318449,0.131477729,1823,128,7.666673382,106302,43523.4375,49920,128
2.271398577,31494,22.95299684,318254,0.139699595,1937,128,7.63602169,105877,43542.96875,50560,128
3.579757044,49635,22.92443668,317858,0.092171442,1278,128,7.624410108,105716,43562.5,51200,128
3.768427225,52251,22.89623712,317467,0.009159447,127,128,7.576593468,105053,43582.03125,51840,128
3.586392234,49727,22.86998485,317103,0,0,128,7.576809833,105056,43601.5625,52480,128
2.308324851,32006,22.84625683,316774,4.33E-04,6,128,7.53685445,104502,43621.09375,53120,128
3.555956907,49305,22.81257603,316307,0.147056001,2039,128,7.534762923,104473,43640.625,53760,128
2.270965847,31488,22.80457053,316196,0.129097716,1790,128,7.51204461,104158,43660.15625,54400,128
3.546653217,49176,22.77860675,315836,0.128953472,1788,128,7.494374811,103913,43679.6875,55040,128
2.224519518,30844,22.75321993,315484,0.092315685,1280,128,7.478147445,103688,43699.21875,55680,128
2.362055464,32751,22.74290654,315341,0.073852548,1024,128,7.466607984,103528,43718.75,56320,128
3.547158068,49183,22.74817142,315414,0.138473527,1920,128,7.48903781,103839,43738.28125,56960,128
3.82309542,53009,22.7320883,315191,0.018463137,256,128,7.551495141,104705,43757.8125,57600,128
2.358665747,32704,22.75206599,315468,0.14655115,2032,128,7.567217656,104923,43777.34375,58240,128
3.545932,49166,22.76836547,315694,0.036854152,511,128,7.566280075,104910,43796.875,58880,128
2.07227076,28733,22.71492335,314953,0.115250363,1598,128,7.456222469,103384,43816.40625,59520,128
2.326860109,32263,22.63861866,313895,0.070967683,984,128,7.382369921,102360,43835.9375,60160,128
3.55876965,49344,22.60811122,313472,0.078684697,1091,128,7.345371526,101847,43855.46875,60800,128
1.911511649,26504,22.575368,313018,0.087699901,1216,128,7.3256102,101573,43875,61440,128
2.146339672,29760,22.53072471,312399,0.001875162,26,128,7.257311017,100626,43894.53125,62080,128
3.628943995,50317,22.98148489,318649,0.424724272,5889,128,8.105533493,112387,43914.0625,62720,128
3.554153866,49280,22.84928594,316816,1.172914049,16263,128,8.190637015,113567,43933.59375,63360,128
2.355708761,32663,22.54031688,312532,0.572285124,7935,128,7.435523562,103097,43953.125,64000,128
2.067943462,28673,22.53663868,312481,0.080848346,1121,128,7.346958202,101869,43972.65625,64640,128
2.14222874,29703,22.51716584,312211,0.129818932,1800,128,7.332101146,101663,43992.1875,65280,128
2.353977842,32639,22.51500219,312181,0.077819237,1079,128,7.318830767,101479,44011.71875,384,128
2.346549314,32536,22.51305491,312154,0.080704103,1119,128,7.327268997,101596,44031.25,1024,128
2.141651766,29695,22.50937671,312103,0.074285278,1030,128,7.323374429,101542,44050.78125,1664,128
2.14179601,29697,22.52755136,312355,0.115250363,1598,128,7.357415838,102014,44070.3125,2304,128
3.685631595,51103,22.55466909,312731,2.88E-04,4,128,7.386769341,102421,44089.84375,2944,128
2.213773395,30695,22.59469659,313286,0.11820735,1639,128,7.466463741,103526,44109.375,3584,128
3.586392234,49727,22.66696246,314288,0.073708305,1022,128,7.621236756,105672,44128.90625,4224,128
2.360685153,32732,22.69783052,314716,0.01817465,252,128,7.696531736,106716,44148.4375,4864,128
2.289428984,31744,22.68766137,314575,0.016083123,223,128,7.710018481,106903,44167.96875,5504,128
2.141219037,29689,22.52178163,312275,0.004543663,63,128,7.499783933,103988,44187.5,6144,128
1.165413399,16159,22.43487506,311070,0.036926274,512,128,7.348977607,101897,44207.03125,6784,128
2.364291235,32782,22.35034851,309898,0.00973642,135,128,7.249594003,100519,44226.5625,7424,128
1.119183435,15518,22.31399921,309394,0.075871953,1052,128,7.190526389,99700,44246.09375,8064,128
1.035305981,14355,22.29669002,309154,0.08279563,1148,128,7.189372443,99684,44265.625,8704,128
1.11363007,15441,22.26315347,308689,0.008654595,120,128,7.143142479,99043,44285.15625,9344,128
0.903539765,12528,22.2469261,308464,0.003461838,48,128,7.149128574,99126,44304.6875,9984,128
0.960011001,13311,22.21540895,308027,0.008943082,124,128,7.114365949,98644,44324.21875,10624,128
0.904405225,12540,22.19240215,307708,0.004183054,58,128,7.111913814,98610,44343.75,11264,128
1.17695286,16319,22.17819419,307511,2.16E-04,3,128,7.103908313,98499,44363.28125,11904,128
0.886663304,12294,22.16701533,307356,2.354266328,32643,128,7.08075727,98178,44382.8125,12544,128
1.178106806,16335,22.14271035,307019,2.343808692,32498,128,7.069506296,98022,44402.34375,13184,128
0.737371533,10224,22.13650789,306933,2.344818395,32512,128,7.057678349,97858,44421.875,13824,128
1.181496523,16382,22.10895742,306551,2.322316447,32200,128,7.031642441,97497,44441.40625,14464,128
0.595291924,8254,22.08984519,306286,2.362343951,32755,128,7.0245024,97398,44460.9375,15104,128
0.665177782,9223,22.08400334,306205,2.360901518,32735,128,7.013612034,97247,44480.46875,15744,128
0.746603101,10352,22.06049169,305879,2.363065167,32765,128,7.011159898,97213,44500,16384,128
1.18091955,16374,22.05811167,305846,2.362271829,32754,128,6.991903423,96946,44519.53125,17024,128
1.03480113,14348,22.02053631,305325,2.36320941,32767,128,7.006471992,97148,44539.0625,17664,128
1.05030728,14563,22.02529633,305391,2.319143095,32156,128,7.045417672,97688,44558.59375,18304,128
0.221629765,3073,22.03481639,305523,2.354122085,32641,128,7.085012446,98237,44578.125,18944,128
0.213191535,2956,22.05630863,305821,2.36320941,32767,128,7.061789282,97915,44597.65625,19584,128
1.034152035,14339,22.03041697,305462,2.289501105,31745,128,7.04621101,97699,44617.1875,20224,128
0.722225991,10014,21.9548335,304414,2.132564441,29569,128,6.926633349,96041,44636.71875,20864,128
0.074934372,1039,21.93500005,304139,2.101263654,29135,128,6.901607144,95694,44656.25,21504,128
0.001153946,16,21.89886712,303638,2.141651766,29695,128,6.866772397,95211,44675.78125,22144,128
0.590820383,8192,21.86496995,303168,2.13472809,29599,128,6.835255246,94774,44695.3125,22784,128
1.107788218,15360,22.23884848,308352,0.589666437,8176,128,7.671866139,106374,44714.84375,23424,128
1.163610359,16134,22.10426952,306486,1.125385895,15604,128,7.765263649,107669,44734.375,24064,128
0.293174421,4065,21.84016011,302824,1.145724195,15886,128,7.002938033,97099,44753.90625,24704,128
0.520429673,7216,21.80741689,302370,2.10018183,29120,128,6.895981657,95616,44773.4375,25344,128
0.523891511,7264,21.79162226,302151,2.075011382,28771,128,6.866772397,95211,44792.96875,25984,128
0.228409198,3167,21.79227135,302160,2.142949956,29713,128,6.872253641,95287,44812.5,26624,128
0.069308885,961,21.77373609,301903,2.070684084,28711,128,6.852492315,95013,44832.03125,27264,128
0.514659943,7136,21.77784703,301960,2.086262356,28927,128,6.867926343,95227,44851.5625,27904,128
0.482782183,6694,21.76601908,301796,2.146267551,29759,128,6.886245237,95481,44871.09375,28544,128
0.526199404,7296,21.79847381,302246,2.215504314,30719,128,6.935143701,96159,44890.625,29184,128
0.291659867,4044,21.81967757,302540,2.36320941,32767,128,6.984907625,96849,44910.15625,29824,128
0.140132325,1943,21.85508929,303031,2.330033461,32307,128,7.065828093,97971,44929.6875,30464,128
0.598898005,8304,21.87766336,303344,0.074501643,1033,128,7.173577806,99465,44949.21875,31104,128
0.590604018,8189,21.85782991,303069,0.073852548,1024,128,7.170476576,99422,44968.75,31744,128
0.070318588,975,21.69057985,300750,2.098090303,29091,128,6.935937039,96170,44988.28125,32384,128
0.036277179,503,21.59415324,299413,1.818474748,25214,128,6.774673077,93934,45007.8125,33024,128
7.21E-05,1,21.51453096,298309,1.773326608,24588,128,6.653076011,92248,45027.34375,33664,128
0.013919474,193,21.48669201,297923,1.844510656,25575,128,6.613192751,91695,45046.875,34304,128
0.001730919,24,21.47378224,297744,1.863622888,25840,128,6.596099925,91458,45066.40625,34944,128
0.287260447,3983,21.44680875,297370,1.781332109,24699,128,6.57020826,91099,45085.9375,35584,128
0.288558637,4001,21.44817906,297389,1.846313697,25600,128,6.575401017,91171,45105.46875,36224,128
0.002380014,33,21.40678125,296815,1.772966,24583,128,6.537032311,90639,45125,36864,128
0.147705096,2048,21.43656748,297228,1.791140651,24835,128,6.555495448,90895,45144.53125,37504,128
0.018895867,262,21.44305842,297318,1.790852164,24831,128,6.572516152,91131,45164.0625,38144,128
0,0,21.4543094,297474,1.864488347,25852,128,6.586724113,91328,45183.59375,38784,128
4.33E-04,6,21.45503061,297484,1.847467643,25616,128,6.592493843,91408,45203.125,39424,128
8.65E-04,12,21.43512505,297208,1.846241575,25599,128,6.562996097,90999,45222.65625,40064,128
8.65E-04,12,21.4152916,296933,1.846241575,25599,128,6.545614784,90758,45242.1875,40704,128
0.112077011,1554,21.41103642,296874,1.795467948,24895,128,6.541648095,90703,45261.71875,41344,128
0.018391015,255,21.35110335,296043,1.25268057,17369,128,6.480128346,89850,45300.78125,42624,128
0.001081824,15,21.32953898,295744,1.246405989,17282,128,6.497653901,90093,45320.3125,43264,128
0.057408817,796,21.32715897,295711,1.781620596,24703,128,6.522968593,90444,45339.84375,43904,128
0.004615784,64,21.3259329,295694,1.773470852,24590,128,6.507246078,90226,45359.375,44544,128
0.066640385,924,21.33566932,295829,1.327110091,18401,128,6.497076928,90085,45378.90625,45184,128
0.005697609,79,21.29744486,295299,1.255493314,17408,128,6.398126054,88713,45398.4375,45824,128
0.032526855,451,21.28237144,295090,1.218278553,16892,128,6.365743442,88264,45417.96875,46464,128
0.005625487,78,21.25821069,294755,1.181857131,16387,128,6.353122157,88089,45437.5,47104,128
2.354122085,32641,21.24746457,294606,1.189718388,16496,128,6.341582697,87929,45457.03125,47744,128
0.004687906,65,21.50840062,298224,1.404063869,19468,128,6.846434098,94929,45476.5625,48384,128
0.11424066,1584,21.7297419,301293,0.286178623,3968,128,7.457664902,103404,45496.09375,49024,128
0,0,21.28864602,295177,1.18048682,16368,128,6.565736719,91037,45515.625,49664,128
0.006346703,88,21.27350048,294967,1.772677514,24579,128,6.449693018,89428,45535.15625,50304,128
2.353977842,32639,21.25049368,294648,1.255421192,17407,128,6.397188472,88700,45554.6875,50944,128
2.344818395,32512,21.27927021,295047,1.222750094,16954,128,6.427551678,89121,45574.21875,51584,128
0.036854152,511,21.3312699,295768,1.309873022,18162,128,6.457914884,89542,45593.75,52224,128
0.006923676,96,21.36141674,296186,1.774192068,24600,128,6.510491551,90271,45613.28125,52864,128
0.009159447,127,21.36430161,296226,1.800155854,24960,128,6.525420728,90478,45632.8125,53504,128
0.078684697,1091,21.36422948,296225,1.798929787,24943,128,6.549653596,90814,45652.34375,54144,128
0.018463137,256,21.37598531,296388,1.804771638,25024,128,6.584776829,91301,45671.875,54784,128
0.14655115,2032,21.41154127,296881,1.783712123,24732,128,6.657691796,92312,45691.40625,55424,128
0.204176331,2831,21.47810954,297804,1.912665595,26520,128,6.795948958,94229,45710.9375,56064,128
0.285529528,3959,21.46440643,297614,2.068087705,28675,128,6.811743595,94448,45730.46875,56704,128
0.138906257,1926,21.31078736,295484,1.790996407,24833,128,6.626318887,91877,45750,57344,128
2.347054165,32543,21.16928472,293522,1.777004811,24639,128,6.423296502,89062,45769.53125,57984,128
2.34503476,32515,21.07040597,292151,1.182578347,16397,128,6.279918704,87074,45789.0625,58624,128
2.068881043,28686,21.0494907,291861,1.241934448,17220,128,6.241189389,86537,45808.59375,59264,128
2.216081287,30727,21.02814269,291565,1.185246847,16434,128,6.219625022,86238,45828.125,59904,128
2.261662157,31359,21.0011692,291191,1.326460996,18392,128,6.206715251,86059,45847.65625,60544,128
2.113740696,29308,20.98984611,291034,1.25534907,17406,128,6.194598817,85891,45867.1875,61184,128
2.076742301,28795,20.97340238,290806,1.249074489,17319,128,6.190271519,85831,45886.71875,61824,128
2.06433738,28623,20.98003757,290898,1.320042171,18303,128,6.1832036,85733,45906.25,62464,128
1.846169453,25598,20.96460354,290684,1.293501412,17935,128,6.180751464,85699,45925.78125,63104,128
2.046523338,28376,20.93467306,290269,1.255132706,17403,128,6.152551908,85308,45945.3125,63744,128
1.91865169,26603,20.94188523,290369,1.292419588,17920,128,6.160124679,85413,45964.84375,64384,128
1.919661393,26617,20.92017662,290068,1.210489417,16784,128,6.136757271,85089,45984.375,65024,128
1.919589271,26616,20.90430986,289848,1.257152111,17431,128,6.136036055,85079,46003.90625,128,128
1.883239971,26112,20.89406859,289706,1.248497516,17311,128,6.12168385,84880,46023.4375,768,128
1.832322101,25406,20.86637388,289322,1.244963556,17262,128,6.094782483,84507,46042.96875,1408,128
1.80881045,25080,20.84120343,288973,1.217052486,16875,128,6.065789588,84105,46062.5,2048,128
1.772461149,24576,20.83060155,288826,1.183732293,16413,128,6.080286036,84306,46082.03125,2688,128
1.781548474,24702,20.82757244,288784,1.186184428,16447,128,6.116851701,84813,46101.5625,3328,128
1.90624677,26431,20.81805239,288652,1.185102604,16432,128,6.113461985,84766,46121.09375,3968,128
1.772893879,24582,20.83882342,288940,1.283115898,17791,128,6.14245488,85168,46140.625,4608,128
1.790852164,24831,20.83182762,288843,1.260036976,17471,128,6.124785081,84923,46160.15625,5248,128
1.901703108,26368,20.79648802,288353,1.181929252,16388,128,6.058505304,84004,46179.6875,5888,128
1.807079531,25056,20.73482403,287498,1.183948658,16416,128,5.965973254,82721,46199.21875,6528,128
1.181496523,16382,20.71001419,287154,1.246550232,17284,128,5.942389481,82394,46218.75,7168,128
1.0343684,14342,20.67986735,286736,1.182145617,16391,128,5.923565736,82133,46238.28125,7808,128
0.566587516,7856,20.68534859,286812,0.091017496,1262,128,5.933662764,82273,46257.8125,8448,128
2.358665747,32704,21.26426891,294839,2.326571623,32259,128,7.054793484,97818,46277.34375,9088,128
2.362199707,32753,20.76230237,287879,1.17918863,16350,128,6.364012523,88240,46296.875,9728,128
1.790635799,24828,20.69320985,286921,1.188708685,16482,128,6.069900521,84162,46316.40625,10368,128
1.790780043,24830,20.67215033,286629,1.213446404,16825,128,5.976503012,82867,46335.9375,11008,128
1.188564442,16480,20.66508241,286531,1.186112307,16446,128,5.960419889,82644,46355.46875,11648,128
0.572357246,7936,20.66025027,286464,1.181712887,16385,128,5.942605846,82397,46375,12288,128
1.251742989,17356,20.66299089,286502,1.19952693,16632,128,5.956741685,82593,46394.53125,12928,128
0.553966231,7681,20.65952905,286454,1.190800213,16511,128,5.962583537,82674,46414.0625,13568,128
1.227654365,17022,20.67590066,286681,1.197002673,16597,128,5.992297648,83086,46433.59375,14208,128
1.163105507,16127,20.69696017,286973,1.307637251,18131,128,6.034200315,83667,46453.125,14848,128
1.818618991,25216,20.75242171,287742,1.181640766,16384,128,6.156157989,85358,46472.65625,15488,128
1.790491556,24826,20.80636869,288490,1.217413094,16880,128,6.23945847,86513,46492.1875,16128,128
1.934013597,26816,20.82915912,288806,1.302732981,18063,128,6.342664521,87944,46511.71875,16768,128
1.901630986,26367,20.7687212,287968,1.188203834,16475,128,6.280351434,87080,46531.25,17408,128
0.588728856,8163,20.57557947,285290,0.294184124,4079,128,5.996769189,83148,46550.78125,18048,128
0.444197112,6159,20.50627059,284329,1.181857131,16387,128,5.89183222,81693,46570.3125,18688,128
0.573727557,7955,20.44208234,283439,0.03808022,528,128,5.788914655,80266,46589.84375,19328,128
0.360247536,4995,20.41215186,283024,0.017814042,247,128,5.767638775,79971,46609.375,19968,128
0.313656964,4349,20.4012615,282873,0.01817465,252,128,5.775211546,80076,46628.90625,20608,128
0.313296355,4344,20.39116447,282733,2.16E-04,3,128,5.751627773,79749,46648.4375,21248,128
0.12931408,1793,20.36520068,282373,0.073780426,1023,128,5.737203447,79549,46667.96875,21888,128
0.293174421,4065,20.36195521,282328,0.066928872,928,128,5.735256164,79522,46687.5,22528,128
0.277019176,3841,20.36606614,282385,0.111283673,1543,128,5.739150731,79576,46707.03125,23168,128
0.145325082,2015,20.33902053,282010,0.064693101,897,128,5.719461527,79303,46726.5625,23808,128
0.12931408,1793,20.32250468,281781,0.070318588,975,128,5.725591865,79388,46746.09375,24448,128
0.032238368,447,20.30418578,281527,0.074357399,1031,128,5.715999689,79255,46765.625,25088,128
0.004543663,63,20.28117898,281208,0.079478035,1102,128,5.691838943,78920,46785.15625,25728,128
0.23071709,3199,20.26300433,280956,0.069236764,960,128,5.678568563,78736,46804.6875,26368,128
0.021852854,303,20.25773946,280883,0.001081824,15,128,5.674169144,78675,46824.21875,27008,128
8.65E-04,12,20.24158421,280659,2.16E-04,3,128,5.664432724,78540,46843.75,27648,128
0.145902055,2023,20.22499624,280429,0.074357399,1031,128,5.660610278,78487,46863.28125,28288,128
0.140709298,1951,20.23314598,280542,0.075871953,1052,128,5.724365798,79371,46882.8125,28928,128
0.14525296,2014,20.22290471,280400,0.110778822,1536,128,5.741891353,79614,46902.34375,29568,128
0.069236764,960,20.22405865,280416,0.001730919,24,128,5.753935665,79781,46921.875,30208,128
0.143666285,1992,20.21893802,280345,0.036709909,509,128,5.71383604,79225,46941.40625,30848,128
0.110778822,1536,20.13859452,279231,0.017309191,240,128,5.626640991,78016,46960.9375,31488,128
2.88E-04,4,20.10671676,278789,0.001730919,24,128,5.553942389,77008,46980.46875,32128,128
0,0,20.07512749,278351,0.037142639,515,128,5.549687213,76949,47000,32768,128
1.179332874,16352,20.05478919,278069,0.004255176,59,128,5.507568181,76365,47019.53125,33408,128
0.005697609,79,20.31046037,281614,0.00887096,123,128,6.035642747,83687,47039.0625,34048,128
1.237030177,17152,20.51853127,284499,1.832394222,25407,128,6.613841845,91704,47058.59375,34688,128
1.18048682,16368,20.04988492,278001,1.108365191,15368,128,5.836226444,80922,47078.125,35328,128
1.11009611,15392,20.04086972,277876,0.002380014,33,128,5.592238974,77539,47097.65625,35968,128
1.179404995,16353,20.0171417,277547,0.008149744,113,128,5.556322403,77041,47117.1875,36608,128
1.178178928,16336,20.02017081,277589,0.074068913,1027,128,5.542402928,76848,47136.71875,37248,128
1.112404002,15424,20.01952172,277580,0.079478035,1102,128,5.557620592,77059,47156.25,37888,128
1.170101305,16224,20.03329695,277771,0.082939873,1150,128,5.574857661,77298,47175.78125,38528,128
1.164259453,16143,20.05745769,278106,0.145902055,2023,128,5.607745124,77754,47195.3125,39168,128
1.181496523,16382,20.06755472,278246,0.00223577,31,128,5.650585371,78348,47214.84375,39808,128
1.172553441,16258,20.10520221,278768,0.029930476,415,128,5.724942771,79379,47234.375,40448,128
0.069308885,961,20.15460553,279453,0.014929177,207,128,5.812354185,80591,47253.90625,41088,128
0.018391015,255,20.21273556,280259,1.190583848,16508,128,5.93835067,82338,47273.4375,41728,128
0.144171136,1999,20.22715988,280459,1.255637557,17410,128,5.98393154,82970,47292.96875,42368,128
0.008293987,115,20.09431184,278617,0.034618382,480,128,5.811921455,80585,47312.5,43008,128
1.116370692,15479,19.98194635,277059,1.44E-04,2,128,5.640127735,78203,47332.03125,43648,128
1.116947665,15487,19.89323674,275829,0.064116128,889,128,5.504539073,76323,47351.5625,44288,128
1.116947665,15487,19.87022994,275510,0.027622584,383,128,5.478647408,75964,47371.09375,44928,128
1.035161738,14353,19.86294566,275409,0.004543663,63,128,5.469055232,75831,47390.625,45568,128
0.574593016,7967,19.85104559,275244,2.16E-04,3,128,5.448139959,75541,47410.15625,46208,128
0.957919473,13282,19.83878491,275074,0.068659791,952,128,5.440350823,75433,47429.6875,46848,128
0.886519061,12292,19.83936189,275082,0.063683398,883,128,5.447346621,75530,47449.21875,47488,128
1.036748414,14375,19.83734248,275054,0.073708305,1022,128,5.460472758,75712,47468.75,48128,128
0.889692413,12336,19.82097087,274827,0.07039071,976,128,5.450015122,75567,47488.28125,48768,128
0.901303995,12497,19.7947186,274463,0.073708305,1022,128,5.436816864,75384,47507.8125,49408,128
0.878008709,12174,19.77676031,274214,0.075655589,1049,128,5.402342725,74906,47527.34375,50048,128
0.286250745,3969,19.75166199,273866,0.001081824,15,128,5.393327521,74781,47546.875,50688,128
0.817354419,11333,19.74322376,273749,0.064620979,896,128,5.383735345,74648,47566.40625,51328,128
0.260575445,3613,19.71141812,273308,0.065125831,903,128,5.362170978,74349,47585.9375,51968,128
0.798458552,11071,19.70456656,273213,0,0,128,5.34767453,74148,47605.46875,52608,128
0.261008175,3619,19.69014224,273013,0.032671098,453,128,5.357771558,74288,47625,53248,128
0.591830086,8206,19.6796846,272868,0.05625487,780,128,5.388206886,74710,47644.53125,53888,128
0.287260447,3983,19.69663318,273103,0.03231049,448,128,5.424988917,75220,47664.0625,54528,128
0.740761249,10271,19.69180103,273036,0.03454626,479,128,5.4269362,75247,47683.59375,55168,128
0.625438765,8672,19.67542942,272809,0.069236764,960,128,5.363541289,74368,47703.125,55808,128
0.664095958,9208,19.61960728,272035,0.069236764,960,128,5.289760863,73345,47722.65625,56448,128
0.594859194,8248,19.59227319,271656,0.069236764,960,128,5.222255018,72409,47742.1875,57088,128
0.071616777,993,19.55686147,271165,0.073636183,1021,128,5.207902814,72210,47761.71875,57728,128
0.646065551,8958,19.54424018,270990,0.013775231,191,128,5.183453582,71871,47781.25,58368,128
0.590820383,8192,19.87917303,275634,0.073708305,1022,128,5.884475813,81591,47800.78125,59008,128
1.181568644,16383,19.90383862,275976,1.328191916,18416,128,6.212052251,86133,47820.3125,59648,128
0.664600809,9215,19.56501121,271278,1.163177629,16128,128,5.43047016,75296,47839.84375,60288,128
0.649671632,9008,19.55347175,271118,0.069453129,963,128,5.261200698,72949,47859.375,60928,128
0.003822446,53,19.54589898,271013,0.073780426,1023,128,5.24317029,72699,47878.90625,61568,128
0.036637787,508,19.52822918,270768,0.073780426,1023,128,5.233722357,72568,47898.4375,62208,128
0.018318894,254,19.50688118,270472,0.036637787,508,128,5.201700354,72124,47917.96875,62848,128
0,0,19.50688118,270472,0.032382611,449,128,5.196146988,72047,47937.5,63488,128
0.009087325,126,19.51308364,270558,0.046013599,638,128,5.21569195,72318,47957.03125,64128,128
0.60928352,8448,19.51943034,270646,0.055389411,768,128,5.258460076,72911,47976.5625,64768,128
0.009664298,134,19.55101962,271084,0.034618382,480,128,5.309377946,73617,47996.09375,65408,128
0.701238597,9723,19.6063369,271851,0.090873252,1260,128,5.424484065,75213,48015.625,512,128
0.747180074,10360,19.66598149,272678,0.009159447,127,128,5.548389023,76931,48035.15625,1152,128
0.623130873,8640,19.63583465,272260,0.00223577,31,128,5.543124144,76858,48054.6875,1792,128
7.21E-05,1,19.49411565,270295,0.01817465,252,128,5.322720447,73802,48074.21875,2432,128
0.036782031,510,19.38441865,268774,0.018318894,254,128,5.180929325,71836,48093.75,3072,128
0.44188922,6127,19.33047167,268026,0.017814042,247,128,5.061712272,70183,48113.28125,3712,128
0.354045076,4909,19.27638045,267276,0.029930476,415,128,5.025867823,69686,48132.8125,4352,128
0.299953854,4159,19.26036945,267054,0.055028803,763,128,5.000841618,69339,48152.34375,4992,128
0.295410191,4096,19.21435585,266416,0.009159447,127,128,4.957352276,68736,48171.875,5632,128
0.00887096,123,19.20988431,266354,0,0,128,4.948841923,68618,48191.40625,6272,128
0.147560852,2046,19.18731024,266041,0.065702804,911,128,4.923166623,68262,48210.9375,6912,128
0.267282756,3706,19.18045869,265946,0.072770723,1009,128,4.945884937,68577,48230.46875,7552,128
0.258988769,3591,19.15370156,265575,0.049619681,688,128,4.916747799,68173,48250,8192,128
0.256608755,3558,19.16271677,265700,0.064620979,896,128,4.92302238,68260,48269.53125,8832,128
0.258916647,3590,19.13076688,265257,0.041109328,570,128,4.893019783,67844,48289.0625,9472,128
0.258483918,3584,19.12817051,265221,0.01904011,264,128,4.888980971,67788,48308.59375,10112,128
0.055389411,768,19.10992373,264968,0.071544656,992,128,4.868282064,67501,48328.125,10752,128
0.259565742,3599,19.09643699,264781,0.073780426,1023,128,4.871022686,67539,48347.65625,11392,128
0.004543663,63,19.05374098,264189,5.05E-04,7,128,4.820970276,66845,48367.1875,12032,128
0.059933074,831,19.01501167,263652,0.017886164,248,128,4.798251962,66530,48386.71875,12672,128
0.078684697,1091,19.01263166,263619,0.073347696,1017,128,4.79991076,66553,48406.25,13312,128
0.130972878,1816,18.99712551,263404,0.036782031,510,128,4.837774615,67078,48425.78125,13952,128
0.092171442,1278,18.98414361,263224,0.073275575,1016,128,4.825297573,66905,48445.3125,14592,128
0.147416609,2044,19.01501167,263652,0.002307892,32,128,4.876576051,67616,48464.84375,15232,128
0.008654595,120,19.00130856,263462,0.003389717,47,128,4.837774615,67078,48484.375,15872,128
0.001081824,15,18.94411611,262669,0.03721476,516,128,4.766085716,66084,48503.90625,16512,128
0.027622584,383,18.92760026,262440,2.362993045,32764,128,4.70471021,65233,48523.4375,17152,128
0.004904271,68,18.91115652,262212,2.360252423,32726,128,4.681991897,64918,48542.96875,17792,128
18.87156175,261663,18.86276291,261541,2.333278934,32352,128,4.612466647,63954,48562.5,18432,128
1.44E-04,2,18.93322574,262518,0.068659791,952,128,4.785558556,66354,48582.03125,19072,128
0.589017342,8167,19.34778087,268266,0.133497135,1851,128,5.702873552,79073,48601.5625,19712,128
0.036854152,511,18.91952263,262328,0.589594315,8175,128,4.939466112,68488,48621.09375,20352,128
18.90394436,262112,18.87242721,261675,0.023078921,320,128,4.787794326,66385,48640.625,20992,128
18.8887267,261901,18.86362837,261553,2.360324545,32727,128,4.680477343,64897,48660.15625,21632,128
18.86990295,261640,18.83780883,261195,2.361262126,32740,128,4.671534261,64773,48679.6875,22272,128
18.85309861,261407,18.84487675,261293,2.290366565,31757,128,4.696488344,65119,48699.21875,22912,128
18.83348153,261135,18.84502099,261295,2.363137288,32766,128,4.666413625,64702,48718.75,23552,128
18.84386704,261279,18.85699318,261461,2.36097364,32736,128,4.694613182,65093,48738.28125,24192,128
18.90618013,262143,18.87156175,261663,2.34503476,32515,128,4.715167846,65378,48757.8125,24832,128
18.89146732,261939,18.89175581,261943,0,0,128,4.774596068,66202,48777.34375,25472,128
0.00223577,31,18.96568048,262968,0.110201849,1528,128,4.898068297,67914,48796.875,26112,128
0.14301719,1983,19.00289524,263484,0.140204446,1944,128,4.997884631,69298,48816.40625,26752,128
0.147632974,2047,19.01796866,263693,0.001081824,15,128,5.06603957,70243,48835.9375,27392,128
0.027622584,383,18.93250453,262508,0,0,128,4.949058288,68621,48855.46875,28032,128
18.75861928,260097,18.76157627,260138,0.072698602,1008,128,4.70694598,65264,48875,28672,128
18.83413063,261144,18.68642553,259096,2.220047977,30782,128,4.586214374,63590,48894.53125,29312,128
18.89716493,262018,18.64791258,258562,2.076093206,28786,128,4.531690422,62834,48914.0625,29952,128
18.79554555,260609,18.63118036,258330,2.068087705,28675,128,4.522458854,62706,48933.59375,30592,128
18.61891968,258160,18.63521917,258386,2.068015584,28674,128,4.518708529,62654,48953.125,31232,128
18.61105843,258051,18.62425669,258234,2.0687368,28684,128,4.52051157,62679,48972.65625,31872,128
18.90618013,262143,18.60889478,258021,2.139632361,29667,128,4.498586595,62375,48992.1875,32512,128
18.88829397,261895,18.58906133,257746,2.137108104,29632,128,4.489427148,62248,49011.71875,33152,128
18.35466604,254496,18.58603222,257704,2.123332873,29441,128,4.489931999,62255,49031.25,33792,128
18.90618013,262143,18.57088668,257494,2.113884939,29310,128,4.477382836,62081,49050.78125,34432,128
18.89644371,262008,18.56078965,257354,2.075876841,28783,128,4.466780957,61934,49070.3125,35072,128
18.83463548,261151,18.54297561,257107,2.076598057,28793,128,4.448534185,61681,49089.84375,35712,128
18.38719289,254947,18.51354999,256699,1.845015507,25582,128,4.427618912,61391,49109.375,36352,128
18.84163127,261248,18.49285108,256412,1.837298493,25475,128,4.415213992,61219,49128.90625,36992,128
18.33360652,254204,18.46912306,256083,1.817465045,25200,128,4.402448464,61042,49148.4375,37632,128
18.684334,259067,18.4528957,255858,1.777004811,24639,128,4.388889598,60854,49167.96875,38272,128
18.87134539,261660,18.42772525,255509,1.772461149,24576,128,4.353189391,60359,49187.5,38912,128
18.74441132,259900,18.42859071,255521,1.781909082,24707,128,4.367036744,60551,49207.03125,39552,128
18.31658582,253968,18.41820519,255377,1.83758698,25479,128,4.422281912,61317,49226.5625,40192,128
18.75797019,260088,18.41070454,255273,1.844005805,25568,128,4.419829776,61283,49246.09375,40832,128
18.90394436,262112,18.42887919,255525,2.100758803,29128,128,4.455025131,61771,49265.625,41472,128
18.88800548,261891,18.42750888,255506,1.846169453,25598,128,4.404612113,61072,49285.15625,42112,128
18.61084206,258048,18.35481028,254498,1.808305598,25073,128,4.319580712,59893,49304.6875,42752,128
18.61105843,258051,18.3222113,254046,1.773542973,24591,128,4.262893112,59107,49324.21875,43392,128
18.8880776,261892,18.29906026,253725,1.812849261,25136,128,4.24998334,58928,49343.75,44032,128
18.90214132,262087,18.25852791,253163,1.78003392,24681,128,4.210821296,58385,49363.28125,44672,128
18.83463548,261151,18.40010266,255126,2.288058673,31725,128,4.485171972,62189,49382.8125,45312,128
18.90387224,262111,18.84761737,261331,0.017958286,249,128,5.349189085,74169,49402.34375,45952,128
18.64661439,258544,18.26566795,253262,1.144714492,15872,128,4.445577198,61640,49421.875,46592,128
18.83016394,261089,18.23487201,252835,1.790635799,24828,128,4.293256318,59528,49441.40625,47232,128
18.81393657,260864,18.19938817,252343,1.791501259,24840,128,4.21543708,58449,49460.9375,47872,128
18.76071081,260126,18.20176818,252376,1.786813353,24775,128,4.224957135,58581,49480.46875,48512,128
18.7770103,260352,18.18994024,252212,1.842130642,25542,128,4.221567419,58534,49500,49152,128
18.84134279,261244,18.17465045,252000,1.845880967,25594,128,4.206854606,58330,49519.53125,49792,128
18.7677066,260223,18.17688622,252031,1.779745433,24677,128,4.216879513,58469,49539.0625,50432,128
18.89932858,262048,18.19873908,252334,1.832322101,25406,128,4.25041607,58934,49558.59375,51072,128
18.86954234,261635,18.21633675,252578,1.772605392,24578,128,4.305228508,59694,49578.125,51712,128
18.9010595,262072,18.31139306,253896,1.902207959,26375,128,4.446370536,61651,49597.65625,52352,128
18.35026662,254435,18.35105996,254446,2.17857804,30207,128,4.541210477,62966,49617.1875,52992,128
18.31600884,253960,18.35603635,254515,2.247959047,31169,128,4.603595686,63831,49636.71875,53632,128
18.90618013,262143,18.25636426,253133,2.078184733,28815,128,4.45985728,61838,49656.25,54272,128
18.88800548,261891,18.11601557,251187,1.790852164,24831,128,4.231952933,58678,49675.78125,54912,128
18.61084206,258048,18.05831826,250387,1.80881045,25080,128,4.172308346,57851,49695.3125,55552,128
18.90517043,262129,18.01893985,249841,1.255132706,17403,128,4.132497207,57299,49714.84375,56192,128
18.32812528,254128,17.98295116,249342,1.227510122,17020,128,4.101484907,56869,49734.375,56832,128
18.40067964,255134,17.97545051,249238,1.181785009,16386,128,4.081939945,56598,49753.90625,57472,128
18.45361691,255868,17.95114552,248901,1.191088699,16515,128,4.06975139,56429,49773.4375,58112,128
18.32011978,254017,17.96109831,249039,1.199743295,16635,128,4.095570933,56787,49792.96875,58752,128
18.55545265,257280,17.96614682,249109,1.200176024,16641,128,4.085546027,56648,49812.5,59392,128
18.89745342,262022,17.965065,249094,1.21856704,16896,128,4.101268542,56866,49832.03125,60032,128
18.38813047,254960,17.9430679,248789,1.181640766,16384,128,4.071842917,56458,49851.5625,60672,128
18.61026509,258040,17.93059086,248616,1.25534907,17406,128,4.06001497,56294,49871.09375,61312,128
18.77556786,260332,17.9190514,248456,1.185246847,16434,128,4.070111998,56434,49890.625,61952,128
18.32927922,254144,17.90448283,248254,1.218711283,16898,128,4.039965158,56016,49910.15625,62592,128
18.33757321,254259,17.89330398,248099,1.237679271,17161,128,4.047537929,56121,49929.6875,63232,128
18.54153318,257087,17.87253295,247811,1.19952693,16632,128,4.025685075,55818,49949.21875,63872,128
18.352863,254471,17.83986185,247358,1.227726487,17023,128,4.032608751,55914,49968.75,64512,128
18.46097332,255970,17.82457207,247146,1.246982962,17290,128,3.979527233,55178,49988.28125,65152,128
18.42642706,255491,17.79954586,246799,1.253257543,17377,128,3.972242948,55077,50007.8125,256,128
17.75403711,246168,17.79341552,246714,1.247992664,17304,128,3.980609057,55193,50027.34375,896,128
18.3892123,254975,17.77646694,246479,1.20262816,16675,128,4.009024979,55587,50046.875,1536,128
18.62836762,258291,17.77927968,246518,1.255421192,17407,128,4.039604549,56011,50066.40625,2176,128
18.3892123,254975,17.80279133,246844,1.181929252,16388,128,4.047249442,56117,50085.9375,2816,128
17.74329099,246019,17.78108272,246543,1.185102604,16432,128,3.991787909,55348,50105.46875,3456,128
18.32235555,254048,17.73773762,245942,1.188780807,16483,128,3.917358389,54316,50125,4096,128
18.90048252,262064,17.70037862,245424,1.225490716,16992,128,3.893702494,53988,50144.53125,4736,128
18.87855755,261760,17.70037862,245424,1.251093894,17347,128,3.905169833,54147,50164.0625,5376,128
18.85079072,261375,17.66626509,244951,1.186761402,16455,128,3.845453125,53319,50183.59375,6016,128
18.61084206,258048,18.02391625,249910,2.102561844,29153,128,4.567390629,63329,50203.125,6656,128
18.68339642,259054,17.78555426,246605,0.278028879,3855,128,4.494042932,62312,50222.65625,7296,128
18.90394436,262112,17.7039847,245474,1.214528229,16840,128,4.085546027,56648,50242.1875,7936,128
18.89702069,262016,17.69453677,245343,1.21813431,16890,128,3.977435705,55149,50261.71875,8576,128
18.90444921,262119,17.68573793,245221,1.292563831,17922,128,3.965102907,54978,50281.25,9216,128
18.90502619,262127,17.70477804,245485,1.313118495,18207,128,3.971810218,55071,50300.78125,9856,128
18.87336479,261688,17.69020947,245283,1.296746885,17980,128,3.964670177,54972,50320.3125,10496,128
18.89702069,262016,17.70845624,245536,1.182145617,16391,128,3.997629761,55429,50339.84375,11136,128
18.31629733,253964,17.72778484,245804,1.181640766,16384,128,4.029651765,55873,50359.375,11776,128
17.75930199,246241,17.75483045,246179,1.292419588,17920,128,4.099537623,56842,50378.90625,12416,128
18.33281318,254193,17.84166489,247383,1.772461149,24576,128,4.214283134,58433,50398.4375,13056,128
18.57232911,257514,17.90534829,248266,1.827922681,25345,128,4.34381358,60229,50417.96875,13696,128
18.87956725,261774,17.96831047,249139,2.06787134,28672,128,4.465987619,61923,50437.5,14336,128
18.77463028,260319,17.9207102,248479,1.845303994,25586,128,4.430143169,61426,50457.03125,14976,128
18.84848283,261343,17.81425867,247003,1.181063793,16376,128,4.271980437,59233,50476.5625,15616,128
18.90618013,262143,17.68516096,245213,1.186761402,16455,128,4.030517224,55885,50496.09375,16256,128
18.88786124,261889,17.65083106,244737,1.18272259,16399,128,3.99135518,55342,50515.625,16896,128
18.88988064,261917,17.61592419,244253,1.218639161,16897,128,3.958539839,54887,50535.15625,17536,128
18.7933819,260579,17.60943325,244163,1.251021773,17346,128,3.965391393,54982,50554.6875,18176,128
18.76309082,260159,17.60806294,244144,1.200176024,16641,128,3.933729998,54543,50574.21875,18816,128
18.7597011,260112,17.61989088,244308,1.218494918,16895,128,3.949596757,54763,50593.75,19456,128
18.84047733,261232,17.61311145,244214,1.199454808,16631,128,3.94930827,54759,50613.28125,20096,128
18.86954234,261635,17.61513086,244242,1.21503308,16847,128,3.938129418,54604,50632.8125,20736,128
18.77693817,260351,17.60907264,244158,1.25664726,17424,128,3.931782714,54516,50652.34375,21376,128
18.84163127,261248,17.60640414,244121,1.25664726,17424,128,3.943033688,54672,50671.875,22016,128
18.86975871,261638,17.58657069,243846,1.250228435,17335,128,3.908775915,54197,50691.40625,22656,128
18.68238672,259040,17.57394941,243671,1.251382381,17351,128,3.895433413,54012,50710.9375,23296,128
18.90610801,262142,17.5756082,243694,1.23760715,17160,128,3.881369696,53817,50730.46875,23936,128
18.75220045,260008,17.56897301,243602,1.200031781,16639,128,3.869685992,53655,50750,24576,128
18.75155136,259999,17.56010205,243479,1.186184428,16447,128,3.853747112,53434,50769.53125,25216,128
18.87278782,261680,17.55151958,243360,1.250877529,17344,128,3.836365799,53193,50789.0625,25856,128
18.88786124,261889,17.55865962,243459,1.254339368,17392,128,3.833480934,53153,50808.59375,26496,128
18.75840291,260094,17.5692615,243606,1.186184428,16447,128,3.843722206,53295,50828.125,27136,128
18.89002489,261919,17.54207165,243229,1.214311864,16837,128,3.859156234,53509,50847.65625,27776,128
18.75645563,260067,17.55923659,243467,1.181640766,16384,128,3.890096413,53938,50867.1875,28416,128
18.89702069,262016,17.56954999,243610,1.254844219,17399,128,3.8673781,53623,50886.71875,29056,128
18.75530168,260051,17.55974144,243474,1.200103903,16640,128,3.789919471,52549,50906.25,29696,128
18.62519427,258247,17.48206645,242397,1.216763999,16871,128,3.718302693,51556,50925.78125,30336,128
18.61091418,258049,17.44239955,241847,1.218422797,16894,128,3.637382226,50434,50945.3125,30976,128
18.61365481,258087,17.43259101,241711,1.251382381,17351,128,3.606946898,50012,50964.84375,31616,128
18.87156175,261663,17.40374236,241311,0.069741615,967,128,3.535979216,49028,50984.375,32256,128
18.90596377,262140,17.70210954,245448,1.845376115,25587,128,4.207503701,58339,51003.90625,32896,128
18.31543187,253952,17.44110137,241829,1.177024982,16320,128,4.06441439,56355,51023.4375,33536,128
18.46306484,255999,17.38268285,241019,1.181857131,16387,128,3.665149053,50819,51042.96875,34176,128
18.34817509,254406,17.35102145,240580,0.055389411,768,128,3.527613107,48912,51062.5,34816,128
18.81415293,260867,17.34164564,240450,0,0,128,3.471286115,48131,51082.03125,35456,128
18.81393657,260864,17.31856672,240130,0.069308885,961,128,3.443879896,47751,51101.5625,36096,128
18.83232758,261119,17.33219771,240319,0,0,128,3.431186489,47575,51121.09375,36736,128
18.90163647,262080,17.32404796,240206,0.035700206,495,128,3.432773165,47597,51140.625,37376,128
18.80001709,260671,17.32714919,240249,5.05E-04,7,128,3.418925812,47405,51160.15625,38016,128
18.887717,261887,17.33645288,240378,2.16E-04,3,128,3.421017339,47434,51179.6875,38656,128
18.88778912,261888,17.39451079,241183,0.074285278,1030,128,3.52112216,48822,51199.21875,39296,128
18.61134691,258055,17.43872135,241796,1.189718388,16496,128,3.590286802,49781,51218.75,39936,128
18.75854716,260096,17.47261852,242266,1.327037969,18400,128,3.681881271,51051,51238.28125,40576,128
18.89492916,261987,17.43482678,241742,1.185246847,16434,128,3.627285198,50294,51257.8125,41216,128
18.79532919,260606,17.3168358,240106,5.77E-04,8,128,3.445178085,47769,51277.34375,41856,128
18.64466711,258517,17.16761615,238037,0.008654595,120,128,3.199892426,44368,51296.875,42496,128
18.32466344,254080,17.14706148,237752,0.018391015,255,128,3.137362973,43501,51316.40625,43136,128
17.76377353,246303,17.1050867,237170,0.032598976,452,128,3.062284358,42460,51335.9375,43776,128
18.26227823,253215,17.08698417,236919,0.002884865,40,128,3.049302465,42280,51355.46875,44416,128
18.01886773,249840,17.05993856,236544,0.073780426,1023,128,3.023266557,41919,51375,45056,128
18.01994956,249855,17.04688454,236363,0.039234166,544,128,2.993696689,41509,51394.53125,45696,128
17.01904559,235977,17.0467403,236361,0.004038811,56,128,2.962828632,41081,51414.0625,46336,128
17.72713574,245795,17.03967238,236263,0.071400412,990,128,2.942418211,40798,51433.59375,46976,128
17.72713574,245795,17.01717043,235951,0.036926274,512,128,2.917536249,40453,51453.125,47616,128
17.72569331,245775,16.98947573,235567,0.069236764,960,128,2.87685965,39889,51472.65625,48256,128
17.7329776,245876,16.96444952,235220,0.001081824,15,128,2.837192754,39339,51492.1875,48896,128
17.72554907,245773,16.95117914,235036,0.018391015,255,128,2.807622887,38929,51511.71875,49536,128
16.86607562,233856,16.93358146,234792,0.036926274,512,128,2.7789906,38532,51531.25,50176,128
17.07616592,236769,16.92918204,234731,0.010601879,147,128,2.74314615,38035,51550.78125,50816,128
17.13090624,237528,16.90898799,234451,0.054235465,752,128,2.712927188,37616,51570.3125,51456,128
17.7569941,246209,16.90307401,234369,0.072698602,1008,128,2.702974403,37478,51589.84375,52096,128
17.72461149,245760,16.87328778,233956,2.16E-04,3,128,2.661720832,36906,51609.375,52736,128
17.11121704,237255,16.88605331,234133,0.032815341,455,128,2.688550078,37278,51628.90625,53376,128
17.12650682,237467,16.87891327,234034,0.069597372,965,128,2.696555578,37389,51648.4375,54016,128
17.11979951,237374,16.89737641,234290,6.49E-04,9,128,2.713576283,37625,51667.96875,54656,128
16.84739612,233597,16.9097092,234461,0.001081824,15,128,2.696339213,37386,51687.5,55296,128
17.75497469,246181,16.86008952,233773,0.004327298,60,128,2.592916798,35952,51707.03125,55936,128
16.54520649,229407,16.8396791,233490,0.073708305,1022,128,2.506370843,34752,51726.5625,56576,128
16.65396591,230915,16.81378744,233131,8.65E-04,12,128,2.458770568,34092,51746.09375,57216,128
16.79719946,232901,16.78912184,232789,0.036854152,511,128,2.420906713,33567,51765.625,57856,128
16.54751438,229439,16.82438932,233278,0.087267171,1210,128,2.467857893,34218,51785.15625,58496,128
18.75854716,260096,17.3161867,240097,0.330100695,4577,128,3.35863213,46569,51804.6875,59136,128
17.72691938,245792,16.85020886,233636,0.463814195,6431,128,2.716316905,37663,51824.21875,59776,128
16.56114537,229628,16.78789577,232772,0.281274352,3900,128,2.501538694,34685,51843.75,60416,128
16.56114537,229628,16.7846503,232727,0.281274352,3900,128,2.406049658,33361,51863.28125,61056,128
4.135742681,57344,16.77109143,232539,0,0,128,2.386937426,33096,51882.8125,61696,128
16.77145204,232544,16.76669201,232478,0.011467339,159,128,2.378787682,32983,51902.34375,62336,128
16.76438412,232446,16.76474473,232451,2.359459085,32715,128,2.352319044,32616,51921.875,62976,128
16.8059983,233023,16.77000961,232524,2.359170599,32711,128,2.358449383,32701,51941.40625,63616,128
16.62482877,230511,16.78400121,232718,2.358665747,32704,128,2.364723964,32788,51960.9375,64256,128
16.54297072,229376,16.81508563,233149,0.033680801,467,128,2.42429643,33614,51980.46875,64896,128
16.69053157,231422,16.85778163,233741,0.073852548,1024,128,2.479036746,34373,52000,0,128
16.91107952,234480,16.94000029,234881,0.08943082,1240,128,2.651263195,36761,52019.53125,640,128
17.09794666,237071,16.93733179,234844,0.00930369,129,128,2.685953699,37242,52039.0625,1280,128
16.90415584,234384,16.85179554,233658,0.286178623,3968,128,2.59746046,36015,52058.59375,1920,128
16.57066543,229760,16.71692809,231788,0.147632974,2047,128,2.396024751,33222,52078.125,2560,128
16.5632369,229657,16.57217998,229781,1.18048682,16368,128,2.189901136,30364,52097.65625,3200,128
18.90517043,262129,16.52349788,229106,2.068087705,28675,128,2.129463211,29526,52117.1875,3840,128
18.90509831,262128,16.49580318,228722,2.06787134,28672,128,2.091671478,29002,52136.71875,4480,128
18.83326517,261132,16.47178667,228389,2.069602259,28696,128,2.074434408,28763,52156.25,5120,128
18.90567528,262136,16.45339566,228134,2.069818624,28699,128,2.051427609,28444,52175.78125,5760,128
18.887717,261887,16.45260232,228123,1.804771638,25024,128,2.066212543,28649,52195.3125,6400,128
18.88548122,261856,16.45505446,228157,2.0687368,28684,128,2.067005881,28660,52214.84375,7040,128
18.76929328,260245,16.44358712,227998,2.068376192,28679,128,2.063760407,28615,52234.375,7680,128
18.76078293,260127,16.43803375,227921,1.845808845,25593,128,2.065491327,28639,52253.90625,8320,128
18.90618013,262143,16.42779248,227779,2.070034989,28702,128,2.065924056,28645,52273.4375,8960,128
18.90538679,262132,16.4091851,227521,2.067943462,28673,128,2.043710595,28337,52292.96875,9600,128
18.83319304,261131,16.38495223,227185,1.78977034,24816,128,2.046306973,28373,52312.5,10240,128
18.64978774,258588,16.3471605,226661,1.781548474,24702,128,2.028348688,28124,52332.03125,10880,128
18.61192389,258063,16.32768766,226391,1.774408433,24603,128,2.005558253,27808,52351.5625,11520,128
18.61985727,258173,16.33100526,226437,1.780755136,24691,128,2.012770416,27908,52371.09375,12160,128
18.8780527,261753,16.3161482,226231,1.786957596,24777,128,2.008370997,27847,52390.625,12800,128
18.73957917,259833,16.33446709,226485,2.086118112,28925,128,2.077752003,28809,52410.15625,13440,128
18.90618013,262143,16.32134096,226303,2.06787134,28672,128,2.075516233,28778,52429.6875,14080,128
18.90444921,262119,16.35011749,226702,2.10991825,29255,128,2.111072196,29271,52449.21875,14720,128
18.61084206,258048,16.32379309,226337,2.077535639,28806,128,2.037796621,28255,52468.75,15360,128
18.6389695,258438,16.25542179,225389,1.178106806,16335,128,1.965602871,27254,52488.28125,16000,128
18.86932598,261632,16.24604598,225259,1.80527649,25031,128,1.943822139,26952,52507.8125,16640,128
18.90163647,262080,16.23176589,225061,1.800155854,24960,128,1.952332491,27070,52527.34375,17280,128
18.31600884,253960,16.17190494,224231,1.772461149,24576,128,1.887495147,26171,52546.875,17920,128
18.38914018,254974,16.45815569,228200,2.04926396,28414,128,2.399414468,33269,52566.40625,18560,128
16.83809243,233468,16.44358712,227998,1.069707998,14832,128,2.682996712,37201,52585.9375,19200,128
18.62519427,258247,16.22830406,225013,1.172409197,16256,128,2.160908241,29962,52605.46875,19840,128
18.31543187,253952,16.20508089,224691,1.777221176,24642,128,2.036570553,28238,52625,20480,128
18.44373625,255731,16.17854013,224323,1.790852164,24831,128,1.996398806,27681,52644.53125,21120,128
18.83146212,261107,16.16288974,224106,1.805853463,25039,128,1.990989684,27606,52664.0625,21760,128
18.32581739,254096,16.15877881,224049,1.810541369,25104,128,1.988465427,27571,52683.59375,22400,128
18.89702069,262016,16.16584673,224147,1.790707921,24829,128,2.005341888,27805,52703.125,23040,128
18.89694856,262015,16.1657746,224146,1.808233477,25072,128,2.035560851,28224,52722.65625,23680,128
18.83348153,261135,16.19188263,224508,1.841697912,25536,128,2.076453814,28791,52742.1875,24320,128
18.89694856,262015,16.21936097,224889,2.127299562,29496,128,2.131915347,29560,52761.71875,24960,128
18.76294658,260157,16.3028057,226046,2.250411183,31203,128,2.291448389,31772,52781.25,25600,128
18.62923308,258303,16.34946839,226693,2.36320941,32767,128,2.397827792,33247,52800.78125,26240,128
18.89810251,262031,16.31946579,226277,0.009159447,127,128,2.388524102,33118,52820.3125,26880,128
18.61141904,258056,16.20472028,224686,1.177097103,16321,128,2.245218425,31131,52839.84375,27520,128
18.87156175,261663,16.0637225,222731,1.181063793,16376,128,2.029214147,28136,52859.375,28160,128
18.836727,261180,16.03141201,222283,1.772749635,24580,128,1.973896858,27369,52878.90625,28800,128
18.81386445,260863,16.02831078,222240,1.77649996,24632,128,1.966324087,27264,52898.4375,29440,128
18.34767024,254399,16.04554785,222479,1.790852164,24831,128,1.993369698,27639,52917.96875,30080,128
18.83239971,261120,16.0353787,222338,1.800155854,24960,128,1.985436319,27529,52937.5,30720,128
18.87870179,261762,15.9903748,221714,1.776788447,24636,128,1.951899761,27064,52957.03125,31360,128
18.61084206,258048,15.96419465,221351,1.775346014,24616,128,1.935816638,26841,52976.5625,32000,128
18.3131961,253921,15.92943203,220869,1.772605392,24578,128,1.920166245,26624,52996.09375,32640,128
18.30208937,253767,15.90491067,220529,1.781620596,24703,128,1.876460537,26018,53015.625,33280,128
18.24157932,252928,15.86329649,219952,1.772966,24583,128,1.850136143,25653,53035.15625,33920,128
18.29747359,253703,15.85341583,219815,1.772677514,24579,128,1.854319197,25711,53054.6875,34560,128
18.17227044,251967,15.84101091,219643,1.774696919,24607,128,1.848188859,25626,53074.21875,35200,128
18.3142058,253935,15.79737732,219038,1.781404231,24700,128,1.817392924,25199,53093.75,35840,128
18.0264405,249945,15.77285597,218698,1.790924286,24832,128,1.778519366,24660,53113.28125,36480,128
18.03790784,250104,15.74155518,218264,1.21416762,16835,128,1.761210175,24420,53132.8125,37120,128
18.02002168,249856,15.72929451,218094,1.209407593,16769,128,1.773038122,24584,53152.34375,37760,128
17.73211214,245864,15.70967742,217822,1.779384825,24672,128,1.810974099,25110,53171.875,38400,128
17.75230619,246144,15.71991869,217964,1.81768141,25203,128,1.841553669,25534,53191.40625,39040,128
17.87224446,247807,15.74782976,218351,1.772821757,24581,128,1.865137442,25861,53210.9375,39680,128
18.27908257,253448,15.74004063,218243,1.781692717,24704,128,1.811623193,25119,53230.46875,40320,128
18.07533897,250623,15.70708104,217786,1.781115744,24696,128,1.790347313,24824,53250,40960,128
18.05795766,250382,15.7022489,217719,1.237102298,17153,128,1.756954999,24361,53269.53125,41600,128
17.75281104,246151,15.67354449,217321,1.181857131,16387,128,1.732073037,24016,53289.0625,42240,128
18.02240169,249889,15.64649888,216946,1.18625655,16448,128,1.695002519,23502,53308.59375,42880,128
18.09372998,250878,15.90195369,220488,1.773542973,24591,128,2.222427991,30815,53328.125,43520,128
18.83340941,261134,15.80848405,219192,0.480041561,6656,128,2.462593015,34145,53347.65625,44160,128
18.20357122,252401,15.69186338,217575,1.179044387,16348,128,1.947211855,26999,53367.1875,44800,128
18.16974618,251932,15.65847107,217112,1.773470852,24590,128,1.821792343,25260,53386.71875,45440,128
17.79615614,246752,15.63719519,216817,1.774192068,24600,128,1.768061729,24515,53406.25,46080,128
17.79413674,246724,15.65298982,217036,1.778807852,24664,128,1.806718922,25051,53425.78125,46720,128
17.86719595,247737,15.65710076,217093,1.790780043,24830,128,1.796982503,24916,53445.3125,47360,128
18.02016592,249858,15.65688439,217090,1.81371472,25148,128,1.811406828,25116,53464.84375,48000,128
18.0474279,250236,15.69647917,217639,1.84602521,25596,128,1.869825348,25926,53484.375,48640,128
18.02204109,249884,15.72128901,217983,1.80527649,25031,128,1.888865458,26190,53503.90625,49280,128
18.2785056,253440,15.77213475,218688,1.828139046,25348,128,1.978224156,27429,53523.4375,49920,128
18.17688622,252031,15.8369721,219587,2.10061456,29126,128,2.121529832,29416,53542.96875,50560,128
18.31081609,253888,15.89243363,220356,2.235121397,30991,128,2.234905033,30988,53562.5,51200,128
18.86557566,261580,15.87050866,220052,2.251853615,31223,128,2.243920236,31113,53582.03125,51840,128
18.31514338,253948,15.75417647,218439,1.179332874,16352,128,2.072342881,28734,53601.5625,52480,128
17.8677008,247744,15.60726471,216402,1.177024982,16320,128,1.844438534,25574,53621.09375,53120,128
17.72504422,245766,15.56182808,215772,1.172409197,16256,128,1.77873573,24663,53640.625,53760,128
17.72576543,245776,15.5255509,215269,1.204647565,16703,128,1.717865076,23819,53660.15625,54400,128
18.01302588,249759,15.50312108,214958,1.18272259,16399,128,1.698897087,23556,53679.6875,55040,128
17.87224446,247807,15.49049979,214783,1.181712887,16385,128,1.699834669,23569,53699.21875,55680,128
17.76261959,246287,15.48314339,214681,1.19952693,16632,128,1.67819818,23269,53718.75,56320,128
17.81678293,247038,15.47196453,214526,1.197435403,16603,128,1.672861179,23195,53738.28125,56960,128
17.75309953,246155,15.45104926,214236,1.181712887,16385,128,1.64985438,22876,53757.8125,57600,128
17.79889677,246790,15.43532675,214018,1.18272259,16399,128,1.644589501,22803,53777.34375,58240,128
17.81772051,247051,15.43871646,214065,1.191954159,16527,128,1.643868285,22793,53796.875,58880,128
17.72461149,245760,15.42508548,213876,1.202339673,16671,128,1.627424553,22565,53816.40625,59520,128
17.72677514,245790,15.4118151,213692,1.186545037,16452,128,1.603119564,22228,53835.9375,60160,128
17.74076673,245984,15.38520222,213323,1.18625655,16448,128,1.595474672,22122,53855.46875,60800,128
17.72461149,245760,15.38109128,213266,1.192675375,16537,128,1.598287415,22161,53875,61440,128
16.83491908,233424,15.35455052,212898,1.181640766,16384,128,1.566481777,21720,53894.53125,62080,128
17.72576543,245776,15.36940758,213104,1.188636564,16481,128,1.593238901,22091,53914.0625,62720,128
17.72922727,245824,15.36717181,213073,1.186184428,16447,128,1.632977919,22642,53933.59375,63360,128
17.72684726,245791,15.36500816,213043,1.190944456,16513,128,1.653171975,22922,53953.125,64000,128
17.72576543,245776,15.38722162,213351,1.189718388,16496,128,1.654902894,22946,53972.65625,64640,128
17.73167941,245858,15.34142439,212716,1.192098402,16529,128,1.576723048,21862,53992.1875,65280,128
16.69053157,231422,15.30810419,212254,1.200031781,16639,128,1.495297729,20733,54011.71875,384,128
16.56943936,229743,15.28596285,211947,1.183948658,16416,128,1.483902512,20575,54031.25,1024,128
16.77318296,232568,15.29440108,212064,1.183371685,16408,128,1.492629229,20696,54050.78125,1664,128
15.36104147,212988,15.27413491,211783,1.189574145,16494,128,1.432551912,19863,54070.3125,2304,128
17.72547695,245772,15.63762792,216823,1.348385972,18696,128,2.168553134,30068,54089.84375,2944,128
17.75728259,246213,15.40063624,213537,7.21E-05,1,128,2.014861943,27937,54109.375,3584,128
16.83585666,233437,15.33363525,212608,0.581660936,8065,128,1.642209487,22770,54128.90625,4224,128
16.8199899,233217,15.32837037,212535,1.198877835,16623,128,1.563452669,21678,54148.4375,4864,128
16.8343421,233416,15.33327464,212603,1.184958361,16430,128,1.496379554,20748,54167.96875,5504,128
16.82107172,233232,15.34438137,212757,1.217124607,16876,128,1.510226907,20940,54187.5,6144,128
16.82886086,233340,15.33716921,212657,1.217990067,16888,128,1.500346243,20803,54207.03125,6784,128
16.6906037,231423,15.35260324,212871,1.181712887,16385,128,1.495586216,20737,54226.5625,7424,128
17.72518846,245768,15.37712459,213211,1.246333867,17281,128,1.539941018,21352,54246.09375,8064,128
17.72461149,245760,15.40236716,213561,1.254916341,17400,128,1.573333332,21815,54265.625,8704,128
17.79853616,246785,15.44160133,214105,1.250877529,17344,128,1.620789363,22473,54285.15625,9344,128
17.87224446,247807,15.52273816,215230,1.218278553,16892,128,1.757099242,24363,54304.6875,9984,128
17.96456015,249087,15.54574496,215549,1.772461149,24576,128,1.86549805,25866,54324.21875,10624,128
17.73319396,245879,15.50088531,214927,1.774769041,24608,128,1.798424935,24936,54343.75,11264,128
17.72944364,245827,15.39522712,213462,0.588512491,8160,128,1.657138664,22977,54363.28125,11904,128
16.83023117,233359,15.23194375,211198,0.267715486,3712,128,1.402116585,19441,54382.8125,12544,128
16.68591579,231358,15.18924775,210606,1.181640766,16384,128,1.320907631,18315,54402.34375,13184,128
16.57499273,229820,15.15325906,210107,1.200176024,16641,128,1.289029871,17873,54421.875,13824,128
15.34366016,212747,15.13256015,209820,1.18358805,16411,128,1.246333867,17281,54441.40625,14464,128
16.56143386,229632,15.12246312,209680,1.218422797,16894,128,1.251742989,17356,54460.9375,15104,128
16.54643256,229424,15.0967157,209323,1.218422797,16894,128,1.225634959,16994,54480.46875,15744,128
15.06772281,208921,15.07868529,209073,1.196137213,16585,128,1.191521429,16521,54500,16384,128
15.36118571,212990,15.07183374,208978,0.027694705,384,128,1.177457711,16326,54519.53125,17024,128
15.36104147,212988,15.0566882,208768,0.017886164,248,128,1.154667277,16010,54539.0625,17664,128
15.35916631,212962,15.03981174,208534,0.018391015,255,128,1.138295667,15783,54558.59375,18304,128
15.32772128,212526,15.0266856,208352,0.01817465,252,128,1.114711894,15456,54578.125,18944,128
15.29663686,212095,14.99956787,207976,0.018030407,250,128,1.087161432,15074,54597.65625,19584,128
15.28747741,211968,14.98745143,207808,3.61E-04,5,128,1.080381999,14980,54617.1875,20224,128
15.05827487,208790,14.98442232,207766,0.008077622,112,128,1.058168537,14672,54636.71875,20864,128
15.33926074,212686,14.97454166,207629,6.49E-04,9,128,1.04323936,14465,54656.25,21504,128
15.34293894,212737,14.96242523,207461,0.025603178,355,128,1.020232561,14146,54675.78125,22144,128
15.22227946,211064,14.94641423,207239,0.001153946,16,128,1.045258766,14493,54695.3125,22784,128
15.32548551,212495,14.9319899,207039,2.88E-04,4,128,1.043455725,14468,54714.84375,23424,128
15.21362486,210944,14.94677483,207244,0.034834747,483,128,1.048143631,14533,54734.375,24064,128
15.0646937,208879,14.97490227,207634,0.036998396,513,128,1.051821834,14584,54753.90625,24704,128
15.06267429,208851,14.9336487,207062,1.173491022,16271,128,1.000399113,13871,54773.4375,25344,128
15.21290364,210934,14.88410114,206375,0.008149744,113,128,0.895534265,12417,54792.96875,25984,128
15.32526914,212492,14.85792099,206012,0.036349301,504,128,0.88118206,12218,54812.5,26624,128
14.77050957,204800,14.82409594,205543,0.016011002,222,128,0.829254488,11498,54832.03125,27264,128
15.13061287,209793,14.89088057,206469,0.068587669,951,128,0.927123538,12855,54851.5625,27904,128
17.72461149,245760,15.33853952,212676,1.79200611,24847,128,1.925647488,26700,54871.09375,28544,128
15.32433156,212479,14.87083076,206191,0.341568034,4736,128,1.143921154,15861,54890.625,29184,128
15.2784622,211843,14.83621238,205711,1.178178928,16336,128,0.938374512,13011,54910.15625,29824,128
14.77144715,204813,14.80635402,205297,0.001586676,22,128,0.824205974,11428,54929.6875,30464,128
15.1003939,209374,14.80440674,205270,2.16E-04,3,128,0.822330811,11402,54949.21875,31104,128
14.84198211,205791,14.83837603,205741,0.006851555,95,128,0.851612193,11808,54968.75,31744,128
15.06649674,208904,14.86001251,206041,0.039234166,544,128,0.861204369,11941,54988.28125,32384,128
15.14056565,209931,14.8699653,206179,0.03187776,442,128,0.877503857,12167,55007.8125,33024,128
14.91670011,206827,14.91662799,206826,0.008293987,115,128,0.912987699,12659,55027.34375,33664,128
15.21362486,210944,14.96494948,207496,0.055245168,766,128,0.963761325,13363,55046.875,34304,128
15.34286682,212736,15.01932919,208250,0.064837344,899,128,1.046845442,14515,55066.40625,34944,128
16.57520909,229823,15.06079913,208825,0.064909466,900,128,1.15481152,16012,55085.9375,35584,128
15.23432377,211231,15.06995858,208952,1.21503308,16847,128,1.193685078,16551,55105.46875,36224,128
15.32534126,212493,14.99271631,207881,1.174140116,16280,128,1.100287569,15256,55125,36864,128
14.90321337,206640,14.81111405,205363,1.115216746,15463,128,0.813459851,11279,55144.53125,37504,128
14.74267062,204414,14.75103673,204530,1.181568644,16383,128,0.710614408,9853,55164.0625,38144,128
14.31001297,198415,14.70307585,203865,0.017958286,249,128,0.676356635,9378,55183.59375,38784,128
14.40124683,199680,14.7068983,203918,0.034834747,483,128,0.653349835,9059,55203.125,39424,128
14.23515072,197377,14.67826601,203521,0.001009703,14,128,0.632939414,8776,55222.65625,40064,128
14.32840399,198670,14.66470714,203333,0.020698907,287,128,0.60041256,8325,55242.1875,40704,128
14.76841805,204771,14.64927312,203119,0.001081824,15,128,0.591613721,8203,55261.71875,41344,128
14.32847611,198671,14.61645777,202664,0.004471541,62,128,0.56810207,7877,55281.25,41984,128
14.32508639,198624,14.60700984,202533,0.009087325,126,128,0.562981434,7806,55300.78125,42624,128
14.30893115,198400,14.59698493,202394,0,0,128,0.536440675,7438,55320.3125,43264,128
14.2924153,198171,14.59013338,202299,0.018679502,259,128,0.536512796,7439,55339.84375,43904,128
14.76611015,204739,14.59561462,202375,0.036709909,509,128,0.512424172,7105,55359.375,44544,128
14.2864292,198088,14.57549269,202096,0.007933379,110,128,0.511053862,7086,55378.90625,45184,128
14.69802734,203795,14.56438596,201942,0.004615784,64,128,0.48530644,6729,55398.4375,45824,128
14.18163647,196635,14.55948169,201874,0.004543663,63,128,0.474199709,6575,55417.96875,46464,128
14.2350786,197376,14.53387851,201519,0.036854152,511,128,0.474632439,6581,55437.5,47104,128
14.18077101,196623,14.53524882,201538,0.035700206,495,128,0.464535411,6441,55457.03125,47744,128
14.18993046,196750,14.52226693,201358,4.33E-04,6,128,0.451048666,6254,55476.5625,48384,128
14.67819389,203520,14.5345276,201528,0.036205058,502,128,0.500235617,6936,55496.09375,49024,128
14.21675971,197122,14.51736266,201290,0.036493544,506,128,0.506149591,7018,55515.625,49664,128
14.65958651,203262,14.5485192,201722,0.016948583,235,128,0.552379555,7659,55535.15625,50304,128
14.25411871,197640,14.57405026,202076,0.065125831,903,128,0.557428069,7729,55554.6875,50944,128
14.77043745,204799,14.54426402,201663,0.016083123,223,128,0.490499197,6801,55574.21875,51584,128
14.18401649,196668,14.5031547,201093,0.027622584,383,128,0.409218122,5674,55593.75,52224,128
14.18012192,196614,14.48288852,200812,0.025386813,352,128,0.394793796,5474,55613.28125,52864,128
14.63001664,202852,14.47827273,200748,0,0,128,0.389168309,5396,55632.8125,53504,128
14.18401649,196668,14.47913819,200760,0.002163649,30,128,0.372868821,5170,55652.34375,54144,128
15.21362486,210944,14.91821467,206848,0.573222706,7948,128,1.145579951,15884,55671.875,54784,128
14.8399627,205763,14.56907386,202007,0.016155245,224,128,0.892144548,12370,55691.40625,55424,128
14.24539199,197519,14.52443058,201388,0.586420964,8131,128,0.568246313,7879,55710.9375,56064,128
14.20622995,196976,14.49962074,201044,0.00576973,80,128,0.462516005,6413,55730.46875,56704,128
14.17968919,196608,14.49471646,200976,0,0,128,0.446577125,6192,55750,57344,128
14.48433095,200832,14.49413949,200968,0.036854152,511,128,0.462227519,6409,55769.53125,57984,128
14.18675711,196706,14.49226433,200942,0.01817465,252,128,0.458405072,6356,55789.0625,58624,128
14.69687339,203779,14.50070256,201059,0.055605776,771,128,0.456025059,6323,55808.59375,59264,128
14.17990556,196611,14.49197584,200938,0.038657193,536,128,0.481916723,6682,55828.125,59904,128
14.19786384,196860,14.52443058,201388,5.05E-04,7,128,0.527281228,7311,55847.65625,60544,128
