Device,Device,Device,Device,Device,Device,Device,Device
ECG LL-RA,ECG LL-RA,ECG Vx-RL,ECG Vx-RL,Timestamp,Timestamp,ECG LA-RA,ECG LA-RA
CAL,RAW,CAL,RAW,CAL,RAW,CAL,RAW
mV,No Units,mV,No Units,mSecs,No Units,mV,No Units
9.656514176,1046,2.363353374,256,1.953125,64,3.249610889,352
4.172795801,452,-4.726706748,-512,5.859375,192,-3.489638966,-378
4.191259499,454,-4.662083804,-505,9.765625,320,-3.360393078,-364
4.200491348,455,-4.468214972,-484,13.671875,448,-3.286538285,-356
4.209723197,456,-4.431287576,-480,17.578125,576,-3.194219794,-346
4.117404706,446,-3.545030061,-384,21.484375,704,-3.249610889,-352
0.009231849,1,0.009231849,1,25.390625,832,-184.3600269,-19970
-3.12959685,-339,-4.726706748,-512,37.109375,1216,-302.5092318,-32768
4.126636555,447,-0.5262154,-57,41.015625,1344,-3.157292398,-342
4.062013611,440,-1.117053743,-121,44.921875,1472,-3.231147191,-350
4.080477309,442,-0.83086642,-90,48.828125,1600,-3.175756096,-344
4.098941008,444,-0.757011628,-82,52.734375,1728,-3.12959685,-339
4.135868404,448,-0.009231849,-1,56.640625,1856,-3.037278359,-329
4.062013611,440,-0.009231849,-1,60.546875,1984,-3.1388287,-340
4.089709159,443,-0.073854793,-8,64.453125,2112,-3.101901303,-336
4.034318064,437,-0.009231849,-1,68.359375,2240,-3.175756096,-344
4.07124546,441,-1.181676687,-128,72.265625,2368,-6.730018006,-729
4.062013611,440,-1.790978729,-194,76.171875,2496,-6.656163213,-721
4.089709159,443,-1.181676687,-128,80.078125,2624,-6.646931364,-720
4.052781762,439,-1.04319895,-113,83.984375,2752,-6.702322459,-726
4.025086215,436,-1.181676687,-128,87.890625,2880,-6.748481704,-731
4.043549913,438,-1.181676687,-128,91.796875,3008,-6.730018006,-729
4.080477309,442,-0.821634571,-89,95.703125,3136,-6.573076571,-712
3.988158818,432,-0.747779778,-81,99.609375,3264,-6.711554308,-727
4.089709159,443,-0.673924986,-73,103.515625,3392,-6.591540269,-714
3.960463271,429,-0.683156835,-74,107.421875,3520,-6.776177252,-734
4.006622517,434,-0.166173284,-18,111.328125,3648,-6.68385876,-724
5.926847133,642,-0.138477737,-15,115.234375,3776,-6.600772118,-715
6.259193701,678,-0.147709586,-16,119.140625,3904,-6.637699515,-719
6.26842555,679,-0.120014039,-13,123.046875,4032,-6.619235817,-717
6.176107059,669,-0.276955473,-30,126.953125,4160,-6.757713553,-732
6.240730003,676,-0.230796228,-25,130.859375,4288,-6.665395062,-722
6.314584796,684,-0.083086642,-9,134.765625,4416,-6.526917325,-707
6.305352947,683,-9.453413495,-1024,138.671875,4544,-6.591540269,-714
6.259193701,678,-9.425717948,-1021,142.578125,4672,-6.628467666,-718
6.203802606,672,-8.871807001,-961,146.484375,4800,-6.711554308,-727
6.249961852,677,0.064622944,7,150.390625,4928,-6.646931364,-720
6.249961852,677,-8.936429945,-968,154.296875,5056,-6.573076571,-712
6.259193701,678,-9.444181646,-1023,158.203125,5184,-6.600772118,-715
6.240730003,676,0.147709586,16,162.109375,5312,-6.619235817,-717
6.203802606,672,0.443128758,48,166.015625,5440,-6.693090609,-725
6.240730003,676,0.581606494,63,169.921875,5568,-6.610003967,-716
6.222266305,674,-9.305703909,-1008,173.828125,5696,-6.619235817,-717
6.26842555,679,0.553910947,60,177.734375,5824,-6.573076571,-712
6.222266305,674,0.553910947,60,181.640625,5952,-6.610003967,-716
6.148411512,666,2.391048921,259,185.546875,6080,-6.739249855,-730
6.240730003,676,-6.942350536,-752,189.453125,6208,-6.591540269,-714
6.213034455,673,2.501831111,271,193.359375,6336,-6.628467666,-718
6.249961852,677,2.935728019,318,197.265625,6464,-6.554612873,-710
6.296121097,682,-6.58230842,-713,201.171875,6592,-6.58230842,-713
6.249961852,677,-6.914654988,-749,205.078125,6720,-6.656163213,-721
6.305352947,683,2.834177679,307,208.984375,6848,-6.58230842,-713
6.286889248,681,3.692739647,400,212.890625,6976,-6.573076571,-712
6.342280343,687,-5.32677694,-577,216.796875,7104,-6.508453627,-705
6.333048494,686,4.689779351,508,220.703125,7232,-6.536149174,-708
6.314584796,684,4.689779351,508,224.609375,7360,-6.610003967,-716
6.333048494,686,0,0,228.515625,7488,-6.610003967,-716
6.360744041,689,0.572374645,62,232.421875,7616,-6.536149174,-708
6.388439589,692,-2.335657826,-253,236.328125,7744,-6.462294382,-700
6.305352947,683,-1.781746879,-193,240.234375,7872,-6.536149174,-708
6.259193701,678,-2.29873043,-249,244.140625,8000,-6.637699515,-719
6.249961852,677,-2.317194128,-251,248.046875,8128,-6.600772118,-715
6.286889248,681,-2.151020844,-233,251.953125,8256,-6.563844722,-711
6.314584796,684,-1.329386273,-144,255.859375,8384,-6.462294382,-700
6.26842555,679,-1.855601672,-201,259.765625,8512,-6.58230842,-713
6.240730003,676,-1.15398114,-125,263.671875,8640,-6.545381024,-709
6.240730003,676,-1.15398114,-125,267.578125,8768,-6.610003967,-716
6.203802606,672,-1.172444838,-127,271.484375,8896,-6.610003967,-716
6.277657399,680,-0.904721213,-98,275.390625,9024,-6.499221778,-704
6.231498154,675,-0.923184912,-100,279.296875,9152,-6.545381024,-709
6.16687521,668,0.286187323,31,283.203125,9280,-6.637699515,-719
6.176107059,669,-0.738547929,-80,287.109375,9408,-6.619235817,-717
6.176107059,669,0.581606494,63,291.015625,9536,-6.628467666,-718
6.249961852,677,-0.655461287,-71,294.921875,9664,-6.545381024,-709
6.16687521,668,-0.609302042,-66,298.828125,9792,-6.591540269,-714
6.194570757,671,0.507751701,55,302.734375,9920,-6.58230842,-713
6.148411512,666,0.553910947,60,306.640625,10048,-6.693090609,-725
6.16687521,668,-0.62776574,-68,310.546875,10176,-6.637699515,-719
6.222266305,674,-0.600070193,-65,314.453125,10304,-6.563844722,-711
6.203802606,672,-0.609302042,-66,318.359375,10432,-6.58230842,-713
6.176107059,669,-0.710852382,-77,322.265625,10560,-6.600772118,-715
6.139179662,665,0.323114719,35,326.171875,10688,-6.674626911,-723
6.176107059,669,-0.600070193,-65,330.078125,10816,-6.637699515,-719
6.213034455,673,0.083086642,9,333.984375,10944,-6.563844722,-711
6.231498154,675,0.5262154,57,337.890625,11072,-6.563844722,-711
6.16687521,668,0,0,341.796875,11200,-6.573076571,-712
6.157643361,667,0,0,345.703125,11328,-6.665395062,-722
6.148411512,666,0.553910947,60,349.609375,11456,-6.656163213,-721
6.194570757,671,0.138477737,15,353.515625,11584,-6.619235817,-717
6.213034455,673,0.10155034,11,357.421875,11712,-6.637699515,-719
6.194570757,671,-0.757011628,-82,361.328125,11840,-6.610003967,-716
6.093020417,660,-0.600070193,-65,365.234375,11968,-6.730018006,-729
6.222266305,674,0.581606494,63,369.140625,12096,-6.563844722,-711
6.388439589,692,0.138477737,15,373.046875,12224,-6.406903287,-694
6.619235817,717,1.14474929,124,376.953125,12352,-6.093020417,-660
6.68385876,724,1.033967101,112,380.859375,12480,-5.991470077,-649
6.58230842,713,1.033967101,112,384.765625,12608,-6.046861171,-655
6.443830683,698,-0.120014039,-13,388.671875,12736,-6.074556719,-658
6.36997589,690,-0.563142796,-61,392.578125,12864,-6.342280343,-687
6.314584796,684,-0.073854793,-8,396.484375,12992,-6.489989929,-703
6.194570757,671,-0.664693136,-72,400.390625,13120,-6.720786157,-728
6.083788568,659,-0.738547929,-80,404.296875,13248,-6.803872799,-737
5.982238227,648,0.581606494,63,408.203125,13376,-6.739249855,-730
6.019165624,652,0,0,412.109375,13504,-6.646931364,-720
6.05609302,656,0.138477737,15,416.015625,13632,-6.508453627,-705
6.000701926,650,-0.230796228,-25,419.921875,13760,-6.656163213,-721
6.102252266,661,0,0,423.828125,13888,-6.628467666,-718
6.139179662,665,-0.600070193,-65,427.734375,14016,-6.619235817,-717
6.176107059,669,0,0,431.640625,14144,-6.573076571,-712
6.240730003,676,-0.590838343,-64,435.546875,14272,-6.471526231,-701
6.231498154,675,-0.009231849,-1,439.453125,14400,-6.545381024,-709
6.240730003,676,0.581606494,63,443.359375,14528,-6.536149174,-708
6.194570757,671,-0.036927396,-4,447.265625,14656,-6.610003967,-716
6.203802606,672,-0.009231849,-1,451.171875,14784,-6.58230842,-713
6.286889248,681,-0.5262154,-57,455.078125,14912,-6.443830683,-698
6.26842555,679,-0.018463698,-2,458.984375,15040,-6.517685476,-706
6.240730003,676,-0.046159246,-5,462.890625,15168,-6.554612873,-710
6.277657399,680,-0.064622944,-7,466.796875,15296,-6.508453627,-705
6.231498154,675,0.138477737,15,470.703125,15424,-6.526917325,-707
6.323816645,685,0.600070193,65,474.609375,15552,-6.416135136,-695
6.249961852,677,-0.009231849,-1,478.515625,15680,-6.517685476,-706
6.296121097,682,-0.009231849,-1,482.421875,15808,-6.489989929,-703
6.185338908,670,0.572374645,62,486.328125,15936,-6.628467666,-718
6.296121097,682,0.590838343,64,490.234375,16064,-6.48075808,-702
6.277657399,680,0.590838343,64,494.140625,16192,-6.462294382,-700
6.26842555,679,0.590838343,64,498.046875,16320,-6.471526231,-701
6.26842555,679,0.138477737,15,501.953125,16448,-6.508453627,-705
6.194570757,671,0.470824305,51,505.859375,16576,-6.628467666,-718
6.277657399,680,-0.590838343,-64,509.765625,16704,-6.508453627,-705
6.323816645,685,-0.590838343,-64,513.671875,16832,-6.425366985,-696
6.305352947,683,0.618533891,67,517.578125,16960,-6.471526231,-701
6.296121097,682,-0.5262154,-57,521.484375,17088,-6.443830683,-698
6.249961852,677,0.009231849,1,525.390625,17216,-6.563844722,-711
6.296121097,682,-0.590838343,-64,529.296875,17344,-6.499221778,-704
6.323816645,685,0.590838343,64,533.203125,17472,-6.425366985,-696
6.351512192,688,0.710852382,77,537.109375,17600,-6.379207739,-691
6.342280343,687,-0.5262154,-57,541.015625,17728,-6.434598834,-697
6.286889248,681,-0.590838343,-64,544.921875,17856,-6.499221778,-704
6.305352947,683,-0.590838343,-64,548.828125,17984,-6.462294382,-700
6.379207739,691,0.138477737,15,552.734375,18112,-6.379207739,-691
6.36997589,690,0.655461287,71,556.640625,18240,-6.406903287,-694
6.36997589,690,-0.563142796,-61,560.546875,18368,-6.397671438,-693
6.360744041,689,-0.5262154,-57,564.453125,18496,-6.443830683,-698
6.397671438,693,0.618533891,67,568.359375,18624,-6.397671438,-693
6.360744041,689,-0.489288003,-53,572.265625,18752,-6.406903287,-694
6.443830683,698,-0.581606494,-63,576.171875,18880,-6.305352947,-683
6.462294382,700,0.655461287,71,580.078125,19008,-6.305352947,-683
6.397671438,693,0.655461287,71,583.984375,19136,-6.388439589,-692
6.462294382,700,-0.480056154,-52,587.890625,19264,-6.351512192,-688
6.434598834,697,-0.360042116,-39,591.796875,19392,-6.342280343,-687
6.526917325,707,-0.489288003,-53,595.703125,19520,-6.240730003,-676
6.48075808,702,1.15398114,125,599.609375,19648,-6.305352947,-683
6.416135136,695,-0.590838343,-64,603.515625,19776,-6.388439589,-692
6.425366985,696,0.692388684,75,607.421875,19904,-6.397671438,-693
6.425366985,696,0.590838343,64,611.328125,20032,-6.388439589,-692
6.508453627,705,-0.31388287,-34,615.234375,20160,-6.259193701,-678
6.406903287,694,-0.452360607,-49,619.140625,20288,-6.397671438,-693
6.388439589,692,0.664693136,72,623.046875,20416,-6.425366985,-696
6.351512192,688,0.276955473,30,626.953125,20544,-6.499221778,-704
6.416135136,695,0.664693136,72,630.859375,20672,-6.425366985,-696
6.425366985,696,0.72931608,79,634.765625,20800,-6.314584796,-684
6.333048494,686,-0.553910947,-60,638.671875,20928,-6.453062532,-699
6.333048494,686,0.055391095,6,642.578125,21056,-6.462294382,-700
6.249961852,677,-0.009231849,-1,646.484375,21184,-6.536149174,-708
6.314584796,684,0.590838343,64,650.390625,21312,-6.48075808,-702
6.333048494,686,-0.489288003,-53,654.296875,21440,-6.397671438,-693
6.286889248,681,-0.590838343,-64,658.203125,21568,-6.462294382,-700
6.286889248,681,-0.590838343,-64,662.109375,21696,-6.48075808,-702
6.176107059,669,-0.147709586,-16,666.015625,21824,-6.591540269,-714
6.26842555,679,-0.553910947,-60,669.921875,21952,-6.489989929,-703
6.259193701,678,-0.563142796,-61,673.828125,22080,-6.471526231,-701
6.249961852,677,-0.590838343,-64,677.734375,22208,-6.489989929,-703
6.231498154,675,-0.581606494,-63,681.640625,22336,-6.489989929,-703
6.176107059,669,-0.018463698,-2,685.546875,22464,-6.591540269,-714
6.194570757,671,-0.073854793,-8,689.453125,22592,-6.545381024,-709
6.277657399,680,-0.590838343,-64,693.359375,22720,-6.425366985,-696
6.277657399,680,-0.018463698,-2,808.59375,26496,-6.462294382,-700
6.240730003,676,-0.036927396,-4,812.5,26624,-6.462294382,-700
6.26842555,679,-0.590838343,-64,816.40625,26752,-6.425366985,-696
6.26842555,679,-0.581606494,-63,820.3125,26880,-6.453062532,-699
6.176107059,669,-0.009231849,-1,824.21875,27008,-6.591540269,-714
6.222266305,674,-0.018463698,-2,828.125,27136,-6.48075808,-702
6.231498154,675,0,0,832.03125,27264,-6.517685476,-706
6.305352947,683,-0.147709586,-16,835.9375,27392,-6.351512192,-688
6.26842555,679,0.590838343,64,839.84375,27520,-6.453062532,-699
6.203802606,672,0.600070193,65,843.75,27648,-6.517685476,-706
6.203802606,672,-0.147709586,-16,847.65625,27776,-6.499221778,-704
6.259193701,678,0.655461287,71,851.5625,27904,-6.453062532,-699
6.26842555,679,-0.461592456,-50,855.46875,28032,-6.406903287,-694
6.231498154,675,0.036927396,4,859.375,28160,-6.462294382,-700
6.16687521,668,-0.600070193,-65,863.28125,28288,-6.563844722,-711
0.018463698,2,2.326425977,252,867.1875,28416,-184.3692587,-19971
6.240730003,676,1.77251503,192,882.8125,28928,-6.48075808,-702
6.176107059,669,-0.590838343,-64,886.71875,29056,-6.517685476,-706
6.185338908,670,0.600070193,65,890.625,29184,-6.499221778,-704
6.26842555,679,0.590838343,64,894.53125,29312,-6.379207739,-691
6.222266305,674,0.655461287,71,898.4375,29440,-6.471526231,-701
6.26842555,679,0.618533891,67,902.34375,29568,-6.434598834,-697
6.231498154,675,-0.046159246,-5,906.25,29696,-6.517685476,-706
6.305352947,683,-0.535447249,-58,910.15625,29824,-6.425366985,-696
6.314584796,684,0.618533891,67,914.0625,29952,-6.379207739,-691
6.26842555,679,0.646229438,70,917.96875,30080,-6.443830683,-698
6.305352947,683,0.609302042,66,921.875,30208,-6.406903287,-694
6.286889248,681,-0.009231849,-1,925.78125,30336,-6.508453627,-705
6.342280343,687,-0.553910947,-60,929.6875,30464,-6.425366985,-696
6.406903287,694,-0.433896908,-47,933.59375,30592,-6.314584796,-684
6.296121097,682,-0.452360607,-49,937.5,30720,-6.443830683,-698
6.351512192,688,0.600070193,65,941.40625,30848,-6.379207739,-691
6.26842555,679,-0.590838343,-64,945.3125,30976,-6.508453627,-705
6.286889248,681,-0.516983551,-56,949.21875,31104,-6.416135136,-695
6.286889248,681,-0.516983551,-56,953.125,31232,-6.388439589,-692
6.323816645,685,1.033967101,112,957.03125,31360,-6.360744041,-689
6.286889248,681,-0.581606494,-63,960.9375,31488,-6.379207739,-691
6.231498154,675,-0.590838343,-64,964.84375,31616,-6.48075808,-702
6.240730003,676,0.590838343,64,968.75,31744,-6.462294382,-700
6.249961852,677,-0.507751701,-55,972.65625,31872,-6.397671438,-693
6.203802606,672,0.701620533,76,976.5625,32000,-6.425366985,-696
6.185338908,670,-0.590838343,-64,980.46875,32128,-6.499221778,-704
6.111484115,662,0.129245888,14,984.375,32256,-6.573076571,-712
6.157643361,667,-0.027695547,-3,988.28125,32384,-6.508453627,-705
6.194570757,671,-0.5262154,-57,992.1875,32512,-6.443830683,-698
6.194570757,671,-0.581606494,-63,996.09375,32640,-6.443830683,-698
6.203802606,672,0.590838343,64,1000,32768,-6.416135136,-695
6.16687521,668,0.590838343,64,1003.90625,32896,-6.517685476,-706
6.148411512,666,-0.018463698,-2,1007.8125,33024,-6.536149174,-708
6.157643361,667,-0.581606494,-63,1011.71875,33152,-6.48075808,-702
6.185338908,670,0.609302042,66,1015.625,33280,-6.416135136,-695
6.213034455,673,-0.452360607,-49,1019.53125,33408,-6.397671438,-693
6.111484115,662,-0.009231849,-1,1023.4375,33536,-6.573076571,-712
6.148411512,666,0.138477737,15,1027.34375,33664,-6.499221778,-704
6.157643361,667,0.600070193,65,1031.25,33792,-6.48075808,-702
6.231498154,675,-0.590838343,-64,1035.15625,33920,-6.379207739,-691
6.129947813,664,-0.009231849,-1,1039.0625,34048,-6.489989929,-703
6.102252266,661,-0.581606494,-63,1042.96875,34176,-6.554612873,-710
6.120715964,663,-0.036927396,-4,1046.875,34304,-6.526917325,-707
6.139179662,665,0.138477737,15,1050.78125,34432,-6.489989929,-703
6.240730003,676,-0.489288003,-53,1054.6875,34560,-6.397671438,-693
6.176107059,669,-0.590838343,-64,1058.59375,34688,-6.48075808,-702
6.16687521,668,-0.009231849,-1,1062.5,34816,-6.508453627,-705
6.102252266,661,0.064622944,7,1066.40625,34944,-6.554612873,-710
6.185338908,670,0.62776574,68,1070.3125,35072,-6.453062532,-699
6.351512192,688,-0.360042116,-39,1074.21875,35200,-6.277657399,-680
6.545381024,709,1.098590045,119,1078.125,35328,-6.111484115,-662
6.674626911,723,-0.018463698,-2,1082.03125,35456,-5.936078982,-643
6.610003967,716,-0.147709586,-16,1085.9375,35584,-6.046861171,-655
6.425366985,696,1.14474929,124,1089.84375,35712,-6.028397473,-653
6.36997589,690,-0.018463698,-2,1093.75,35840,-6.176107059,-669
6.277657399,680,-0.267723624,-29,1097.65625,35968,-6.360744041,-689
6.139179662,665,0,0,1101.5625,36096,-6.591540269,-714
6.102252266,661,-0.036927396,-4,1105.46875,36224,-6.674626911,-723
5.973006378,647,-0.110782189,-12,1109.375,36352,-6.610003967,-716
5.963774529,646,0.267723624,29,1113.28125,36480,-6.517685476,-706
5.95454268,645,-0.581606494,-63,1117.1875,36608,-6.499221778,-704
5.963774529,646,-0.018463698,-2,1121.09375,36736,-6.517685476,-706
6.019165624,652,0.221564379,24,1125,36864,-6.554612873,-710
6.102252266,661,0.62776574,68,1128.90625,36992,-6.471526231,-701
6.185338908,670,0.655461287,71,1132.8125,37120,-6.36997589,-690
6.213034455,673,-0.452360607,-49,1136.71875,37248,-6.379207739,-691
6.194570757,671,-0.590838343,-64,1140.625,37376,-6.443830683,-698
6.129947813,664,0.286187323,31,1144.53125,37504,-6.536149174,-708
6.203802606,672,-0.581606494,-63,1148.4375,37632,-6.425366985,-696
6.231498154,675,0.590838343,64,1152.34375,37760,-6.36997589,-690
6.231498154,675,-0.480056154,-52,1156.25,37888,-6.379207739,-691
6.185338908,670,-0.590838343,-64,1160.15625,38016,-6.425366985,-696
6.194570757,671,0.62776574,68,1164.0625,38144,-6.48075808,-702
6.231498154,675,-0.295419172,-32,1167.96875,38272,-6.397671438,-693
6.213034455,673,-0.5262154,-57,1171.875,38400,-6.434598834,-697
6.259193701,678,-0.572374645,-62,1175.78125,38528,-6.36997589,-690
6.240730003,676,-0.581606494,-63,1179.6875,38656,-6.342280343,-687
6.176107059,669,-0.563142796,-61,1183.59375,38784,-6.48075808,-702
6.277657399,680,-0.572374645,-62,1187.5,38912,-6.351512192,-688
6.240730003,676,0.655461287,71,1191.40625,39040,-6.406903287,-694
6.259193701,678,0.803170873,87,1195.3125,39168,-6.333048494,-686
6.176107059,669,-0.516983551,-56,1199.21875,39296,-6.443830683,-698
6.231498154,675,1.015503403,110,1203.125,39424,-6.416135136,-695
6.185338908,670,-0.535447249,-58,1207.03125,39552,-6.434598834,-697
6.240730003,676,0.72931608,79,1210.9375,39680,-6.379207739,-691
6.286889248,681,-0.009231849,-1,1214.84375,39808,-6.277657399,-680
6.231498154,675,-0.452360607,-49,1218.75,39936,-6.388439589,-692
6.249961852,677,-0.452360607,-49,1222.65625,40064,-6.406903287,-694
6.231498154,675,-0.480056154,-52,1226.5625,40192,-6.397671438,-693
6.277657399,680,1.024735252,111,1230.46875,40320,-6.333048494,-686
6.286889248,681,0.867793817,94,1234.375,40448,-6.286889248,-681
6.26842555,679,-0.369273965,-40,1238.28125,40576,-6.333048494,-686
6.231498154,675,-0.590838343,-64,1242.1875,40704,-6.397671438,-693
6.259193701,678,-0.240028077,-26,1246.09375,40832,-6.36997589,-690
6.296121097,682,0.757011628,82,1250,40960,-6.333048494,-686
6.351512192,688,-0.304651021,-33,1253.90625,41088,-6.213034455,-673
6.323816645,685,-0.073854793,-8,1257.8125,41216,-6.277657399,-680
6.286889248,681,-0.31388287,-34,1261.71875,41344,-6.314584796,-684
6.305352947,683,-0.461592456,-50,1265.625,41472,-6.323816645,-685
6.333048494,686,-0.009231849,-1,1269.53125,41600,-6.26842555,-679
6.397671438,693,-0.286187323,-31,1273.4375,41728,-6.157643361,-667
6.360744041,689,0.886257515,96,1277.34375,41856,-6.240730003,-676
6.36997589,690,1.172444838,127,1281.25,41984,-6.259193701,-678
6.360744041,689,-0.304651021,-33,1285.15625,42112,-6.296121097,-682
6.360744041,689,-0.009231849,-1,1289.0625,42240,-6.240730003,-676
6.379207739,691,0.886257515,96,1292.96875,42368,-6.203802606,-672
6.379207739,691,1.172444838,127,1296.875,42496,-6.231498154,-675
6.406903287,694,-0.027695547,-3,1300.78125,42624,-6.231498154,-675
6.296121097,682,-0.073854793,-8,1304.6875,42752,-6.351512192,-688
6.36997589,690,0.812402722,88,1308.59375,42880,-6.259193701,-678
6.397671438,693,-0.360042116,-39,1312.5,43008,-6.222266305,-674
6.388439589,692,-0.018463698,-2,1316.40625,43136,-6.249961852,-677
6.342280343,687,-0.147709586,-16,1320.3125,43264,-6.314584796,-684
6.259193701,678,1.107821894,120,1324.21875,43392,-6.425366985,-696
6.296121097,682,-0.304651021,-33,1328.125,43520,-6.342280343,-687
6.305352947,683,-0.332346568,-36,1332.03125,43648,-6.314584796,-684
6.351512192,688,-0.036927396,-4,1335.9375,43776,-6.277657399,-680
6.231498154,675,-0.516983551,-56,1339.84375,43904,-6.406903287,-694
6.222266305,674,0.618533891,67,1343.75,44032,-6.434598834,-697
6.26842555,679,0.720084231,78,1347.65625,44160,-6.379207739,-691
6.222266305,674,0.646229438,70,1351.5625,44288,-6.388439589,-692
6.240730003,676,-0.433896908,-47,1355.46875,44416,-6.36997589,-690
6.194570757,671,-0.581606494,-63,1359.375,44544,-6.416135136,-695
6.157643361,667,0.590838343,64,1363.28125,44672,-6.48075808,-702
6.16687521,668,-0.535447249,-58,1367.1875,44800,-6.443830683,-698
6.176107059,669,0.590838343,64,1371.09375,44928,-6.434598834,-697
6.185338908,670,0.618533891,67,1375,45056,-6.397671438,-693
6.185338908,670,0.886257515,96,1378.90625,45184,-6.425366985,-696
6.148411512,666,0.886257515,96,1382.8125,45312,-6.489989929,-703
6.185338908,670,0.886257515,96,1386.71875,45440,-6.406903287,-694
6.185338908,670,-0.5262154,-57,1390.625,45568,-6.397671438,-693
6.213034455,673,0.738547929,80,1394.53125,45696,-6.360744041,-689
6.185338908,670,0.600070193,65,1398.4375,45824,-6.416135136,-695
6.111484115,662,-0.009231849,-1,1402.34375,45952,-6.508453627,-705
6.129947813,664,-0.590838343,-64,1406.25,46080,-6.471526231,-701
6.102252266,661,0.590838343,64,1410.15625,46208,-6.499221778,-704
6.194570757,671,0.766243477,83,1414.0625,46336,-6.333048494,-686
6.148411512,666,0.913953063,99,1417.96875,46464,-6.434598834,-697
6.148411512,666,-0.5262154,-57,1421.875,46592,-6.453062532,-699
6.139179662,665,-0.018463698,-2,1425.78125,46720,-6.471526231,-701
6.129947813,664,0.590838343,64,1429.6875,46848,-6.453062532,-699
6.194570757,671,1.033967101,112,1433.59375,46976,-6.351512192,-688
6.148411512,666,-0.590838343,-64,1437.5,47104,-6.425366985,-696
6.157643361,667,0.600070193,65,1441.40625,47232,-6.453062532,-699
6.111484115,662,-0.590838343,-64,1445.3125,47360,-6.489989929,-703
6.16687521,668,0.646229438,70,1449.21875,47488,-6.443830683,-698
6.203802606,672,0.738547929,80,1453.125,47616,-6.351512192,-688
6.16687521,668,0.673924986,73,1457.03125,47744,-6.416135136,-695
6.148411512,666,0.655461287,71,1460.9375,47872,-6.434598834,-697
6.120715964,663,-0.590838343,-64,1464.84375,48000,-6.489989929,-703
6.148411512,666,-0.230796228,-25,1468.75,48128,-6.434598834,-697
6.203802606,672,-0.166173284,-18,1472.65625,48256,-6.333048494,-686
6.185338908,670,-0.046159246,-5,1476.5625,48384,-6.397671438,-693
6.129947813,664,0.600070193,65,1480.46875,48512,-6.453062532,-699
6.157643361,667,0.886257515,96,1484.375,48640,-6.471526231,-701
6.203802606,672,-0.295419172,-32,1488.28125,48768,-6.397671438,-693
6.148411512,666,0.72931608,79,1492.1875,48896,-6.388439589,-692
6.16687521,668,0.913953063,99,1496.09375,49024,-6.406903287,-694
6.185338908,670,0.590838343,64,1500,49152,-6.397671438,-693
6.111484115,662,0.276955473,30,1503.90625,49280,-6.517685476,-706
6.120715964,663,-0.590838343,-64,1507.8125,49408,-6.48075808,-702
6.203802606,672,-0.304651021,-33,1511.71875,49536,-6.351512192,-688
6.185338908,670,-0.230796228,-25,1515.625,49664,-6.360744041,-689
6.16687521,668,0.895489364,97,1519.53125,49792,-6.416135136,-695
6.111484115,662,0.553910947,60,1523.4375,49920,-6.536149174,-708
6.139179662,665,0.655461287,71,1527.34375,50048,-6.443830683,-698
6.185338908,670,-0.295419172,-32,1531.25,50176,-6.388439589,-692
6.203802606,672,-0.452360607,-49,1535.15625,50304,-6.360744041,-689
6.129947813,664,0.600070193,65,1539.0625,50432,-6.416135136,-695
6.129947813,664,0.600070193,65,1542.96875,50560,-6.489989929,-703
6.148411512,666,-0.553910947,-60,1546.875,50688,-6.434598834,-697
6.176107059,669,-0.507751701,-55,1550.78125,50816,-6.397671438,-693
6.194570757,671,-0.332346568,-36,1554.6875,50944,-6.351512192,-688
6.16687521,668,0.720084231,78,1558.59375,51072,-6.388439589,-692
6.093020417,660,-0.009231849,-1,1562.5,51200,-6.508453627,-705
6.129947813,664,-0.590838343,-64,1566.40625,51328,-6.443830683,-698
6.139179662,665,-0.480056154,-52,1570.3125,51456,-6.425366985,-696
6.194570757,671,-0.064622944,-7,1574.21875,51584,-6.342280343,-687
6.129947813,664,0.895489364,97,1578.125,51712,-6.434598834,-697
6.129947813,664,0.590838343,64,1582.03125,51840,-6.48075808,-702
6.139179662,665,0.655461287,71,1585.9375,51968,-6.406903287,-694
6.129947813,664,0.62776574,68,1589.84375,52096,-6.462294382,-700
6.194570757,671,0.590838343,64,1593.75,52224,-6.351512192,-688
6.129947813,664,-0.286187323,-31,1597.65625,52352,-6.453062532,-699
6.129947813,664,-0.590838343,-64,1601.5625,52480,-6.48075808,-702
6.129947813,664,-0.581606494,-63,1605.46875,52608,-6.489989929,-703
6.139179662,665,0.655461287,71,1609.375,52736,-6.462294382,-700
6.16687521,668,-0.470824305,-51,1613.28125,52864,-6.379207739,-691
6.185338908,670,0.72931608,79,1617.1875,52992,-6.406903287,-694
6.093020417,660,0.129245888,14,1621.09375,53120,-6.517685476,-706
6.120715964,663,-0.046159246,-5,1625,53248,-6.545381024,-709
6.194570757,671,0.886257515,96,1628.90625,53376,-6.462294382,-700
6.240730003,676,0.72931608,79,1632.8125,53504,-6.379207739,-691
6.213034455,673,0.636997589,69,1636.71875,53632,-6.453062532,-699
6.231498154,675,0.913953063,99,1640.625,53760,-6.434598834,-697
6.157643361,667,-0.064622944,-7,1644.53125,53888,-6.545381024,-709
6.259193701,678,0.646229438,70,1648.4375,54016,-6.443830683,-698
6.277657399,680,-0.452360607,-49,1652.34375,54144,-6.36997589,-690
6.305352947,683,-0.452360607,-49,1656.25,54272,-6.397671438,-693
6.249961852,677,0.590838343,64,1660.15625,54400,-6.462294382,-700
6.259193701,678,0.655461287,71,1664.0625,54528,-6.434598834,-697
6.240730003,676,1.061662648,115,1667.96875,54656,-6.434598834,-697
6.26842555,679,-0.563142796,-61,1671.875,54784,-6.360744041,-689
6.222266305,674,0.590838343,64,1675.78125,54912,-6.397671438,-693
6.213034455,673,0.590838343,64,1679.6875,55040,-6.406903287,-694
6.16687521,668,0.276955473,30,1683.59375,55168,-6.48075808,-702
6.213034455,673,0.590838343,64,1687.5,55296,-6.406903287,-694
6.194570757,671,0.72931608,79,1691.40625,55424,-6.360744041,-689
6.148411512,666,0.913953063,99,1695.3125,55552,-6.471526231,-701
6.120715964,663,-0.036927396,-4,1699.21875,55680,-6.453062532,-699
6.093020417,660,-0.009231849,-1,1703.125,55808,-6.536149174,-708
6.120715964,663,0.609302042,66,1707.03125,55936,-6.48075808,-702
0.018463698,2,-300.1551103,-32513,1710.9375,56064,217.4008148,23549
-6.545381024,-709,0,0,1722.65625,56448,-302.5092318,-32768
6.074556719,658,8.862575152,960,1726.5625,56576,-6.499221778,-704
6.083788568,659,-0.018463698,-2,1730.46875,56704,-6.489989929,-703
6.16687521,668,-0.452360607,-49,1734.375,56832,-6.36997589,-690
6.102252266,661,0.590838343,64,1738.28125,56960,-6.48075808,-702
6.06532487,657,-0.009231849,-1,1742.1875,57088,-6.545381024,-709
6.05609302,656,0.138477737,15,1746.09375,57216,-6.517685476,-706
6.111484115,662,-0.590838343,-64,1750,57344,-6.462294382,-700
6.120715964,663,-0.5262154,-57,1753.90625,57472,-6.434598834,-697
6.120715964,663,0.618533891,67,1757.8125,57600,-6.434598834,-697
6.05609302,656,0.267723624,29,1761.71875,57728,-6.545381024,-709
6.05609302,656,0.286187323,31,1765.625,57856,-6.499221778,-704
6.120715964,663,-0.590838343,-64,1769.53125,57984,-6.443830683,-698
6.157643361,667,-0.276955473,-30,1773.4375,58112,-6.36997589,-690
6.129947813,664,0.618533891,67,1777.34375,58240,-6.489989929,-703
6.139179662,665,-0.590838343,-64,1781.25,58368,-6.499221778,-704
6.111484115,662,-0.009231849,-1,1785.15625,58496,-6.563844722,-711
6.093020417,660,0.286187323,31,1789.0625,58624,-6.517685476,-706
6.16687521,668,0.664693136,72,1792.96875,58752,-6.388439589,-692
6.203802606,672,0.701620533,76,1796.875,58880,-6.36997589,-690
6.36997589,690,-0.009231849,-1,1800.78125,59008,-6.231498154,-675
6.517685476,706,-0.184636982,-20,1804.6875,59136,-6.037629322,-654
6.646931364,720,-1.15398114,-125,1808.59375,59264,-5.899151585,-639
6.48075808,702,3.581957457,388,1812.5,59392,-5.769905698,-625
6.323816645,685,1.172444838,127,1816.40625,59520,-6.028397473,-653
6.26842555,679,-0.018463698,-2,1820.3125,59648,-6.240730003,-676
6.157643361,667,-0.009231849,-1,1824.21875,59776,-6.499221778,-704
6.019165624,652,-0.036927396,-4,1828.125,59904,-6.665395062,-722
5.963774529,646,0.009231849,1,1832.03125,60032,-6.554612873,-710
5.889919736,638,0.258491775,28,1835.9375,60160,-6.545381024,-709
5.899151585,639,-0.018463698,-2,1839.84375,60288,-6.517685476,-706
5.880687887,637,-0.009231849,-1,1843.75,60416,-6.554612873,-710
6.000701926,650,-0.590838343,-64,1847.65625,60544,-6.471526231,-701
6.083788568,659,-0.452360607,-49,1851.5625,60672,-6.388439589,-692
6.129947813,664,-0.258491775,-28,1855.46875,60800,-6.379207739,-691
6.102252266,661,-0.535447249,-58,1859.375,60928,-6.443830683,-698
6.083788568,659,0.276955473,30,1863.28125,61056,-6.517685476,-706
6.16687521,668,-0.590838343,-64,1867.1875,61184,-6.416135136,-695
6.129947813,664,-0.581606494,-63,1871.09375,61312,-6.416135136,-695
6.148411512,666,-0.276955473,-30,1875,61440,-6.388439589,-692
6.139179662,665,0.72931608,79,1878.90625,61568,-6.416135136,-695
6.111484115,662,0.886257515,96,1882.8125,61696,-6.489989929,-703
6.157643361,667,0.590838343,64,1886.71875,61824,-6.425366985,-696
6.176107059,669,-0.267723624,-29,1890.625,61952,-6.360744041,-689
6.185338908,670,-0.332346568,-36,1894.53125,62080,-6.351512192,-688
6.194570757,671,0.701620533,76,1898.4375,62208,-6.379207739,-691
6.129947813,664,-0.590838343,-64,1902.34375,62336,-6.499221778,-704
6.194570757,671,0.655461287,71,1906.25,62464,-6.397671438,-693
6.194570757,671,-0.184636982,-20,1910.15625,62592,-6.397671438,-693
6.213034455,673,1.080126347,117,1914.0625,62720,-6.351512192,-688
6.176107059,669,0.904721213,98,1917.96875,62848,-6.360744041,-689
6.129947813,664,-0.461592456,-50,1921.875,62976,-6.471526231,-701
6.148411512,666,0.655461287,71,1925.78125,63104,-6.434598834,-697
6.16687521,668,0.590838343,64,1929.6875,63232,-6.388439589,-692
6.222266305,674,-0.147709586,-16,1933.59375,63360,-6.314584796,-684
6.213034455,673,0.877025666,95,1937.5,63488,-6.333048494,-686
6.16687521,668,0.923184912,100,1941.40625,63616,-6.453062532,-699
6.176107059,669,1.061662648,115,1945.3125,63744,-6.434598834,-697
6.213034455,673,1.033967101,112,1949.21875,63872,-6.342280343,-687
6.240730003,676,-0.304651021,-33,1953.125,64000,-6.305352947,-683
6.194570757,671,0.950880459,103,1957.03125,64128,-6.351512192,-688
6.16687521,668,0.590838343,64,1960.9375,64256,-6.462294382,-700
6.203802606,672,0.72931608,79,1964.84375,64384,-6.360744041,-689
6.194570757,671,-0.267723624,-29,1968.75,64512,-6.36997589,-690
6.286889248,681,-0.036927396,-4,1972.65625,64640,-6.240730003,-676
6.222266305,674,-0.147709586,-16,1976.5625,64768,-6.351512192,-688
6.213034455,673,0.655461287,71,1980.46875,64896,-6.379207739,-691
6.259193701,678,-0.184636982,-20,1984.375,65024,-6.351512192,-688
6.277657399,680,-0.046159246,-5,1988.28125,65152,-6.323816645,-685
6.333048494,686,1.14474929,124,1992.1875,65280,-6.213034455,-673
6.26842555,679,-0.092318491,-10,1996.09375,65408,-6.333048494,-686
6.286889248,681,1.163212989,126,2000,0,-6.333048494,-686
6.342280343,687,-0.221564379,-24,2003.90625,128,-6.305352947,-683
6.314584796,684,-0.083086642,-9,2007.8125,256,-6.296121097,-682
6.323816645,685,1.098590045,119,2011.71875,384,-6.286889248,-681
6.342280343,687,-0.036927396,-4,2015.625,512,-6.277657399,-680
6.323816645,685,-0.009231849,-1,2019.53125,640,-6.333048494,-686
6.286889248,681,-0.166173284,-18,2023.4375,768,-6.406903287,-694
6.323816645,685,-0.138477737,-15,2027.34375,896,-6.333048494,-686
6.388439589,692,-0.018463698,-2,2031.25,1024,-6.249961852,-677
6.314584796,684,1.04319895,113,2035.15625,1152,-6.351512192,-688
6.314584796,684,-0.147709586,-16,2039.0625,1280,-6.333048494,-686
6.305352947,683,1.172444838,127,2042.96875,1408,-6.406903287,-694
6.305352947,683,-0.018463698,-2,2046.875,1536,-6.406903287,-694
6.333048494,686,1.04319895,113,2050.78125,1664,-6.342280343,-687
6.351512192,688,-0.147709586,-16,2054.6875,1792,-6.323816645,-685
6.231498154,675,0.895489364,97,2058.59375,1920,-6.453062532,-699
6.176107059,669,0.572374645,62,2062.5,2048,-6.554612873,-710
6.176107059,669,0.590838343,64,2066.40625,2176,-6.517685476,-706
6.194570757,671,0.904721213,98,2070.3125,2304,-6.453062532,-699
6.213034455,673,0.655461287,71,2074.21875,2432,-6.462294382,-700
6.157643361,667,-0.018463698,-2,2078.125,2560,-6.526917325,-707
6.148411512,666,-0.018463698,-2,2082.03125,2688,-6.591540269,-714
6.120715964,663,-0.009231849,-1,2085.9375,2816,-6.526917325,-707
6.111484115,662,0.258491775,28,2089.84375,2944,-6.563844722,-711
6.157643361,667,0.886257515,96,2093.75,3072,-6.453062532,-699
6.148411512,666,-0.590838343,-64,2097.65625,3200,-6.499221778,-704
6.06532487,657,-0.009231849,-1,2101.5625,3328,-6.656163213,-721
6.111484115,662,0.175405133,19,2105.46875,3456,-6.554612873,-710
6.120715964,663,0.276955473,30,2109.375,3584,-6.545381024,-709
6.176107059,669,-0.516983551,-56,2113.28125,3712,-6.443830683,-698
6.102252266,661,-0.083086642,-9,2117.1875,3840,-6.563844722,-711
6.05609302,656,0.507751701,55,2121.09375,3968,-6.637699515,-719
6.083788568,659,-0.018463698,-2,2125,4096,-6.591540269,-714
6.111484115,662,0.544679098,59,2128.90625,4224,-6.554612873,-710
6.120715964,663,-0.581606494,-63,2132.8125,4352,-6.489989929,-703
6.120715964,663,-0.009231849,-1,2136.71875,4480,-6.508453627,-705
6.06532487,657,-0.083086642,-9,2140.625,4608,-6.610003967,-716
6.093020417,660,-0.083086642,-9,2144.53125,4736,-6.563844722,-711
6.083788568,659,0.276955473,30,2148.4375,4864,-6.573076571,-712
6.139179662,665,-0.581606494,-63,2152.34375,4992,-6.462294382,-700
6.111484115,662,-0.009231849,-1,2156.25,5120,-6.517685476,-706
6.093020417,660,0.221564379,24,2160.15625,5248,-6.554612873,-710
6.06532487,657,-0.092318491,-10,2164.0625,5376,-6.610003967,-716
6.111484115,662,0.544679098,59,2167.96875,5504,-6.545381024,-709
6.139179662,665,0.609302042,66,2171.875,5632,-6.48075808,-702
6.111484115,662,-0.009231849,-1,2175.78125,5760,-6.508453627,-705
6.083788568,659,0.249259926,27,2179.6875,5888,-6.545381024,-709
6.083788568,659,-0.120014039,-13,2183.59375,6016,-6.573076571,-712
6.093020417,660,-0.009231849,-1,2187.5,6144,-6.58230842,-713
6.139179662,665,-0.258491775,-28,2191.40625,6272,-6.453062532,-699
6.148411512,666,-0.590838343,-64,2195.3125,6400,-6.471526231,-701
6.102252266,661,0.110782189,12,2199.21875,6528,-6.536149174,-708
6.037629322,654,0.147709586,16,2203.125,6656,-6.637699515,-719
6.129947813,664,0.590838343,64,2207.03125,6784,-6.499221778,-704
6.148411512,666,-0.553910947,-60,2210.9375,6912,-6.462294382,-700
6.139179662,665,0.62776574,68,2214.84375,7040,-6.453062532,-699
6.139179662,665,-0.590838343,-64,2218.75,7168,-6.499221778,-704
6.06532487,657,0.581606494,63,2222.65625,7296,-6.600772118,-715
6.129947813,664,0.572374645,62,2226.5625,7424,-6.499221778,-704
6.129947813,664,-0.009231849,-1,2230.46875,7552,-6.48075808,-702
6.120715964,663,0.600070193,65,2234.375,7680,-6.471526231,-701
6.148411512,666,0.590838343,64,2238.28125,7808,-6.48075808,-702
6.046861171,655,0.470824305,51,2242.1875,7936,-6.628467666,-718
6.120715964,663,0.286187323,31,2246.09375,8064,-6.508453627,-705
6.129947813,664,0.590838343,64,2250,8192,-6.471526231,-701
6.102252266,661,0.590838343,64,2253.90625,8320,-6.489989929,-703
6.120715964,663,-0.295419172,-32,2257.8125,8448,-6.48075808,-702
6.06532487,657,-0.018463698,-2,2261.71875,8576,-6.619235817,-717
6.102252266,661,0.286187323,31,2265.625,8704,-6.517685476,-706
6.093020417,660,-0.018463698,-2,2269.53125,8832,-6.499221778,-704
6.139179662,665,0.904721213,98,2273.4375,8960,-6.471526231,-701
6.111484115,662,0.590838343,64,2277.34375,9088,-6.48075808,-702
6.05609302,656,-0.009231849,-1,2281.25,9216,-6.58230842,-713
6.093020417,660,-0.009231849,-1,2285.15625,9344,-6.526917325,-707
6.093020417,660,-0.009231849,-1,2289.0625,9472,-6.517685476,-706
6.129947813,664,0.600070193,65,2292.96875,9600,-6.453062532,-699
6.102252266,661,-0.009231849,-1,2296.875,9728,-6.508453627,-705
6.074556719,658,0.572374645,62,2300.78125,9856,-6.573076571,-712
6.083788568,659,-0.055391095,-6,2304.6875,9984,-6.526917325,-707
6.111484115,662,-0.009231849,-1,2308.59375,10112,-6.499221778,-704
6.120715964,663,0.62776574,68,2312.5,10240,-6.453062532,-699
6.102252266,661,0.904721213,98,2316.40625,10368,-6.48075808,-702
6.074556719,658,0.073854793,8,2320.3125,10496,-6.545381024,-709
6.06532487,657,0.286187323,31,2324.21875,10624,-6.573076571,-712
6.083788568,659,0.276955473,30,2328.125,10752,-6.536149174,-708
6.16687521,668,-0.240028077,-26,2332.03125,10880,-6.388439589,-692
6.102252266,661,-0.286187323,-31,2335.9375,11008,-6.489989929,-703
6.074556719,658,-0.046159246,-5,2339.84375,11136,-6.545381024,-709
6.06532487,657,0.129245888,14,2343.75,11264,-6.563844722,-711
6.05609302,656,-0.018463698,-2,2347.65625,11392,-6.526917325,-707
6.120715964,663,0.701620533,76,2351.5625,11520,-6.425366985,-696
6.102252266,661,-0.147709586,-16,2355.46875,11648,-6.489989929,-703
6.028397473,653,-0.009231849,-1,2359.375,11776,-6.563844722,-711
6.046861171,655,-0.064622944,-7,2363.28125,11904,-6.563844722,-711
6.06532487,657,-0.036927396,-4,2367.1875,12032,-6.536149174,-708
6.111484115,662,0.590838343,64,2371.09375,12160,-6.425366985,-696
6.102252266,661,0.913953063,99,2375,12288,-6.48075808,-702
6.06532487,657,0.581606494,63,2378.90625,12416,-6.526917325,-707
6.046861171,655,0.258491775,28,2382.8125,12544,-6.554612873,-710
6.093020417,660,0.886257515,96,2386.71875,12672,-6.499221778,-704
6.093020417,660,0.646229438,70,2390.625,12800,-6.443830683,-698
6.028397473,653,-0.046159246,-5,2394.53125,12928,-6.545381024,-709
6.028397473,653,-0.009231849,-1,2398.4375,13056,-6.526917325,-707
5.973006378,647,0.221564379,24,2402.34375,13184,-6.646931364,-720
6.074556719,658,-0.018463698,-2,2406.25,13312,-6.517685476,-706
6.074556719,658,0.895489364,97,2410.15625,13440,-6.489989929,-703
6.074556719,658,-0.563142796,-61,2414.0625,13568,-6.48075808,-702
6.093020417,660,-0.563142796,-61,2417.96875,13696,-6.471526231,-701
6.000701926,650,0.249259926,27,2421.875,13824,-6.646931364,-720
6.176107059,669,-0.295419172,-32,2425.78125,13952,-6.453062532,-699
6.102252266,661,-0.009231849,-1,2429.6875,14080,-6.508453627,-705
6.148411512,666,0.600070193,65,2433.59375,14208,-6.434598834,-697
6.129947813,664,-0.590838343,-64,2437.5,14336,-6.499221778,-704
6.093020417,660,0.489288003,53,2441.40625,14464,-6.600772118,-715
6.185338908,670,0.590838343,64,2445.3125,14592,-6.462294382,-700
6.194570757,671,0.655461287,71,2449.21875,14720,-6.443830683,-698
6.222266305,674,0.960112308,104,2453.125,14848,-6.425366985,-696
6.194570757,671,-0.590838343,-64,2457.03125,14976,-6.434598834,-697
6.102252266,661,-0.036927396,-4,2460.9375,15104,-6.554612873,-710
6.148411512,666,0.590838343,64,2464.84375,15232,-6.499221778,-704
6.129947813,664,0.913953063,99,2468.75,15360,-6.48075808,-702
6.120715964,663,-0.563142796,-61,2472.65625,15488,-6.434598834,-697
6.111484115,662,-0.147709586,-16,2476.5625,15616,-6.443830683,-698
6.037629322,654,0.581606494,63,2480.46875,15744,-6.58230842,-713
6.06532487,657,-0.590838343,-64,2484.375,15872,-6.499221778,-704
6.074556719,658,-0.018463698,-2,2488.28125,16000,-6.536149174,-708
6.102252266,661,0.600070193,65,2492.1875,16128,-6.453062532,-699
6.037629322,654,-0.018463698,-2,2496.09375,16256,-6.517685476,-706
6.000701926,650,0,0,2500,16384,-6.573076571,-712
6.009933775,651,-0.009231849,-1,2503.90625,16512,-6.563844722,-711
6.000701926,650,-0.018463698,-2,2507.8125,16640,-6.536149174,-708
6.074556719,658,0.618533891,67,2511.71875,16768,-6.471526231,-701
6.028397473,653,0.572374645,62,2515.625,16896,-6.536149174,-708
5.982238227,648,-0.046159246,-5,2519.53125,17024,-6.573076571,-712
5.982238227,648,0.138477737,15,2523.4375,17152,-6.591540269,-714
5.991470077,649,-0.046159246,-5,2527.34375,17280,-6.536149174,-708
6.05609302,656,0.950880459,103,2531.25,17408,-6.443830683,-698
6.009933775,651,-0.027695547,-3,2535.15625,17536,-6.526917325,-707
5.991470077,649,-0.009231849,-1,2539.0625,17664,-6.545381024,-709
6.000701926,650,0.221564379,24,2542.96875,17792,-6.554612873,-710
5.982238227,648,0.267723624,29,2546.875,17920,-6.526917325,-707
6.06532487,657,-0.590838343,-64,2550.78125,18048,-6.471526231,-701
-6.499221778,-704,0,0,2558.59375,18304,-302.5092318,-32768
-6.517685476,-706,0,0,2566.40625,18560,-302.5092318,-32768
6.028397473,653,0,0,2570.3125,18688,-6.517685476,-706
6.037629322,654,-0.018463698,-2,2574.21875,18816,-6.536149174,-708
6.037629322,654,-0.009231849,-1,2578.125,18944,-6.600772118,-715
5.95454268,645,0.221564379,24,2582.03125,19072,-6.646931364,-720
6.074556719,658,0.286187323,31,2585.9375,19200,-6.462294382,-700
6.120715964,663,-0.5262154,-57,2589.84375,19328,-6.388439589,-692
6.277657399,680,1.107821894,120,2593.75,19456,-6.203802606,-672
6.48075808,702,-0.10155034,-11,2597.65625,19584,-5.963774529,-646
6.517685476,706,-0.009231849,-1,2601.5625,19712,-5.982238227,-648
6.26842555,679,3.545030061,384,2605.46875,19840,-5.899151585,-639
6.259193701,678,-2.354121525,-255,2609.375,19968,-6.074556719,-658
6.213034455,673,-0.027695547,-3,2613.28125,20096,-6.305352947,-683
6.093020417,660,-0.009231849,-1,2617.1875,20224,-6.508453627,-705
5.936078982,643,0,0,2621.09375,20352,-6.730018006,-729
5.85299234,634,-0.156941435,-17,2625,20480,-6.656163213,-721
5.806833094,629,0.147709586,16,2628.90625,20608,-6.610003967,-716
5.825296793,631,0.62776574,68,2632.8125,20736,-6.517685476,-706
5.825296793,631,-0.036927396,-4,2636.71875,20864,-6.536149174,-708
5.85299234,634,-0.036927396,-4,2640.625,20992,-6.610003967,-716
5.973006378,647,-0.046159246,-5,2644.53125,21120,-6.508453627,-705
6.05609302,656,0.618533891,67,2648.4375,21248,-6.462294382,-700
5.982238227,648,-0.5262154,-57,2652.34375,21376,-6.508453627,-705
6.046861171,655,0.590838343,64,2656.25,21504,-6.462294382,-700
6.028397473,653,0.94164861,102,2660.15625,21632,-6.526917325,-707
6.06532487,657,0.553910947,60,2664.0625,21760,-6.48075808,-702
6.037629322,654,0.600070193,65,2667.96875,21888,-6.508453627,-705
6.093020417,660,0.655461287,71,2671.875,22016,-6.397671438,-693
6.05609302,656,-0.258491775,-28,2675.78125,22144,-6.471526231,-701
6.06532487,657,-0.295419172,-32,2679.6875,22272,-6.508453627,-705
6.06532487,657,-0.009231849,-1,2683.59375,22400,-6.489989929,-703
6.074556719,658,-0.036927396,-4,2687.5,22528,-6.508453627,-705
6.102252266,661,-0.452360607,-49,2691.40625,22656,-6.425366985,-696
6.06532487,657,-0.009231849,-1,2695.3125,22784,-6.508453627,-705
6.074556719,658,-0.009231849,-1,2699.21875,22912,-6.508453627,-705
6.06532487,657,0.249259926,27,2703.125,23040,-6.517685476,-706
6.093020417,660,-0.286187323,-31,2707.03125,23168,-6.499221778,-704
6.139179662,665,-0.286187323,-31,2710.9375,23296,-6.388439589,-692
6.102252266,661,-0.240028077,-26,2714.84375,23424,-6.462294382,-700
6.06532487,657,1.033967101,112,2718.75,23552,-6.536149174,-708
6.046861171,655,-0.018463698,-2,2722.65625,23680,-6.536149174,-708
6.111484115,662,0.886257515,96,2726.5625,23808,-6.462294382,-700
6.157643361,667,0.673924986,73,2730.46875,23936,-6.379207739,-691
6.093020417,660,-0.295419172,-32,2734.375,24064,-6.453062532,-699
6.074556719,658,0.618533891,67,2738.28125,24192,-6.471526231,-701
6.05609302,656,0.286187323,31,2742.1875,24320,-6.545381024,-709
6.074556719,658,-0.036927396,-4,2746.09375,24448,-6.526917325,-707
6.139179662,665,0.664693136,72,2750,24576,-6.379207739,-691
6.157643361,667,-0.018463698,-2,2753.90625,24704,-6.379207739,-691
6.139179662,665,-0.21233253,-23,2757.8125,24832,-6.416135136,-695
6.102252266,661,0.286187323,31,2761.71875,24960,-6.499221778,-704
6.148411512,666,-0.147709586,-16,2765.625,25088,-6.425366985,-696
6.203802606,672,-0.009231849,-1,2769.53125,25216,-6.342280343,-687
6.16687521,668,1.172444838,127,2773.4375,25344,-6.360744041,-689
6.16687521,668,-0.461592456,-50,2777.34375,25472,-6.406903287,-694
6.120715964,663,0.618533891,67,2781.25,25600,-6.48075808,-702
6.185338908,670,-0.295419172,-32,2785.15625,25728,-6.388439589,-692
6.203802606,672,-0.230796228,-25,2789.0625,25856,-6.360744041,-689
6.240730003,676,0.877025666,95,2792.96875,25984,-6.305352947,-683
6.203802606,672,-0.461592456,-50,2796.875,26112,-6.397671438,-693
6.176107059,669,-0.138477737,-15,2800.78125,26240,-6.462294382,-700
6.222266305,674,-0.138477737,-15,2804.6875,26368,-6.360744041,-689
6.249961852,677,-0.147709586,-16,2808.59375,26496,-6.333048494,-686
6.296121097,682,-0.036927396,-4,2812.5,26624,-6.26842555,-679
6.259193701,678,-0.147709586,-16,2816.40625,26752,-6.333048494,-686
6.16687521,668,1.107821894,120,2820.3125,26880,-6.434598834,-697
6.240730003,676,0.886257515,96,2824.21875,27008,-6.379207739,-691
6.222266305,674,-0.156941435,-17,2828.125,27136,-6.351512192,-688
6.240730003,676,-0.147709586,-16,2832.03125,27264,-6.323816645,-685
6.231498154,675,-0.147709586,-16,2835.9375,27392,-6.36997589,-690
6.176107059,669,0.72931608,79,2839.84375,27520,-6.453062532,-699
6.203802606,672,0.950880459,103,2843.75,27648,-6.406903287,-694
6.157643361,667,0.886257515,96,2847.65625,27776,-6.416135136,-695
6.203802606,672,-0.009231849,-1,2851.5625,27904,-6.342280343,-687
6.157643361,667,-0.156941435,-17,2855.46875,28032,-6.406903287,-694
6.102252266,661,0.590838343,64,2859.375,28160,-6.499221778,-704
6.093020417,660,-0.129245888,-14,2863.28125,28288,-6.489989929,-703
6.093020417,660,0.886257515,96,2867.1875,28416,-6.489989929,-703
6.083788568,659,1.061662648,115,2871.09375,28544,-6.416135136,-695
6.074556719,658,-0.286187323,-31,2875,28672,-6.489989929,-703
6.009933775,651,-0.009231849,-1,2878.90625,28800,-6.536149174,-708
6.028397473,653,-0.009231849,-1,2882.8125,28928,-6.545381024,-709
6.037629322,654,-0.295419172,-32,2886.71875,29056,-6.48075808,-702
6.05609302,656,-0.590838343,-64,2890.625,29184,-6.425366985,-696
6.037629322,654,0.886257515,96,2894.53125,29312,-6.499221778,-704
5.982238227,648,0.507751701,55,2898.4375,29440,-6.58230842,-713
6.000701926,650,0.516983551,56,2902.34375,29568,-6.526917325,-707
6.046861171,655,-0.295419172,-32,2906.25,29696,-6.471526231,-701
6.074556719,658,-0.166173284,-18,2910.15625,29824,-6.406903287,-694
6.046861171,655,-0.563142796,-61,2914.0625,29952,-6.462294382,-700
5.982238227,648,0.581606494,63,2917.96875,30080,-6.545381024,-709
5.973006378,647,0.516983551,56,2921.875,30208,-6.554612873,-710
6.009933775,651,-0.009231849,-1,2925.78125,30336,-6.517685476,-706
6.05609302,656,-0.5262154,-57,2929.6875,30464,-6.434598834,-697
6.046861171,655,-0.240028077,-26,2933.59375,30592,-6.462294382,-700
6.009933775,651,0.590838343,64,2937.5,30720,-6.499221778,-704
5.963774529,646,-0.009231849,-1,2941.40625,30848,-6.573076571,-712
6.046861171,655,0.590838343,64,2945.3125,30976,-6.48075808,-702
6.046861171,655,-0.230796228,-25,2949.21875,31104,-6.434598834,-697
6.037629322,654,-0.230796228,-25,2953.125,31232,-6.453062532,-699
5.991470077,649,-0.267723624,-29,2957.03125,31360,-6.499221778,-704
5.982238227,648,-0.009231849,-1,2960.9375,31488,-6.573076571,-712
6.028397473,653,-0.563142796,-61,2964.84375,31616,-6.471526231,-701
6.037629322,654,-0.581606494,-63,2968.75,31744,-6.453062532,-699
6.037629322,654,0.72931608,79,2972.65625,31872,-6.425366985,-696
6.019165624,652,-0.553910947,-60,2976.5625,32000,-6.462294382,-700
6.000701926,650,-0.073854793,-8,2980.46875,32128,-6.554612873,-710
6.019165624,652,-0.286187323,-31,2984.375,32256,-6.471526231,-701
6.037629322,654,0.590838343,64,2988.28125,32384,-6.416135136,-695
6.05609302,656,0.72931608,79,2992.1875,32512,-6.425366985,-696
6.05609302,656,0.655461287,71,2996.09375,32640,-6.425366985,-696
5.963774529,646,0.544679098,59,3000,32768,-6.554612873,-710
6.028397473,653,0.886257515,96,3003.90625,32896,-6.462294382,-700
6.037629322,654,-0.073854793,-8,3007.8125,33024,-6.425366985,-696
6.093020417,660,1.14474929,124,3011.71875,33152,-6.379207739,-691
6.028397473,653,0.886257515,96,3015.625,33280,-6.471526231,-701
5.963774529,646,0.581606494,63,3019.53125,33408,-6.591540269,-714
6.019165624,652,0.923184912,100,3023.4375,33536,-6.453062532,-699
6.046861171,655,-0.295419172,-32,3027.34375,33664,-6.434598834,-697
6.074556719,658,1.033967101,112,3031.25,33792,-6.379207739,-691
6.037629322,654,0.950880459,103,3035.15625,33920,-6.462294382,-700
5.991470077,649,-0.027695547,-3,3039.0625,34048,-6.526917325,-707
6.037629322,654,-0.240028077,-26,3042.96875,34176,-6.462294382,-700
6.028397473,653,0.950880459,103,3046.875,34304,-6.434598834,-697
6.05609302,656,1.024735252,111,3050.78125,34432,-6.379207739,-691
6.06532487,657,0.710852382,77,3054.6875,34560,-6.416135136,-695
6.019165624,652,-0.590838343,-64,3058.59375,34688,-6.499221778,-704
6.037629322,654,-0.295419172,-32,3062.5,34816,-6.471526231,-701
6.037629322,654,-0.240028077,-26,3066.40625,34944,-6.453062532,-699
6.083788568,659,0.877025666,95,3070.3125,35072,-6.333048494,-686
5.982238227,648,0.590838343,64,3074.21875,35200,-6.462294382,-700
6.028397473,653,-0.572374645,-62,3078.125,35328,-6.48075808,-702
5.991470077,649,-0.590838343,-64,3082.03125,35456,-6.48075808,-702
5.982238227,648,0.590838343,64,3085.9375,35584,-6.48075808,-702
6.074556719,658,-0.535447249,-58,3089.84375,35712,-6.36997589,-690
6.046861171,655,0.72931608,79,3093.75,35840,-6.397671438,-693
6.019165624,652,-0.581606494,-63,3097.65625,35968,-6.434598834,-697
5.973006378,647,-0.009231849,-1,3101.5625,36096,-6.508453627,-705
6.009933775,651,0.655461287,71,3105.46875,36224,-6.453062532,-699
6.05609302,656,0.692388684,75,3109.375,36352,-6.379207739,-691
6.05609302,656,1.172444838,127,3113.28125,36480,-6.388439589,-692
6.019165624,652,-0.5262154,-57,3117.1875,36608,-6.434598834,-697
5.991470077,649,-0.009231849,-1,3121.09375,36736,-6.526917325,-707
5.982238227,648,0.886257515,96,3125,36864,-6.443830683,-698
6.05609302,656,-0.452360607,-49,3128.90625,36992,-6.360744041,-689
6.046861171,655,0.664693136,72,3132.8125,37120,-6.425366985,-696
6.019165624,652,-0.590838343,-64,3136.71875,37248,-6.443830683,-698
5.973006378,647,-0.009231849,-1,3140.625,37376,-6.517685476,-706
5.973006378,647,0.618533891,67,3144.53125,37504,-6.499221778,-704
6.037629322,654,-0.184636982,-20,3148.4375,37632,-6.425366985,-696
6.037629322,654,1.024735252,111,3152.34375,37760,-6.379207739,-691
6.019165624,652,0.664693136,72,3156.25,37888,-6.425366985,-696
5.963774529,646,-0.036927396,-4,3160.15625,38016,-6.536149174,-708
5.982238227,648,-0.258491775,-28,3164.0625,38144,-6.462294382,-700
6.046861171,655,-0.009231849,-1,3167.96875,38272,-6.351512192,-688
6.046861171,655,1.172444838,127,3171.875,38400,-6.379207739,-691
5.982238227,648,1.04319895,113,3175.78125,38528,-6.471526231,-701
5.95454268,645,-0.295419172,-32,3179.6875,38656,-6.508453627,-705
6.019165624,652,-0.073854793,-8,3183.59375,38784,-6.406903287,-694
5.991470077,649,0.94164861,102,3187.5,38912,-6.443830683,-698
6.083788568,659,1.107821894,120,3191.40625,39040,-6.323816645,-685
6.028397473,653,-0.590838343,-64,3195.3125,39168,-6.406903287,-694
6.037629322,654,-0.590838343,-64,3199.21875,39296,-6.499221778,-704
6.083788568,659,0.886257515,96,3203.125,39424,-6.397671438,-693
6.06532487,657,-0.156941435,-17,3207.03125,39552,-6.397671438,-693
6.139179662,665,1.14474929,124,3210.9375,39680,-6.314584796,-684
6.111484115,662,-0.230796228,-25,3214.84375,39808,-6.379207739,-691
6.074556719,658,0.94164861,102,3218.75,39936,-6.471526231,-701
6.129947813,664,-0.036927396,-4,3222.65625,40064,-6.388439589,-692
6.083788568,659,0.72931608,79,3226.5625,40192,-6.416135136,-695
6.157643361,667,1.172444838,127,3230.46875,40320,-6.26842555,-679
6.129947813,664,-0.147709586,-16,3234.375,40448,-6.351512192,-688
6.06532487,657,-0.480056154,-52,3238.28125,40576,-6.416135136,-695
6.05609302,656,-0.5262154,-57,3242.1875,40704,-6.434598834,-697
6.05609302,656,0.997039705,108,3246.09375,40832,-6.388439589,-692
6.120715964,663,2.418744469,262,3250,40960,-6.296121097,-682
6.083788568,659,-0.147709586,-16,3253.90625,41088,-6.333048494,-686
5.963774529,646,0.600070193,65,3257.8125,41216,-6.453062532,-699
6.046861171,655,0.950880459,103,3261.71875,41344,-6.416135136,-695
6.028397473,653,-0.027695547,-3,3265.625,41472,-6.416135136,-695
6.05609302,656,-0.240028077,-26,3269.53125,41600,-6.36997589,-690
6.046861171,655,1.033967101,112,3273.4375,41728,-6.351512192,-688
5.973006378,647,0.590838343,64,3277.34375,41856,-6.443830683,-698
5.963774529,646,0.590838343,64,3281.25,41984,-6.48075808,-702
5.963774529,646,1.098590045,119,3285.15625,42112,-6.453062532,-699
6.046861171,655,0.877025666,95,3289.0625,42240,-6.333048494,-686
5.963774529,646,0.618533891,67,3292.96875,42368,-6.406903287,-694
5.991470077,649,-0.295419172,-32,3296.875,42496,-6.406903287,-694
5.963774529,646,-0.120014039,-13,3300.78125,42624,-6.453062532,-699
5.982238227,648,0.895489364,97,3304.6875,42752,-6.453062532,-699
6.000701926,650,-0.461592456,-50,3308.59375,42880,-6.36997589,-690
5.982238227,648,0.664693136,72,3312.5,43008,-6.406903287,-694
5.973006378,647,-0.221564379,-24,3316.40625,43136,-6.416135136,-695
5.95454268,645,0.895489364,97,3320.3125,43264,-6.489989929,-703
5.973006378,647,-0.5262154,-57,3324.21875,43392,-6.434598834,-697
5.991470077,649,-0.230796228,-25,3328.125,43520,-6.379207739,-691
6.000701926,650,-0.480056154,-52,3332.03125,43648,-6.379207739,-691
5.973006378,647,0.618533891,67,3335.9375,43776,-6.434598834,-697
5.945310831,644,-0.581606494,-63,3339.84375,43904,-6.471526231,-701
6.009933775,651,0.720084231,78,3343.75,44032,-6.406903287,-694
6.000701926,650,-0.516983551,-56,3347.65625,44160,-6.425366985,-696
6.019165624,652,-0.480056154,-52,3351.5625,44288,-6.453062532,-699
5.95454268,645,-0.480056154,-52,3355.46875,44416,-6.425366985,-696
5.917615284,641,0.590838343,64,3359.375,44544,-6.517685476,-706
6.046861171,655,0.812402722,88,3363.28125,44672,-6.351512192,-688
6.240730003,676,-0.147709586,-16,3367.1875,44800,-6.139179662,-665
6.48075808,702,-0.092318491,-10,3371.09375,44928,-5.85299234,-634
6.499221778,704,2.335657826,253,3375,45056,-5.85299234,-634
6.323816645,685,2.501831111,271,3378.90625,45184,-5.926847133,-642
6.203802606,672,-1.864833522,-202,3382.8125,45312,-6.000701926,-650
6.129947813,664,-0.304651021,-33,3386.71875,45440,-6.213034455,-673
6.083788568,659,-0.147709586,-16,3390.625,45568,-6.314584796,-684
0,0,8.862575152,960,3398.4375,45824,297.4963378,32225
5.797601245,628,-297.7825251,-32256,3410.15625,46208,-6.360744041,-689
5.85299234,634,8.871807001,961,3414.0625,46336,-6.425366985,-696
5.908383435,640,-0.498519852,-54,3417.96875,46464,-6.425366985,-696
5.926847133,642,0.590838343,64,3421.875,46592,-6.443830683,-698
5.991470077,649,0.600070193,65,3425.78125,46720,-6.379207739,-691
6.083788568,659,1.107821894,120,3429.6875,46848,-6.240730003,-676
6.037629322,654,-0.147709586,-16,3433.59375,46976,-6.342280343,-687
6.000701926,650,0.913953063,99,3437.5,47104,-6.416135136,-695
6.019165624,652,0.646229438,70,3441.40625,47232,-6.416135136,-695
6.037629322,654,-0.480056154,-52,3445.3125,47360,-6.36997589,-690
6.083788568,659,-0.083086642,-9,3449.21875,47488,-6.277657399,-680
6.037629322,654,-0.267723624,-29,3453.125,47616,-6.36997589,-690
6.074556719,658,-0.369273965,-40,3457.03125,47744,-6.333048494,-686
6.000701926,650,-0.295419172,-32,3460.9375,47872,-6.434598834,-697
6.046861171,655,-0.156941435,-17,3464.84375,48000,-6.333048494,-686
6.102252266,661,-0.147709586,-16,3468.75,48128,-6.286889248,-681
6.046861171,655,-0.018463698,-2,3472.65625,48256,-6.351512192,-688
6.05609302,656,-0.073854793,-8,3476.5625,48384,-6.342280343,-687
6.046861171,655,1.024735252,111,3480.46875,48512,-6.388439589,-692
6.046861171,655,-0.147709586,-16,3484.375,48640,-6.333048494,-686
6.093020417,660,-0.147709586,-16,3488.28125,48768,-6.296121097,-682
6.074556719,658,-0.055391095,-6,3492.1875,48896,-6.333048494,-686
6.046861171,655,1.117053743,121,3496.09375,49024,-6.323816645,-685
6.028397473,653,0.997039705,108,3500,49152,-6.397671438,-693
6.093020417,660,0.84009827,91,3503.90625,49280,-6.314584796,-684
6.05609302,656,1.033967101,112,3507.8125,49408,-6.333048494,-686
6.093020417,660,1.126285592,122,3511.71875,49536,-6.296121097,-682
6.074556719,658,0.849330119,92,3515.625,49664,-6.314584796,-684
6.019165624,652,0.895489364,97,3519.53125,49792,-6.425366985,-696
6.074556719,658,-0.027695547,-3,3523.4375,49920,-6.323816645,-685
6.16687521,668,-0.120014039,-13,3527.34375,50048,-6.213034455,-673
6.139179662,665,-0.036927396,-4,3531.25,50176,-6.231498154,-675
6.111484115,662,1.107821894,120,3535.15625,50304,-6.277657399,-680
6.093020417,660,-0.009231849,-1,3539.0625,50432,-6.351512192,-688
6.120715964,663,-0.083086642,-9,3542.96875,50560,-6.286889248,-681
6.129947813,664,1.172444838,127,3546.875,50688,-6.259193701,-678
6.139179662,665,1.15398114,125,3550.78125,50816,-6.222266305,-674
6.185338908,670,1.04319895,113,3554.6875,50944,-6.194570757,-671
6.139179662,665,1.107821894,120,3558.59375,51072,-6.305352947,-683
6.176107059,669,-0.009231849,-1,3562.5,51200,-6.222266305,-674
6.139179662,665,1.172444838,127,3566.40625,51328,-6.231498154,-675
6.249961852,677,-0.073854793,-8,3570.3125,51456,-6.111484115,-662
6.222266305,674,-0.267723624,-29,3574.21875,51584,-6.176107059,-669
6.185338908,670,1.107821894,120,3578.125,51712,-6.240730003,-676
6.176107059,669,-0.073854793,-8,3582.03125,51840,-6.240730003,-676
6.213034455,673,-2.363353374,-256,3585.9375,51968,-6.194570757,-671
6.213034455,673,2.501831111,271,3589.84375,52096,-6.120715964,-663
6.185338908,670,-2.363353374,-256,3593.75,52224,-6.231498154,-675
6.176107059,669,-0.295419172,-32,3597.65625,52352,-6.259193701,-678
6.176107059,669,-0.073854793,-8,3601.5625,52480,-6.249961852,-677
6.203802606,672,1.163212989,126,3605.46875,52608,-6.203802606,-672
6.231498154,675,1.033967101,112,3609.375,52736,-6.157643361,-667
6.185338908,670,-0.036927396,-4,3613.28125,52864,-6.231498154,-675
6.185338908,670,1.163212989,126,3617.1875,52992,-6.286889248,-681
6.148411512,666,-0.083086642,-9,3621.09375,53120,-6.296121097,-682
6.102252266,661,1.172444838,127,3625,53248,-6.351512192,-688
6.185338908,670,-0.073854793,-8,3628.90625,53376,-6.194570757,-671
6.120715964,663,-0.073854793,-8,3632.8125,53504,-6.296121097,-682
6.019165624,652,1.172444838,127,3636.71875,53632,-6.397671438,-693
6.083788568,659,1.172444838,127,3640.625,53760,-6.342280343,-687
6.102252266,661,-0.147709586,-16,3644.53125,53888,-6.333048494,-686
6.074556719,658,-0.120014039,-13,3648.4375,54016,-6.323816645,-685
6.046861171,655,-0.138477737,-15,3652.34375,54144,-6.342280343,-687
6.037629322,654,1.033967101,112,3656.25,54272,-6.351512192,-688
5.991470077,649,1.061662648,115,3660.15625,54400,-6.416135136,-695
5.982238227,648,1.172444838,127,3664.0625,54528,-6.388439589,-692
6.009933775,651,-0.009231849,-1,3667.96875,54656,-6.351512192,-688
6.037629322,654,1.14474929,124,3671.875,54784,-6.342280343,-687
5.991470077,649,-0.120014039,-13,3675.78125,54912,-6.379207739,-691
5.917615284,641,0.600070193,65,3679.6875,55040,-6.489989929,-703
5.973006378,647,-0.009231849,-1,3683.59375,55168,-6.397671438,-693
6.037629322,654,-0.120014039,-13,3687.5,55296,-6.333048494,-686
6.028397473,653,1.098590045,119,3691.40625,55424,-6.314584796,-684
6.000701926,650,0.94164861,102,3695.3125,55552,-6.388439589,-692
5.95454268,645,0.655461287,71,3699.21875,55680,-6.462294382,-700
6.000701926,650,-0.553910947,-60,3703.125,55808,-6.360744041,-689
5.991470077,649,0.950880459,103,3707.03125,55936,-6.36997589,-690
5.991470077,649,1.061662648,115,3710.9375,56064,-6.333048494,-686
5.982238227,648,-0.323114719,-35,3714.84375,56192,-6.342280343,-687
5.945310831,644,0.618533891,67,3718.75,56320,-6.471526231,-701
6.009933775,651,-0.009231849,-1,3722.65625,56448,-6.379207739,-691
5.963774529,646,-0.156941435,-17,3726.5625,56576,-6.379207739,-691
6.028397473,653,1.089358196,118,3730.46875,56704,-6.296121097,-682
5.991470077,649,-0.009231849,-1,3734.375,56832,-6.36997589,-690
5.973006378,647,0.886257515,96,3738.28125,56960,-6.425366985,-696
5.973006378,647,-0.156941435,-17,3742.1875,57088,-6.388439589,-692
6.028397473,653,1.04319895,113,3746.09375,57216,-6.323816645,-685
6.009933775,651,1.061662648,115,3750,57344,-6.342280343,-687
5.991470077,649,-0.147709586,-16,3753.90625,57472,-6.342280343,-687
5.926847133,642,0.94164861,102,3757.8125,57600,-6.462294382,-700
5.95454268,645,-0.590838343,-64,3761.71875,57728,-6.425366985,-696
6.037629322,654,-0.147709586,-16,3765.625,57856,-6.342280343,-687
6.046861171,655,-0.027695547,-3,3769.53125,57984,-6.26842555,-679
6.000701926,650,-0.156941435,-17,3773.4375,58112,-6.360744041,-689
5.973006378,647,-0.590838343,-64,3777.34375,58240,-6.416135136,-695
5.982238227,648,-0.276955473,-30,3781.25,58368,-6.434598834,-697
5.991470077,649,-0.295419172,-32,3785.15625,58496,-6.360744041,-689
6.028397473,653,-0.009231849,-1,3789.0625,58624,-6.286889248,-681
6.05609302,656,-0.018463698,-2,3792.96875,58752,-6.305352947,-683
5.973006378,647,0.72931608,79,3796.875,58880,-6.397671438,-693
5.973006378,647,0.72931608,79,3800.78125,59008,-6.416135136,-695
6.000701926,650,-0.230796228,-25,3804.6875,59136,-6.360744041,-689
6.05609302,656,1.163212989,126,3808.59375,59264,-6.277657399,-680
6.009933775,651,1.052430799,114,3812.5,59392,-6.333048494,-686
5.991470077,649,1.033967101,112,3816.40625,59520,-6.351512192,-688
5.973006378,647,0.950880459,103,3820.3125,59648,-6.416135136,-695
5.963774529,646,-0.156941435,-17,3824.21875,59776,-6.397671438,-693
6.046861171,655,-0.073854793,-8,3828.125,59904,-6.277657399,-680
6.019165624,652,-0.129245888,-14,3832.03125,60032,-6.323816645,-685
6.000701926,650,-0.332346568,-36,3835.9375,60160,-6.314584796,-684
5.963774529,646,-0.452360607,-49,3839.84375,60288,-6.397671438,-693
5.973006378,647,1.024735252,111,3843.75,60416,-6.360744041,-689
6.009933775,651,0.655461287,71,3847.65625,60544,-6.305352947,-683
5.991470077,649,1.033967101,112,3851.5625,60672,-6.333048494,-686
5.991470077,649,0.886257515,96,3855.46875,60800,-6.36997589,-690
5.973006378,647,-0.5262154,-57,3859.375,60928,-6.406903287,-694
5.973006378,647,-0.295419172,-32,3863.28125,61056,-6.36997589,-690
6.028397473,653,1.135517441,123,3867.1875,61184,-6.259193701,-678
6.000701926,650,-0.120014039,-13,3871.09375,61312,-6.342280343,-687
5.982238227,648,-0.31388287,-34,3875,61440,-6.333048494,-686
5.95454268,645,0.895489364,97,3878.90625,61568,-6.416135136,-695
5.982238227,648,0.886257515,96,3882.8125,61696,-6.36997589,-690
5.973006378,647,-0.092318491,-10,3886.71875,61824,-6.314584796,-684
5.991470077,649,1.04319895,113,3890.625,61952,-6.286889248,-681
6.009933775,651,-0.120014039,-13,3894.53125,62080,-6.333048494,-686
5.963774529,646,0.94164861,102,3898.4375,62208,-6.434598834,-697
6.046861171,655,0.886257515,96,3902.34375,62336,-6.333048494,-686
6.074556719,658,-0.009231849,-1,3906.25,62464,-6.296121097,-682
6.074556719,658,-0.009231849,-1,3910.15625,62592,-6.286889248,-681
6.06532487,657,1.15398114,125,3914.0625,62720,-6.305352947,-683
6.009933775,651,-0.276955473,-30,3917.96875,62848,-6.406903287,-694
6.083788568,659,-0.304651021,-33,3921.875,62976,-6.305352947,-683
6.093020417,660,1.033967101,112,3925.78125,63104,-6.323816645,-685
6.139179662,665,-0.009231849,-1,3929.6875,63232,-6.249961852,-677
6.083788568,659,1.052430799,114,3933.59375,63360,-6.333048494,-686
6.083788568,659,1.163212989,126,3937.5,63488,-6.333048494,-686
6.046861171,655,0.94164861,102,3941.40625,63616,-6.351512192,-688
6.06532487,657,1.135517441,123,3945.3125,63744,-6.286889248,-681
6.06532487,657,-0.009231849,-1,3949.21875,63872,-6.240730003,-676
6.028397473,653,-0.036927396,-4,3953.125,64000,-6.314584796,-684
6.019165624,652,-0.230796228,-25,3957.03125,64128,-6.360744041,-689
6.009933775,651,-0.41543321,-45,3960.9375,64256,-6.323816645,-685
6.000701926,650,-0.138477737,-15,3964.84375,64384,-6.323816645,-685
6.05609302,656,-0.31388287,-34,3968.75,64512,-6.240730003,-676
5.963774529,646,-0.332346568,-36,3972.65625,64640,-6.351512192,-688
5.963774529,646,-0.240028077,-26,3976.5625,64768,-6.36997589,-690
5.936078982,643,-0.295419172,-32,3980.46875,64896,-6.388439589,-692
5.926847133,642,0.886257515,96,3984.375,65024,-6.397671438,-693
5.973006378,647,-0.304651021,-33,3988.28125,65152,-6.305352947,-683
5.926847133,642,-0.009231849,-1,3992.1875,65280,-6.379207739,-691
5.926847133,642,-0.046159246,-5,3996.09375,65408,-6.397671438,-693
5.908383435,640,-0.267723624,-29,4000,0,-6.406903287,-694
5.95454268,645,0.710852382,77,4003.90625,128,-6.379207739,-691
6.019165624,652,-0.073854793,-8,4007.8125,256,-6.249961852,-677
5.945310831,644,1.107821894,120,4011.71875,384,-6.342280343,-687
5.973006378,647,1.126285592,122,4015.625,512,-6.333048494,-686
5.908383435,640,0.600070193,65,4019.53125,640,-6.406903287,-694
5.908383435,640,1.14474929,124,4023.4375,768,-6.379207739,-691
5.936078982,643,-0.120014039,-13,4027.34375,896,-6.333048494,-686
5.991470077,649,-0.018463698,-2,4031.25,1024,-6.277657399,-680
5.917615284,641,0.600070193,65,4035.15625,1152,-6.397671438,-693
5.889919736,638,-0.156941435,-17,4039.0625,1280,-6.379207739,-691
5.936078982,643,1.15398114,125,4042.96875,1408,-6.342280343,-687
5.936078982,643,1.126285592,122,4046.875,1536,-6.333048494,-686
6.000701926,650,1.172444838,127,4050.78125,1664,-6.305352947,-683
5.95454268,645,1.015503403,110,4054.6875,1792,-6.388439589,-692
5.899151585,639,0.572374645,62,4058.59375,1920,-6.499221778,-704
5.926847133,642,-0.452360607,-49,4062.5,2048,-6.36997589,-690
6.009933775,651,-0.018463698,-2,4066.40625,2176,-6.296121097,-682
6.102252266,661,-0.009231849,-1,4070.3125,2304,-6.222266305,-674
6.249961852,677,-0.166173284,-18,4074.21875,2432,-6.093020417,-660
6.36997589,690,1.107821894,120,4078.125,2560,-5.982238227,-648
6.489989929,703,3.609653005,391,4082.03125,2688,-5.843760491,-633
6.277657399,680,-1.172444838,-127,4085.9375,2816,-5.788369396,-627
6.148411512,666,-0.073854793,-8,4089.84375,2944,-6.05609302,-656
6.111484115,662,-0.018463698,-2,4093.75,3072,-6.240730003,-676
5.899151585,639,0.94164861,102,4097.65625,3200,-6.526917325,-707
5.880687887,637,0,0,4101.5625,3328,-6.563844722,-711
5.788369396,627,-0.590838343,-64,4105.46875,3456,-6.499221778,-704
5.788369396,627,0.821634571,89,4109.375,3584,-6.342280343,-687
5.732978301,621,-0.480056154,-52,4113.28125,3712,-6.425366985,-696
5.677587207,615,0.138477737,15,4117.1875,3840,-6.526917325,-707
5.825296793,631,-0.516983551,-56,4121.09375,3968,-6.397671438,-693
5.862224189,635,-0.156941435,-17,4125,4096,-6.379207739,-691
5.963774529,646,-0.046159246,-5,4128.90625,4224,-6.259193701,-678
5.95454268,645,-0.147709586,-16,4132.8125,4352,-6.314584796,-684
5.889919736,638,1.15398114,125,4136.71875,4480,-6.416135136,-695
5.936078982,643,-0.563142796,-61,4140.625,4608,-6.397671438,-693
5.982238227,648,1.033967101,112,4144.53125,4736,-6.314584796,-684
6.028397473,653,1.172444838,127,4148.4375,4864,-6.259193701,-678
5.936078982,643,-0.138477737,-15,4152.34375,4992,-6.342280343,-687
5.963774529,646,0.757011628,82,4156.25,5120,-6.333048494,-686
5.973006378,647,-0.184636982,-20,4160.15625,5248,-6.379207739,-691
5.982238227,648,1.126285592,122,4164.0625,5376,-6.333048494,-686
6.06532487,657,1.14474929,124,4167.96875,5504,-6.203802606,-672
5.973006378,647,-2.363353374,-256,4171.875,5632,-6.314584796,-684
5.973006378,647,-0.009231849,-1,4175.78125,5760,-6.360744041,-689
6.000701926,650,1.052430799,114,4179.6875,5888,-6.333048494,-686
5.991470077,649,-0.147709586,-16,4183.59375,6016,-6.314584796,-684
6.06532487,657,-0.009231849,-1,4187.5,6144,-6.213034455,-673
6.028397473,653,-0.009231849,-1,4191.40625,6272,-6.277657399,-680
5.991470077,649,-0.129245888,-14,4195.3125,6400,-6.333048494,-686
5.991470077,649,-0.009231849,-1,4199.21875,6528,-6.360744041,-689
6.028397473,653,-0.147709586,-16,4203.125,6656,-6.305352947,-683
6.093020417,660,-0.147709586,-16,4207.03125,6784,-6.176107059,-669
6.05609302,656,0.867793817,94,4210.9375,6912,-6.240730003,-676
6.028397473,653,0.867793817,94,4214.84375,7040,-6.286889248,-681
5.982238227,648,-0.535447249,-58,4218.75,7168,-6.388439589,-692
6.05609302,656,-0.147709586,-16,4222.65625,7296,-6.296121097,-682
6.06532487,657,-0.009231849,-1,4226.5625,7424,-6.222266305,-674
6.037629322,654,0.877025666,95,4230.46875,7552,-6.26842555,-679
6.028397473,653,1.061662648,115,4234.375,7680,-6.296121097,-682
0.018463698,2,9.444181646,1023,4238.28125,7808,179.5871609,19453
0,0,5.612964263,608,4242.1875,7936,-260.2365947,-28189
-6.16687521,-668,0,0,4250,8192,-302.5092318,-32768
6.102252266,661,2.344889676,254,4253.90625,8320,-6.222266305,-674
6.093020417,660,0.877025666,95,4261.71875,8576,-6.231498154,-675
6.129947813,664,1.135517441,123,4265.625,8704,-6.194570757,-671
6.102252266,661,-0.230796228,-25,4269.53125,8832,-6.203802606,-672
6.148411512,666,-0.295419172,-32,4273.4375,8960,-6.194570757,-671
6.129947813,664,1.033967101,112,4277.34375,9088,-6.231498154,-675
6.139179662,665,1.172444838,127,4281.25,9216,-6.213034455,-673
6.16687521,668,1.052430799,114,4285.15625,9344,-6.157643361,-667
6.194570757,671,1.135517441,123,4289.0625,9472,-6.148411512,-666
6.185338908,670,-0.230796228,-25,4292.96875,9600,-6.157643361,-667
6.148411512,666,0.895489364,97,4296.875,9728,-6.231498154,-675
6.139179662,665,0.877025666,95,4300.78125,9856,-6.249961852,-677
6.16687521,668,1.163212989,126,4304.6875,9984,-6.203802606,-672
6.213034455,673,0.969344157,105,4308.59375,10112,-6.139179662,-665
6.176107059,669,1.172444838,127,4312.5,10240,-6.185338908,-670
6.074556719,658,-0.369273965,-40,4316.40625,10368,-6.351512192,-688
6.129947813,664,1.033967101,112,4320.3125,10496,-6.296121097,-682
6.139179662,665,1.172444838,127,4324.21875,10624,-6.249961852,-677
6.139179662,665,0.886257515,96,4328.125,10752,-6.222266305,-674
6.074556719,658,-0.009231849,-1,4332.03125,10880,-6.360744041,-689
6.05609302,656,-0.258491775,-28,4335.9375,11008,-6.416135136,-695
6.046861171,655,-0.009231849,-1,4339.84375,11136,-6.36997589,-690
6.046861171,655,-0.018463698,-2,4343.75,11264,-6.379207739,-691
6.074556719,658,-0.147709586,-16,4347.65625,11392,-6.296121097,-682
6.046861171,655,1.107821894,120,4351.5625,11520,-6.342280343,-687
5.95454268,645,0.950880459,103,4355.46875,11648,-6.471526231,-701
5.973006378,647,-0.590838343,-64,4359.375,11776,-6.443830683,-698
5.982238227,648,0.895489364,97,4363.28125,11904,-6.406903287,-694
6.074556719,658,-0.064622944,-7,4367.1875,12032,-6.314584796,-684
5.917615284,641,0.913953063,99,4371.09375,12160,-6.471526231,-701
5.936078982,643,-0.590838343,-64,4375,12288,-6.462294382,-700
5.973006378,647,-0.009231849,-1,4378.90625,12416,-6.471526231,-701
5.908383435,640,1.033967101,112,4382.8125,12544,-6.517685476,-706
5.991470077,649,-0.156941435,-17,4386.71875,12672,-6.406903287,-694
5.945310831,644,0.913953063,99,4390.625,12800,-6.462294382,-700
5.936078982,643,0.600070193,65,4394.53125,12928,-6.508453627,-705
5.917615284,641,-0.073854793,-8,4398.4375,13056,-6.545381024,-709
5.945310831,644,-0.018463698,-2,4402.34375,13184,-6.517685476,-706
5.982238227,648,-0.5262154,-57,4406.25,13312,-6.443830683,-698
5.963774529,646,-0.535447249,-58,4410.15625,13440,-6.462294382,-700
5.945310831,644,0.286187323,31,4414.0625,13568,-6.508453627,-705
5.917615284,641,0.286187323,31,4417.96875,13696,-6.554612873,-710
5.926847133,642,0.600070193,65,4421.875,13824,-6.48075808,-702
5.973006378,647,-0.276955473,-30,4425.78125,13952,-6.425366985,-696
5.95454268,645,-0.452360607,-49,4429.6875,14080,-6.453062532,-699
5.945310831,644,-0.563142796,-61,4433.59375,14208,-6.462294382,-700
5.908383435,640,-0.009231849,-1,4437.5,14336,-6.58230842,-713
5.945310831,644,-0.581606494,-63,4441.40625,14464,-6.48075808,-702
5.963774529,646,0.886257515,96,4445.3125,14592,-6.453062532,-699
5.991470077,649,1.015503403,110,4449.21875,14720,-6.406903287,-694
5.963774529,646,-0.240028077,-26,4453.125,14848,-6.443830683,-698
5.899151585,639,-0.009231849,-1,4457.03125,14976,-6.554612873,-710
6.009933775,651,-0.5262154,-57,4460.9375,15104,-6.416135136,-695
5.917615284,641,-0.295419172,-32,4464.84375,15232,-6.471526231,-701
5.95454268,645,-0.156941435,-17,4468.75,15360,-6.425366985,-696
5.991470077,649,0.886257515,96,4472.65625,15488,-6.406903287,-694
5.899151585,639,0.581606494,63,4476.5625,15616,-6.554612873,-710
5.963774529,646,-0.581606494,-63,4480.46875,15744,-6.443830683,-698
5.963774529,646,0.886257515,96,4484.375,15872,-6.453062532,-699
6.019165624,652,-0.147709586,-16,4488.28125,16000,-6.333048494,-686
5.963774529,646,-0.5262154,-57,4492.1875,16128,-6.434598834,-697
5.95454268,645,-0.563142796,-61,4496.09375,16256,-6.489989929,-703
5.945310831,644,-0.590838343,-64,4500,16384,-6.462294382,-700
5.95454268,645,-0.147709586,-16,4503.90625,16512,-6.453062532,-699
6.000701926,650,1.033967101,112,4507.8125,16640,-6.342280343,-687
5.95454268,645,-0.230796228,-25,4511.71875,16768,-6.434598834,-697
5.945310831,644,-0.295419172,-32,4515.625,16896,-6.471526231,-701
5.936078982,643,-0.009231849,-1,4519.53125,17024,-6.489989929,-703
5.973006378,647,1.107821894,120,4523.4375,17152,-6.425366985,-696
5.982238227,648,0.72931608,79,4527.34375,17280,-6.360744041,-689
5.982238227,648,0.72931608,79,4531.25,17408,-6.397671438,-693
5.936078982,643,0.590838343,64,4535.15625,17536,-6.471526231,-701
5.917615284,641,0.276955473,30,4539.0625,17664,-6.517685476,-706
5.963774529,646,0.932416761,101,4542.96875,17792,-6.499221778,-704
6.05609302,656,1.070894498,116,4546.875,17920,-6.277657399,-680
5.973006378,647,1.024735252,111,4550.78125,18048,-6.462294382,-700
5.917615284,641,0.886257515,96,4554.6875,18176,-6.471526231,-701
5.926847133,642,0.286187323,31,4558.59375,18304,-6.508453627,-705
5.95454268,645,1.033967101,112,4562.5,18432,-6.443830683,-698
6.000701926,650,-0.240028077,-26,4566.40625,18560,-6.388439589,-692
5.945310831,644,0.886257515,96,4570.3125,18688,-6.425366985,-696
5.973006378,647,-0.581606494,-63,4574.21875,18816,-6.443830683,-698
5.917615284,641,-0.064622944,-7,4578.125,18944,-6.554612873,-710
5.945310831,644,-0.295419172,-32,4582.03125,19072,-6.508453627,-705
6.019165624,652,-0.073854793,-8,4585.9375,19200,-6.351512192,-688
5.945310831,644,-0.230796228,-25,4589.84375,19328,-6.462294382,-700
5.945310831,644,-0.295419172,-32,4593.75,19456,-6.471526231,-701
5.871456038,636,-0.064622944,-7,4597.65625,19584,-6.563844722,-711
5.982238227,648,0.609302042,66,4601.5625,19712,-6.406903287,-694
6.009933775,651,0.72931608,79,4605.46875,19840,-6.397671438,-693
6.000701926,650,-0.156941435,-17,4609.375,19968,-6.379207739,-691
5.973006378,647,-0.563142796,-61,4613.28125,20096,-6.443830683,-698
5.889919736,638,0.286187323,31,4617.1875,20224,-6.545381024,-709
5.991470077,649,0.94164861,102,4621.09375,20352,-6.416135136,-695
5.95454268,645,-0.5262154,-57,4625,20480,-6.388439589,-692
6.000701926,650,-0.230796228,-25,4628.90625,20608,-6.406903287,-694
5.973006378,647,0.895489364,97,4632.8125,20736,-6.443830683,-698
5.991470077,649,-0.295419172,-32,4636.71875,20864,-6.499221778,-704
6.037629322,654,-0.507751701,-55,4640.625,20992,-6.416135136,-695
6.046861171,655,-0.21233253,-23,4644.53125,21120,-6.397671438,-693
6.083788568,659,-0.138477737,-15,4648.4375,21248,-6.342280343,-687
6.111484115,662,1.033967101,112,4652.34375,21376,-6.342280343,-687
6.05609302,656,0.886257515,96,4656.25,21504,-6.462294382,-700
6.148411512,666,0.655461287,71,4660.15625,21632,-6.351512192,-688
6.102252266,661,-0.018463698,-2,4664.0625,21760,-6.36997589,-690
6.176107059,669,-0.036927396,-4,4667.96875,21888,-6.259193701,-678
6.111484115,662,0.877025666,95,4671.875,22016,-6.333048494,-686
6.102252266,661,0.72931608,79,4675.78125,22144,-6.360744041,-689
6.037629322,654,-0.516983551,-56,4679.6875,22272,-6.406903287,-694
6.074556719,658,-0.120014039,-13,4683.59375,22400,-6.323816645,-685
6.093020417,660,1.107821894,120,4687.5,22528,-6.277657399,-680
6.046861171,655,0.849330119,92,4691.40625,22656,-6.351512192,-688
6.019165624,652,-0.138477737,-15,4695.3125,22784,-6.36997589,-690
6.000701926,650,0.692388684,75,4699.21875,22912,-6.406903287,-694
5.982238227,648,0.997039705,108,4703.125,23040,-6.406903287,-694
5.991470077,649,-0.5262154,-57,4707.03125,23168,-6.36997589,-690
5.936078982,643,-0.064622944,-7,4710.9375,23296,-6.416135136,-695
5.95454268,645,0.886257515,96,4714.84375,23424,-6.416135136,-695
5.945310831,644,0.886257515,96,4718.75,23552,-6.425366985,-696
5.917615284,641,-0.276955473,-30,4722.65625,23680,-6.443830683,-698
6.019165624,652,-0.018463698,-2,4726.5625,23808,-6.296121097,-682
5.945310831,644,-0.563142796,-61,4730.46875,23936,-6.434598834,-697
5.880687887,637,-0.138477737,-15,4734.375,24064,-6.526917325,-707
5.936078982,643,0.895489364,97,4738.28125,24192,-6.471526231,-701
5.945310831,644,0.960112308,104,4742.1875,24320,-6.425366985,-696
5.982238227,648,0.94164861,102,4746.09375,24448,-6.360744041,-689
5.982238227,648,-0.31388287,-34,4750,24576,-6.333048494,-686
5.926847133,642,0.886257515,96,4753.90625,24704,-6.443830683,-698
5.843760491,633,0.286187323,31,4757.8125,24832,-6.545381024,-709
5.945310831,644,-0.156941435,-17,4761.71875,24960,-6.397671438,-693
5.973006378,647,0.877025666,95,4765.625,25088,-6.351512192,-688
5.945310831,644,1.024735252,111,4769.53125,25216,-6.397671438,-693
5.926847133,642,0.886257515,96,4773.4375,25344,-6.443830683,-698
5.917615284,641,-0.046159246,-5,4777.34375,25472,-6.526917325,-707
5.95454268,645,0.581606494,63,4781.25,25600,-6.499221778,-704
6.009933775,651,-0.590838343,-64,4785.15625,25728,-6.443830683,-698
5.982238227,648,-0.009231849,-1,4789.0625,25856,-6.526917325,-707
5.936078982,643,0.258491775,28,4792.96875,25984,-6.536149174,-708
5.889919736,638,0.138477737,15,4796.875,26112,-6.656163213,-721
6.06532487,657,-0.590838343,-64,4800.78125,26240,-6.462294382,-700
6.240730003,676,-0.009231849,-1,4804.6875,26368,-6.26842555,-679
6.425366985,696,-0.147709586,-16,4808.59375,26496,-6.037629322,-654
6.443830683,698,1.117053743,121,4812.5,26624,-6.046861171,-655
6.213034455,673,-0.184636982,-20,4816.40625,26752,-6.102252266,-661
6.139179662,665,-0.036927396,-4,4820.3125,26880,-6.259193701,-678
6.148411512,666,1.107821894,120,4824.21875,27008,-6.416135136,-695
6.028397473,653,-0.120014039,-13,4828.125,27136,-6.628467666,-718
5.95454268,645,0,0,4832.03125,27264,-6.776177252,-734
5.788369396,627,-0.369273965,-40,4835.9375,27392,-6.923886837,-750
5.705282754,618,0.083086642,9,4839.84375,27520,-6.859263894,-743
5.760673849,624,-0.323114719,-35,4843.75,27648,-6.822336497,-739
5.779137547,626,0.110782189,12,4847.65625,27776,-6.720786157,-728
5.862224189,635,-0.295419172,-32,4851.5625,27904,-6.776177252,-734
5.862224189,635,-0.286187323,-31,4855.46875,28032,-6.831568346,-740
5.936078982,643,0.138477737,15,4859.375,28160,-6.785409101,-735
5.963774529,646,0,0,4863.28125,28288,-6.79464095,-736
6.019165624,652,-0.009231849,-1,4867.1875,28416,-6.674626911,-723
5.973006378,647,-0.452360607,-49,4871.09375,28544,-6.803872799,-737
5.991470077,649,-0.895489364,-97,4875,28672,-6.840800195,-741
5.963774529,646,0.276955473,30,4878.90625,28800,-6.850032044,-742
5.982238227,648,-0.332346568,-36,4882.8125,28928,-6.822336497,-739
6.046861171,655,-0.138477737,-15,4886.71875,29056,-6.730018006,-729
5.991470077,649,0.258491775,28,4890.625,29184,-6.831568346,-740
5.973006378,647,0.10155034,11,4894.53125,29312,-6.886959441,-746
6.000701926,650,-0.590838343,-64,4898.4375,29440,-6.850032044,-742
6.019165624,652,-0.304651021,-33,4902.34375,29568,-6.803872799,-737
6.046861171,655,-0.009231849,-1,4906.25,29696,-6.730018006,-729
6.037629322,654,0,0,4910.15625,29824,-6.776177252,-734
6.000701926,650,0.138477737,15,4914.0625,29952,-6.840800195,-741
5.991470077,649,0.286187323,31,4917.96875,30080,-6.859263894,-743
6.019165624,652,0,0,4921.875,30208,-6.79464095,-736
6.093020417,660,0.360042116,39,4925.78125,30336,-6.674626911,-723
6.05609302,656,0.304651021,33,4929.6875,30464,-6.748481704,-731
6.074556719,658,0.027695547,3,4933.59375,30592,-6.776177252,-734
6.05609302,656,0.258491775,28,4937.5,30720,-6.776177252,-734
6.093020417,660,-0.295419172,-32,4941.40625,30848,-6.711554308,-727
6.074556719,658,-0.064622944,-7,4945.3125,30976,-6.693090609,-725
6.139179662,665,-0.009231849,-1,4949.21875,31104,-6.637699515,-719
6.083788568,659,0.581606494,63,4953.125,31232,-6.711554308,-727
6.037629322,654,0,0,4957.03125,31360,-6.785409101,-735
6.083788568,659,0.5262154,57,4960.9375,31488,-6.711554308,-727
6.157643361,667,-0.073854793,-8,4964.84375,31616,-6.573076571,-712
6.148411512,666,-0.120014039,-13,4968.75,31744,-6.628467666,-718
6.120715964,663,0.286187323,31,4972.65625,31872,-6.665395062,-722
6.083788568,659,-0.147709586,-16,4976.5625,32000,-6.739249855,-730
6.16687521,668,0.147709586,16,4980.46875,32128,-6.628467666,-718
6.148411512,666,-0.064622944,-7,4984.375,32256,-6.619235817,-717
6.157643361,667,-0.018463698,-2,4988.28125,32384,-6.646931364,-720
6.194570757,671,-0.009231849,-1,4992.1875,32512,-6.58230842,-713
6.157643361,667,-0.009231849,-1,4996.09375,32640,-6.693090609,-725
6.213034455,673,0.230796228,25,5000,32768,-6.545381024,-709
6.176107059,669,-0.073854793,-8,5003.90625,32896,-6.573076571,-712
6.222266305,674,0.286187323,31,5007.8125,33024,-6.536149174,-708
6.203802606,672,-0.073854793,-8,5011.71875,33152,-6.563844722,-711
6.194570757,671,-0.147709586,-16,5015.625,33280,-6.610003967,-716
6.240730003,676,0.516983551,56,5019.53125,33408,-6.563844722,-711
6.231498154,675,0.581606494,63,5023.4375,33536,-6.554612873,-710
6.259193701,678,-0.286187323,-31,5027.34375,33664,-6.489989929,-703
6.240730003,676,0.516983551,56,5031.25,33792,-6.554612873,-710
6.194570757,671,0.286187323,31,5035.15625,33920,-6.637699515,-719
6.222266305,674,-0.009231849,-1,5039.0625,34048,-6.58230842,-713
6.213034455,673,-0.036927396,-4,5042.96875,34176,-6.610003967,-716
6.26842555,679,-0.018463698,-2,5046.875,34304,-6.517685476,-706
6.249961852,677,-0.036927396,-4,5050.78125,34432,-6.536149174,-708
6.185338908,670,-0.110782189,-12,5054.6875,34560,-6.656163213,-721
6.148411512,666,0.036927396,4,5058.59375,34688,-6.674626911,-723
6.139179662,665,0.064622944,7,5062.5,34816,-6.68385876,-724
6.157643361,667,-0.092318491,-10,5066.40625,34944,-6.591540269,-714
6.102252266,661,-0.073854793,-8,5070.3125,35072,-6.646931364,-720
6.083788568,659,-0.21233253,-23,5074.21875,35200,-6.711554308,-727
6.074556719,658,0,0,5078.125,35328,-6.730018006,-729
-6.58230842,-713,0,0,5085.9375,35584,-302.5092318,-32768
-6.702322459,-726,0,0,5093.75,35840,-302.5092318,-32768
6.009933775,651,1.77251503,192,5097.65625,35968,-6.766945402,-733
6.028397473,653,-0.295419172,-32,5101.5625,36096,-6.720786157,-728
6.05609302,656,-0.009231849,-1,5105.46875,36224,-6.619235817,-717
6.019165624,652,0.129245888,14,5109.375,36352,-6.693090609,-725
6.019165624,652,-0.027695547,-3,5113.28125,36480,-6.693090609,-725
5.991470077,649,0,0,5117.1875,36608,-6.757713553,-732
6.019165624,652,0.064622944,7,5121.09375,36736,-6.720786157,-728
6.06532487,657,0.258491775,28,5125,36864,-6.600772118,-715
6.046861171,655,0.295419172,32,5128.90625,36992,-6.665395062,-722
6.000701926,650,0.138477737,15,5132.8125,37120,-6.702322459,-726
5.991470077,649,-0.147709586,-16,5136.71875,37248,-6.785409101,-735
6.000701926,650,-0.036927396,-4,5140.625,37376,-6.711554308,-727
6.05609302,656,0.073854793,8,5144.53125,37504,-6.646931364,-720
6.06532487,657,0.286187323,31,5148.4375,37632,-6.619235817,-717
6.019165624,652,0.138477737,15,5152.34375,37760,-6.656163213,-721
6.000701926,650,-0.147709586,-16,5156.25,37888,-6.748481704,-731
6.019165624,652,0.138477737,15,5160.15625,38016,-6.674626911,-723
6.037629322,654,-0.018463698,-2,5164.0625,38144,-6.610003967,-716
6.083788568,659,0.452360607,49,5167.96875,38272,-6.600772118,-715
6.028397473,653,0.129245888,14,5171.875,38400,-6.693090609,-725
6.000701926,650,0.110782189,12,5175.78125,38528,-6.711554308,-727
6.019165624,652,-0.009231849,-1,5179.6875,38656,-6.68385876,-724
6.05609302,656,-0.009231849,-1,5183.59375,38784,-6.610003967,-716
6.05609302,656,-0.036927396,-4,5187.5,38912,-6.591540269,-714
6.019165624,652,-0.147709586,-16,5191.40625,39040,-6.619235817,-717
5.991470077,649,-0.064622944,-7,5195.3125,39168,-6.730018006,-729
6.037629322,654,0.138477737,15,5199.21875,39296,-6.637699515,-719
6.009933775,651,-0.036927396,-4,5203.125,39424,-6.656163213,-721
6.046861171,655,-0.009231849,-1,5207.03125,39552,-6.591540269,-714
6.074556719,658,-0.147709586,-16,5210.9375,39680,-6.610003967,-716
5.991470077,649,0.221564379,24,5214.84375,39808,-6.702322459,-726
6.028397473,653,-0.21233253,-23,5218.75,39936,-6.674626911,-723
6.028397473,653,0.286187323,31,5222.65625,40064,-6.646931364,-720
6.093020417,660,0.572374645,62,5226.5625,40192,-6.545381024,-709
6.037629322,654,-0.286187323,-31,5230.46875,40320,-6.637699515,-719
5.982238227,648,0.138477737,15,5234.375,40448,-6.730018006,-729
6.046861171,655,0.036927396,4,5238.28125,40576,-6.646931364,-720
6.019165624,652,0.360042116,39,5242.1875,40704,-6.646931364,-720
6.102252266,661,0.258491775,28,5246.09375,40832,-6.536149174,-708
6.028397473,653,0.147709586,16,5250,40960,-6.646931364,-720
6.019165624,652,-0.147709586,-16,5253.90625,41088,-6.656163213,-721
5.982238227,648,0.027695547,3,5257.8125,41216,-6.702322459,-726
6.019165624,652,0.323114719,35,5261.71875,41344,-6.665395062,-722
6.074556719,658,0.276955473,30,5265.625,41472,-6.536149174,-708
6.046861171,655,-0.10155034,-11,5269.53125,41600,-6.600772118,-715
6.028397473,653,-0.036927396,-4,5273.4375,41728,-6.656163213,-721
5.991470077,649,0.064622944,7,5277.34375,41856,-6.693090609,-725
5.982238227,648,0.295419172,32,5281.25,41984,-6.68385876,-724
6.05609302,656,-0.027695547,-3,5285.15625,42112,-6.563844722,-711
6.05609302,656,-0.018463698,-2,5289.0625,42240,-6.591540269,-714
5.982238227,648,-0.073854793,-8,5292.96875,42368,-6.665395062,-722
6.000701926,650,0.369273965,40,5296.875,42496,-6.693090609,-725
6.046861171,655,0.360042116,39,5300.78125,42624,-6.646931364,-720
6.074556719,658,0.572374645,62,5304.6875,42752,-6.508453627,-705
6.019165624,652,0.553910947,60,5308.59375,42880,-6.628467666,-718
5.982238227,648,-0.138477737,-15,5312.5,43008,-6.674626911,-723
5.973006378,647,-0.018463698,-2,5316.40625,43136,-6.730018006,-729
6.028397473,653,0.470824305,51,5320.3125,43264,-6.628467666,-718
6.037629322,654,-0.120014039,-13,5324.21875,43392,-6.619235817,-717
6.028397473,653,-0.009231849,-1,5328.125,43520,-6.591540269,-714
6.037629322,654,-0.046159246,-5,5332.03125,43648,-6.619235817,-717
5.991470077,649,0.138477737,15,5335.9375,43776,-6.68385876,-724
5.982238227,648,0.138477737,15,5339.84375,43904,-6.646931364,-720
6.05609302,656,0.258491775,28,5343.75,44032,-6.554612873,-710
6.037629322,654,-0.055391095,-6,5347.65625,44160,-6.591540269,-714
6.009933775,651,-0.138477737,-15,5351.5625,44288,-6.619235817,-717
5.963774529,646,0,0,5355.46875,44416,-6.711554308,-727
6.028397473,653,-0.009231849,-1,5359.375,44544,-6.600772118,-715
6.037629322,654,0.470824305,51,5363.28125,44672,-6.619235817,-717
6.009933775,651,-0.009231849,-1,5367.1875,44800,-6.600772118,-715
6.019165624,652,0.147709586,16,5371.09375,44928,-6.591540269,-714
5.991470077,649,0.110782189,12,5375,45056,-6.693090609,-725
6.019165624,652,0.027695547,3,5378.90625,45184,-6.619235817,-717
6.05609302,656,-0.147709586,-16,5382.8125,45312,-6.610003967,-716
6.120715964,663,0.286187323,31,5386.71875,45440,-6.526917325,-707
6.093020417,660,0.276955473,30,5390.625,45568,-6.58230842,-713
6.074556719,658,0.443128758,48,5394.53125,45696,-6.656163213,-721
6.102252266,661,-0.009231849,-1,5398.4375,45824,-6.58230842,-713
6.129947813,664,0.516983551,56,5402.34375,45952,-6.573076571,-712
6.240730003,676,-0.073854793,-8,5406.25,46080,-6.425366985,-696
6.231498154,675,-0.563142796,-61,5410.15625,46208,-6.48075808,-702
6.157643361,667,0.249259926,27,5414.0625,46336,-6.591540269,-714
6.148411512,666,0.055391095,6,5417.96875,46464,-6.573076571,-712
6.129947813,664,0.581606494,63,5421.875,46592,-6.545381024,-709
6.157643361,667,-0.258491775,-28,5425.78125,46720,-6.462294382,-700
6.093020417,660,-0.009231849,-1,5429.6875,46848,-6.563844722,-711
6.102252266,661,-0.027695547,-3,5433.59375,46976,-6.563844722,-711
6.074556719,658,-0.018463698,-2,5437.5,47104,-6.610003967,-716
6.05609302,656,-0.083086642,-9,5441.40625,47232,-6.58230842,-713
6.120715964,663,0.923184912,100,5445.3125,47360,-6.462294382,-700
6.120715964,663,0.581606494,63,5449.21875,47488,-6.517685476,-706
6.028397473,653,-0.073854793,-8,5453.125,47616,-6.600772118,-715
5.991470077,649,0.295419172,32,5457.03125,47744,-6.665395062,-722
6.028397473,653,-0.092318491,-10,5460.9375,47872,-6.600772118,-715
6.074556719,658,-0.295419172,-32,5464.84375,48000,-6.471526231,-701
6.000701926,650,0.498519852,54,5468.75,48128,-6.628467666,-718
6.000701926,650,-0.009231849,-1,5472.65625,48256,-6.619235817,-717
5.982238227,648,-0.009231849,-1,5476.5625,48384,-6.628467666,-718
5.982238227,648,-0.120014039,-13,5480.46875,48512,-6.628467666,-718
6.019165624,652,0.516983551,56,5484.375,48640,-6.563844722,-711
6.000701926,650,0.286187323,31,5488.28125,48768,-6.58230842,-713
5.973006378,647,-0.092318491,-10,5492.1875,48896,-6.628467666,-718
5.991470077,649,-0.009231849,-1,5496.09375,49024,-6.646931364,-720
5.991470077,649,-0.046159246,-5,5500,49152,-6.610003967,-716
6.074556719,658,-0.018463698,-2,5503.90625,49280,-6.48075808,-702
5.973006378,647,-0.018463698,-2,5507.8125,49408,-6.610003967,-716
5.991470077,649,-0.073854793,-8,5511.71875,49536,-6.573076571,-712
5.936078982,643,-0.295419172,-32,5515.625,49664,-6.702322459,-726
5.982238227,648,-0.036927396,-4,5519.53125,49792,-6.610003967,-716
6.019165624,652,0.286187323,31,5523.4375,49920,-6.545381024,-709
6.019165624,652,0.507751701,55,5527.34375,50048,-6.58230842,-713
6.000701926,650,-0.046159246,-5,5531.25,50176,-6.628467666,-718
5.991470077,649,-0.027695547,-3,5535.15625,50304,-6.711554308,-727
5.963774529,646,-0.009231849,-1,5539.0625,50432,-6.702322459,-726
6.037629322,654,-0.138477737,-15,5542.96875,50560,-6.545381024,-709
6.093020417,660,0.581606494,63,5546.875,50688,-6.499221778,-704
6.148411512,666,0.886257515,96,5550.78125,50816,-6.48075808,-702
6.249961852,677,-0.046159246,-5,5554.6875,50944,-6.397671438,-693
6.453062532,699,1.135517441,123,5558.59375,51072,-6.102252266,-661
6.517685476,706,-0.009231849,-1,5562.5,51200,-6.009933775,-651
6.333048494,686,-2.224875637,-241,5566.40625,51328,-5.917615284,-641
6.203802606,672,-0.018463698,-2,5570.3125,51456,-6.249961852,-677
6.129947813,664,0.904721213,98,5574.21875,51584,-6.563844722,-711
6.046861171,655,0.276955473,30,5578.125,51712,-6.68385876,-724
5.973006378,647,-0.267723624,-29,5582.03125,51840,-6.720786157,-728
5.917615284,641,0.230796228,25,5585.9375,51968,-6.619235817,-717
5.816064943,630,0.295419172,32,5589.84375,52096,-6.68385876,-724
5.751442,623,-0.073854793,-8,5593.75,52224,-6.711554308,-727
5.825296793,631,-0.267723624,-29,5597.65625,52352,-6.656163213,-721
5.917615284,641,-0.083086642,-9,5601.5625,52480,-6.58230842,-713
6.009933775,651,-0.295419172,-32,5605.46875,52608,-6.499221778,-704
6.037629322,654,-0.018463698,-2,5609.375,52736,-6.536149174,-708
6.009933775,651,-0.073854793,-8,5613.28125,52864,-6.610003967,-716
6.028397473,653,-0.083086642,-9,5617.1875,52992,-6.58230842,-713
6.037629322,654,0.553910947,60,5621.09375,53120,-6.563844722,-711
6.074556719,658,-0.295419172,-32,5625,53248,-6.489989929,-703
6.06532487,657,-0.064622944,-7,5628.90625,53376,-6.545381024,-709
6.037629322,654,-0.073854793,-8,5632.8125,53504,-6.554612873,-710
6.028397473,653,-0.147709586,-16,5636.71875,53632,-6.591540269,-714
6.05609302,656,-0.073854793,-8,5640.625,53760,-6.554612873,-710
6.120715964,663,-0.258491775,-28,5644.53125,53888,-6.453062532,-699
6.074556719,658,0.572374645,62,5648.4375,54016,-6.536149174,-708
6.046861171,655,0.553910947,60,5652.34375,54144,-6.573076571,-712
6.102252266,661,-0.009231849,-1,5656.25,54272,-6.526917325,-707
6.102252266,661,-0.036927396,-4,5660.15625,54400,-6.526917325,-707
6.249961852,677,1.172444838,127,5804.6875,59136,-6.360744041,-689
6.157643361,667,0.913953063,99,5808.59375,59264,-6.471526231,-701
6.139179662,665,1.04319895,113,5812.5,59392,-6.536149174,-708
6.102252266,661,0.221564379,24,5816.40625,59520,-6.554612873,-710
6.120715964,663,0.581606494,63,5820.3125,59648,-6.517685476,-706
6.176107059,669,-2.335657826,-253,5824.21875,59776,-6.434598834,-697
6.074556719,658,-0.073854793,-8,5828.125,59904,-6.545381024,-709
6.093020417,660,-0.009231849,-1,5832.03125,60032,-6.536149174,-708
6.05609302,656,0.461592456,50,5835.9375,60160,-6.591540269,-714
6.06532487,657,0.286187323,31,5839.84375,60288,-6.545381024,-709
6.102252266,661,0.590838343,64,5843.75,60416,-6.48075808,-702
6.019165624,652,-0.129245888,-14,5847.65625,60544,-6.591540269,-714
6.05609302,656,0.249259926,27,5851.5625,60672,-6.545381024,-709
6.009933775,651,-0.018463698,-2,5855.46875,60800,-6.665395062,-722
6.009933775,651,-0.073854793,-8,5859.375,60928,-6.573076571,-712
6.06532487,657,-0.073854793,-8,5863.28125,61056,-6.489989929,-703
6.037629322,654,-0.064622944,-7,5867.1875,61184,-6.545381024,-709
6.046861171,655,0.5262154,57,5871.09375,61312,-6.545381024,-709
6.019165624,652,-0.046159246,-5,5875,61440,-6.619235817,-717
6.037629322,654,0.249259926,27,5878.90625,61568,-6.545381024,-709
6.111484115,662,0.609302042,66,5882.8125,61696,-6.443830683,-698
6.06532487,657,0.655461287,71,5886.71875,61824,-6.517685476,-706
6.009933775,651,-0.009231849,-1,5890.625,61952,-6.58230842,-713
6.009933775,651,0,0,5894.53125,62080,-6.619235817,-717
6.019165624,652,0.286187323,31,5898.4375,62208,-6.573076571,-712
6.019165624,652,0.258491775,28,5902.34375,62336,-6.554612873,-710
6.083788568,659,1.126285592,122,5906.25,62464,-6.48075808,-702
6.06532487,657,-0.009231849,-1,5910.15625,62592,-6.517685476,-706
6.009933775,651,0.147709586,16,5914.0625,62720,-6.628467666,-718
6.037629322,654,0.129245888,14,5917.96875,62848,-6.554612873,-710
0.018463698,2,2.335657826,253,5921.875,62976,-89.83512375,-9731
6.046861171,655,8.862575152,960,5937.5,63488,-6.554612873,-710
6.102252266,661,0.94164861,102,5945.3125,63744,-6.471526231,-701
6.05609302,656,-0.009231849,-1,5949.21875,63872,-6.517685476,-706
6.06532487,657,-0.009231849,-1,5953.125,64000,-6.563844722,-711
6.120715964,663,0.553910947,60,5957.03125,64128,-6.489989929,-703
6.102252266,661,0.581606494,63,5960.9375,64256,-6.499221778,-704
6.111484115,662,0.886257515,96,5964.84375,64384,-6.443830683,-698
6.083788568,659,-0.286187323,-31,5968.75,64512,-6.489989929,-703
6.06532487,657,-0.590838343,-64,5972.65625,64640,-6.536149174,-708
6.074556719,658,0.249259926,27,5976.5625,64768,-6.536149174,-708
6.083788568,659,-0.009231849,-1,5980.46875,64896,-6.499221778,-704
6.129947813,664,-0.516983551,-56,5984.375,65024,-6.416135136,-695
6.111484115,662,0.618533891,67,5988.28125,65152,-6.48075808,-702
6.139179662,665,0.590838343,64,5992.1875,65280,-6.48075808,-702
6.06532487,657,-0.046159246,-5,5996.09375,65408,-6.526917325,-707
6.083788568,659,1.033967101,112,6000,0,-6.499221778,-704
6.148411512,666,1.006271554,109,6003.90625,128,-6.416135136,-695
6.06532487,657,0.581606494,63,6007.8125,256,-6.508453627,-705
6.111484115,662,-0.267723624,-29,6011.71875,384,-6.499221778,-704
6.05609302,656,-0.138477737,-15,6015.625,512,-6.563844722,-711
6.093020417,660,-0.018463698,-2,6019.53125,640,-6.517685476,-706
6.093020417,660,-0.295419172,-32,6023.4375,768,-6.443830683,-698
6.102252266,661,-0.295419172,-32,6027.34375,896,-6.462294382,-700
6.074556719,658,-0.295419172,-32,6031.25,1024,-6.526917325,-707
6.037629322,654,0.286187323,31,6035.15625,1152,-6.573076571,-712
6.083788568,659,-0.590838343,-64,6039.0625,1280,-6.526917325,-707
6.102252266,661,0.600070193,65,6042.96875,1408,-6.489989929,-703
6.120715964,663,0.913953063,99,6046.875,1536,-6.48075808,-702
6.139179662,665,-0.286187323,-31,6050.78125,1664,-6.462294382,-700
6.05609302,656,0.581606494,63,6054.6875,1792,-6.591540269,-714
6.074556719,658,0.581606494,63,6058.59375,1920,-6.545381024,-709
6.129947813,664,0.590838343,64,6062.5,2048,-6.48075808,-702
6.111484115,662,-0.286187323,-31,6066.40625,2176,-6.517685476,-706
6.083788568,659,-0.064622944,-7,6070.3125,2304,-6.554612873,-710
6.046861171,655,-0.147709586,-16,6074.21875,2432,-6.628467666,-718
6.083788568,659,-0.055391095,-6,6078.125,2560,-6.563844722,-711
6.102252266,661,0.286187323,31,6082.03125,2688,-6.526917325,-707
6.120715964,663,0.886257515,96,6085.9375,2816,-6.499221778,-704
6.093020417,660,-0.036927396,-4,6089.84375,2944,-6.526917325,-707
6.05609302,656,0.507751701,55,6093.75,3072,-6.619235817,-717
6.093020417,660,-0.009231849,-1,6097.65625,3200,-6.58230842,-713
6.129947813,664,-0.018463698,-2,6101.5625,3328,-6.517685476,-706
6.148411512,666,-0.110782189,-12,6105.46875,3456,-6.499221778,-704
6.16687521,668,0.286187323,31,6109.375,3584,-6.517685476,-706
6.083788568,659,0.258491775,28,6113.28125,3712,-6.619235817,-717
6.185338908,670,-0.036927396,-4,6117.1875,3840,-6.48075808,-702
6.139179662,665,0.544679098,59,6121.09375,3968,-6.545381024,-709
6.231498154,675,0.895489364,97,6125,4096,-6.434598834,-697
6.157643361,667,0.886257515,96,6128.90625,4224,-6.545381024,-709
6.16687521,668,-0.073854793,-8,6132.8125,4352,-6.591540269,-714
6.185338908,670,0.267723624,29,6136.71875,4480,-6.517685476,-706
6.185338908,670,-0.009231849,-1,6140.625,4608,-6.517685476,-706
6.203802606,672,0.94164861,102,6144.53125,4736,-6.443830683,-698
6.148411512,666,-0.147709586,-16,6148.4375,4864,-6.526917325,-707
6.111484115,662,-0.055391095,-6,6152.34375,4992,-6.563844722,-711
6.129947813,664,-0.036927396,-4,6156.25,5120,-6.536149174,-708
6.111484115,662,0.544679098,59,6160.15625,5248,-6.545381024,-709
6.203802606,672,-0.018463698,-2,6164.0625,5376,-6.388439589,-692
6.093020417,660,0.258491775,28,6167.96875,5504,-6.536149174,-708
6.06532487,657,-0.018463698,-2,6171.875,5632,-6.591540269,-714
6.06532487,657,0.221564379,24,6175.78125,5760,-6.591540269,-714
6.05609302,656,0.286187323,31,6179.6875,5888,-6.591540269,-714
6.093020417,660,0.590838343,64,6183.59375,6016,-6.508453627,-705
6.037629322,654,-0.036927396,-4,6187.5,6144,-6.591540269,-714
6.019165624,652,-0.092318491,-10,6191.40625,6272,-6.646931364,-720
5.991470077,649,0.009231849,1,6195.3125,6400,-6.674626911,-723
6.06532487,657,-0.009231849,-1,6199.21875,6528,-6.591540269,-714
6.093020417,660,-0.009231849,-1,6203.125,6656,-6.508453627,-705
6.019165624,652,-0.009231849,-1,6207.03125,6784,-6.58230842,-713
6.028397473,653,0.5262154,57,6210.9375,6912,-6.591540269,-714
5.982238227,648,-0.295419172,-32,6214.84375,7040,-6.68385876,-724
6.009933775,651,0.563142796,61,6218.75,7168,-6.619235817,-717
6.037629322,654,0.572374645,62,6222.65625,7296,-6.554612873,-710
6.06532487,657,0.544679098,59,6226.5625,7424,-6.545381024,-709
6.000701926,650,0.470824305,51,6230.46875,7552,-6.619235817,-717
5.963774529,646,-0.009231849,-1,6234.375,7680,-6.674626911,-723
6.028397473,653,0.221564379,24,6238.28125,7808,-6.573076571,-712
6.009933775,651,-0.009231849,-1,6242.1875,7936,-6.591540269,-714
6.037629322,654,0.286187323,31,6246.09375,8064,-6.554612873,-710
6.009933775,651,-0.073854793,-8,6250,8192,-6.628467666,-718
5.991470077,649,0.350810266,38,6253.90625,8320,-6.711554308,-727
6.074556719,658,0.286187323,31,6257.8125,8448,-6.619235817,-717
6.05609302,656,0.258491775,28,6261.71875,8576,-6.610003967,-716
6.037629322,654,0.553910947,60,6265.625,8704,-6.600772118,-715
6.046861171,655,-0.036927396,-4,6269.53125,8832,-6.600772118,-715
6.093020417,660,0.553910947,60,6273.4375,8960,-6.600772118,-715
6.286889248,681,-0.452360607,-49,6277.34375,9088,-6.36997589,-690
6.536149174,708,-2.363353374,-256,6281.25,9216,-6.102252266,-661
6.610003967,716,2.391048921,259,6285.15625,9344,-6.037629322,-654
6.333048494,686,1.14474929,124,6289.0625,9472,-6.093020417,-660
6.16687521,668,1.14474929,124,6292.96875,9600,-6.416135136,-695
6.157643361,667,-0.295419172,-32,6296.875,9728,-6.536149174,-708
6.074556719,658,-0.009231849,-1,6300.78125,9856,-6.674626911,-723
6.037629322,654,-0.036927396,-4,6304.6875,9984,-6.757713553,-732
5.889919736,638,-0.009231849,-1,6308.59375,10112,-6.785409101,-735
5.816064943,630,-0.009231849,-1,6312.5,10240,-6.776177252,-734
5.788369396,627,0.009231849,1,6316.40625,10368,-6.748481704,-731
5.779137547,626,-0.230796228,-25,6320.3125,10496,-6.748481704,-731
5.936078982,643,0.452360607,49,6324.21875,10624,-6.58230842,-713
6.009933775,651,-0.083086642,-9,6328.125,10752,-6.58230842,-713
5.95454268,645,0.138477737,15,6332.03125,10880,-6.730018006,-729
6.037629322,654,-0.009231849,-1,6335.9375,11008,-6.646931364,-720
6.046861171,655,-0.009231849,-1,6339.84375,11136,-6.656163213,-721
6.102252266,661,0.258491775,28,6343.75,11264,-6.58230842,-713
6.05609302,656,-0.018463698,-2,6347.65625,11392,-6.628467666,-718
6.028397473,653,0.138477737,15,6351.5625,11520,-6.674626911,-723
6.06532487,657,-0.230796228,-25,6355.46875,11648,-6.656163213,-721
6.06532487,657,0.581606494,63,6359.375,11776,-6.665395062,-722
6.102252266,661,-0.009231849,-1,6363.28125,11904,-6.619235817,-717
6.093020417,660,0.249259926,27,6367.1875,12032,-6.619235817,-717
6.009933775,651,0.129245888,14,6371.09375,12160,-6.757713553,-732
6.093020417,660,0.064622944,7,6375,12288,-6.674626911,-723
6.120715964,663,0.110782189,12,6378.90625,12416,-6.656163213,-721
6.139179662,665,0.147709586,16,6382.8125,12544,-6.58230842,-713
6.120715964,663,0.470824305,51,6386.71875,12672,-6.619235817,-717
6.129947813,664,-0.064622944,-7,6390.625,12800,-6.619235817,-717
6.037629322,654,0.055391095,6,6394.53125,12928,-6.739249855,-730
6.093020417,660,-0.009231849,-1,6398.4375,13056,-6.665395062,-722
6.129947813,664,0.276955473,30,6402.34375,13184,-6.610003967,-716
6.139179662,665,0.507751701,55,6406.25,13312,-6.591540269,-714
6.102252266,661,0.286187323,31,6410.15625,13440,-6.637699515,-719
6.093020417,660,0.110782189,12,6414.0625,13568,-6.674626911,-723
6.102252266,661,-0.027695547,-3,6417.96875,13696,-6.637699515,-719
6.148411512,666,0.581606494,63,6421.875,13824,-6.573076571,-712
6.139179662,665,-0.147709586,-16,6425.78125,13952,-6.610003967,-716
6.16687521,668,-0.073854793,-8,6429.6875,14080,-6.573076571,-712
6.083788568,659,0.138477737,15,6433.59375,14208,-6.702322459,-726
6.139179662,665,0.276955473,30,6437.5,14336,-6.591540269,-714
6.203802606,672,-0.027695547,-3,6441.40625,14464,-6.526917325,-707
6.185338908,670,-0.036927396,-4,6445.3125,14592,-6.526917325,-707
6.185338908,670,0.175405133,19,6449.21875,14720,-6.554612873,-710
6.102252266,661,0.138477737,15,6453.125,14848,-6.674626911,-723
6.176107059,669,-0.046159246,-5,6457.03125,14976,-6.563844722,-711
6.194570757,671,0.581606494,63,6460.9375,15104,-6.545381024,-709
6.222266305,674,-0.147709586,-16,6464.84375,15232,-6.489989929,-703
6.176107059,669,0.221564379,24,6468.75,15360,-6.545381024,-709
6.176107059,669,0.581606494,63,6472.65625,15488,-6.619235817,-717
6.240730003,676,-0.018463698,-2,6476.5625,15616,-6.517685476,-706
6.231498154,675,-0.295419172,-32,6480.46875,15744,-6.48075808,-702
6.26842555,679,-0.5262154,-57,6484.375,15872,-6.453062532,-699
6.222266305,674,0.600070193,65,6488.28125,16000,-6.508453627,-705
6.203802606,672,0.267723624,29,6492.1875,16128,-6.610003967,-716
6.26842555,679,-0.036927396,-4,6496.09375,16256,-6.499221778,-704
6.249961852,677,-0.036927396,-4,6500,16384,-6.536149174,-708
6.296121097,682,1.14474929,124,6503.90625,16512,-6.425366985,-696
6.249961852,677,0.553910947,60,6507.8125,16640,-6.536149174,-708
6.222266305,674,0.286187323,31,6511.71875,16768,-6.610003967,-716
6.213034455,673,0.443128758,48,6515.625,16896,-6.619235817,-717
6.231498154,675,-0.138477737,-15,6519.53125,17024,-6.58230842,-713
6.249961852,677,-0.027695547,-3,6523.4375,17152,-6.526917325,-707
6.222266305,674,-0.018463698,-2,6527.34375,17280,-6.591540269,-714
6.176107059,669,-0.092318491,-10,6531.25,17408,-6.637699515,-719
6.148411512,666,0.350810266,38,6535.15625,17536,-6.646931364,-720
6.148411512,666,0.360042116,39,6539.0625,17664,-6.656163213,-721
6.203802606,672,-0.027695547,-3,6542.96875,17792,-6.526917325,-707
6.111484115,662,0.553910947,60,6546.875,17920,-6.637699515,-719
6.120715964,663,-0.009231849,-1,6550.78125,18048,-6.656163213,-721
6.037629322,654,-0.258491775,-28,6554.6875,18176,-6.748481704,-731
6.074556719,658,-0.156941435,-17,6558.59375,18304,-6.711554308,-727
6.148411512,666,0.581606494,63,6562.5,18432,-6.545381024,-709
6.05609302,656,0.31388287,34,6566.40625,18560,-6.665395062,-722
6.05609302,656,0.018463698,2,6570.3125,18688,-6.702322459,-726
6.019165624,652,0.027695547,3,6574.21875,18816,-6.748481704,-731
6.028397473,653,-0.018463698,-2,6578.125,18944,-6.720786157,-728
6.046861171,655,0.166173284,18,6582.03125,19072,-6.628467666,-718
6.05609302,656,0.147709586,16,6585.9375,19200,-6.646931364,-720
6.019165624,652,0.110782189,12,6589.84375,19328,-6.720786157,-728
5.982238227,648,0.009231849,1,6593.75,19456,-6.785409101,-735
6.06532487,657,0.360042116,39,6597.65625,19584,-6.656163213,-721
6.074556719,658,0.461592456,50,6601.5625,19712,-6.591540269,-714
6.06532487,657,0.443128758,48,6605.46875,19840,-6.637699515,-719
6.037629322,654,0.258491775,28,6609.375,19968,-6.665395062,-722
5.982238227,648,-0.286187323,-31,6613.28125,20096,-6.766945402,-733
6.037629322,654,-0.295419172,-32,6617.1875,20224,-6.68385876,-724
6.05609302,656,-0.138477737,-15,6621.09375,20352,-6.619235817,-717
6.037629322,654,-0.138477737,-15,6625,20480,-6.637699515,-719
6.037629322,654,-0.009231849,-1,6628.90625,20608,-6.656163213,-721
5.982238227,648,-0.018463698,-2,6632.8125,20736,-6.757713553,-732
6.019165624,652,-0.027695547,-3,6636.71875,20864,-6.674626911,-723
6.06532487,657,-0.083086642,-9,6640.625,20992,-6.600772118,-715
6.05609302,656,0.166173284,18,6644.53125,21120,-6.628467666,-718
6.037629322,654,-0.009231849,-1,6648.4375,21248,-6.693090609,-725
6.009933775,651,0.369273965,40,6652.34375,21376,-6.720786157,-728
6.05609302,656,-0.009231849,-1,6656.25,21504,-6.637699515,-719
6.05609302,656,0.147709586,16,6660.15625,21632,-6.646931364,-720
6.074556719,658,0.516983551,56,6664.0625,21760,-6.573076571,-712
6.028397473,653,-0.073854793,-8,6667.96875,21888,-6.646931364,-720
5.991470077,649,0,0,6671.875,22016,-6.711554308,-727
6.037629322,654,-0.009231849,-1,6675.78125,22144,-6.674626911,-723
6.083788568,659,0.572374645,62,6679.6875,22272,-6.573076571,-712
6.046861171,655,-0.009231849,-1,6683.59375,22400,-6.628467666,-718
6.06532487,657,0.443128758,48,6687.5,22528,-6.628467666,-718
6.046861171,655,0.516983551,56,6691.40625,22656,-6.646931364,-720
6.05609302,656,-0.147709586,-16,6695.3125,22784,-6.628467666,-718
6.102252266,661,0.581606494,63,6699.21875,22912,-6.591540269,-714
6.129947813,664,0.600070193,65,6703.125,23040,-6.489989929,-703
6.102252266,661,-0.009231849,-1,6707.03125,23168,-6.554612873,-710
6.102252266,661,-0.027695547,-3,6710.9375,23296,-6.600772118,-715
6.093020417,660,-0.083086642,-9,6714.84375,23424,-6.600772118,-715
6.102252266,661,-0.120014039,-13,6718.75,23552,-6.58230842,-713
6.16687521,668,0.655461287,71,6722.65625,23680,-6.434598834,-697
6.129947813,664,0.009231849,1,6726.5625,23808,-6.526917325,-707
6.102252266,661,0.009231849,1,6730.46875,23936,-6.58230842,-713
6.06532487,657,-0.009231849,-1,6734.375,24064,-6.637699515,-719
6.129947813,664,-0.036927396,-4,6738.28125,24192,-6.536149174,-708
6.176107059,669,0.286187323,31,6742.1875,24320,-6.453062532,-699
6.129947813,664,-0.036927396,-4,6746.09375,24448,-6.573076571,-712
6.129947813,664,0.563142796,61,6750,24576,-6.526917325,-707
6.083788568,659,0.553910947,60,6753.90625,24704,-6.573076571,-712
6.129947813,664,0.276955473,30,6757.8125,24832,-6.536149174,-708
6.120715964,663,-0.590838343,-64,6761.71875,24960,-6.499221778,-704
0.018463698,2,0,0,6765.625,25088,-184.3692587,-19971
-6.563844722,-711,0,0,6777.34375,25472,-302.5092318,-32768
6.185338908,670,-300.7367168,-32576,6781.25,25600,-6.462294382,-700
6.120715964,663,-0.009231849,-1,6785.15625,25728,-6.508453627,-705
6.120715964,663,0.581606494,63,6789.0625,25856,-6.545381024,-709
6.083788568,659,0.249259926,27,6792.96875,25984,-6.58230842,-713
6.074556719,658,0.507751701,55,6796.875,26112,-6.58230842,-713
6.157643361,667,-0.018463698,-2,6800.78125,26240,-6.443830683,-698
6.139179662,665,-0.018463698,-2,6804.6875,26368,-6.517685476,-706
6.148411512,666,-0.009231849,-1,6808.59375,26496,-6.526917325,-707
6.102252266,661,-0.138477737,-15,6812.5,26624,-6.665395062,-722
6.176107059,669,0.258491775,28,6816.40625,26752,-6.526917325,-707
6.148411512,666,0.286187323,31,6820.3125,26880,-6.508453627,-705
6.185338908,670,-0.295419172,-32,6824.21875,27008,-6.499221778,-704
6.176107059,669,0.590838343,64,6828.125,27136,-6.517685476,-706
6.16687521,668,-0.138477737,-15,6832.03125,27264,-6.600772118,-715
6.213034455,673,-0.009231849,-1,6835.9375,27392,-6.526917325,-707
6.26842555,679,1.061662648,115,6839.84375,27520,-6.443830683,-698
6.249961852,677,-0.138477737,-15,6843.75,27648,-6.453062532,-699
6.194570757,671,0.895489364,97,6847.65625,27776,-6.508453627,-705
6.111484115,662,-0.009231849,-1,6851.5625,27904,-6.600772118,-715
6.157643361,667,0.535447249,58,6855.46875,28032,-6.526917325,-707
6.148411512,666,0.572374645,62,6859.375,28160,-6.517685476,-706
6.194570757,671,1.107821894,120,6863.28125,28288,-6.434598834,-697
6.185338908,670,0.886257515,96,6867.1875,28416,-6.48075808,-702
6.148411512,666,0.895489364,97,6871.09375,28544,-6.536149174,-708
6.157643361,667,-0.009231849,-1,6875,28672,-6.508453627,-705
6.120715964,663,0.581606494,63,6878.90625,28800,-6.499221778,-704
6.176107059,669,-0.073854793,-8,6882.8125,28928,-6.416135136,-695
6.074556719,658,-0.009231849,-1,6886.71875,29056,-6.563844722,-711
6.083788568,659,0.581606494,63,6890.625,29184,-6.600772118,-715
6.083788568,659,0.276955473,30,6894.53125,29312,-6.58230842,-713
6.05609302,656,0.581606494,63,6898.4375,29440,-6.610003967,-716
6.102252266,661,-0.590838343,-64,6902.34375,29568,-6.489989929,-703
6.06532487,657,0.221564379,24,6906.25,29696,-6.591540269,-714
6.05609302,656,0.276955473,30,6910.15625,29824,-6.610003967,-716
6.074556719,658,0.230796228,25,6914.0625,29952,-6.591540269,-714
6.074556719,658,0.221564379,24,6917.96875,30080,-6.563844722,-711
6.129947813,664,0.913953063,99,6921.875,30208,-6.48075808,-702
6.083788568,659,-0.064622944,-7,6925.78125,30336,-6.536149174,-708
6.05609302,656,0.516983551,56,6929.6875,30464,-6.591540269,-714
6.046861171,655,0.443128758,48,6933.59375,30592,-6.610003967,-716
6.06532487,657,-0.083086642,-9,6937.5,30720,-6.58230842,-713
6.120715964,663,-0.295419172,-32,6941.40625,30848,-6.471526231,-701
6.074556719,658,0.572374645,62,6945.3125,30976,-6.536149174,-708
6.074556719,658,0.572374645,62,6949.21875,31104,-6.554612873,-710
6.06532487,657,0.516983551,56,6953.125,31232,-6.600772118,-715
6.06532487,657,-0.138477737,-15,6957.03125,31360,-6.58230842,-713
6.093020417,660,0.581606494,63,6960.9375,31488,-6.526917325,-707
6.16687521,668,-0.295419172,-32,6964.84375,31616,-6.499221778,-704
6.093020417,660,-0.027695547,-3,6968.75,31744,-6.573076571,-712
6.05609302,656,-0.009231849,-1,6972.65625,31872,-6.637699515,-719
6.194570757,671,1.04319895,113,6976.5625,32000,-6.453062532,-699
6.388439589,692,-2.363353374,-256,6980.46875,32128,-6.277657399,-680
6.600772118,715,2.409512619,261,6984.375,32256,-6.037629322,-654
6.610003967,716,-2.29873043,-249,6988.28125,32384,-5.982238227,-648
6.434598834,697,2.474135563,268,6992.1875,32512,-6.046861171,-655
6.388439589,692,-2.307962279,-250,6996.09375,32640,-6.074556719,-658
6.286889248,681,-0.083086642,-9,7000,32768,-6.296121097,-682
6.213034455,673,1.033967101,112,7003.90625,32896,-6.489989929,-703
6.074556719,658,0.470824305,51,7007.8125,33024,-6.610003967,-716
5.973006378,647,0.360042116,39,7011.71875,33152,-6.739249855,-730
5.945310831,644,0.258491775,28,7015.625,33280,-6.58230842,-713
5.889919736,638,-0.073854793,-8,7019.53125,33408,-6.58230842,-713
5.936078982,643,-0.009231849,-1,7023.4375,33536,-6.499221778,-704
5.982238227,648,0.581606494,63,7027.34375,33664,-6.545381024,-709
6.037629322,654,-0.064622944,-7,7031.25,33792,-6.536149174,-708
6.102252266,661,-0.563142796,-61,7035.15625,33920,-6.471526231,-701
6.111484115,662,0.600070193,65,7039.0625,34048,-6.489989929,-703
6.148411512,666,0.950880459,103,7042.96875,34176,-6.434598834,-697
6.16687521,668,0.655461287,71,7046.875,34304,-6.443830683,-698
6.111484115,662,-0.009231849,-1,7050.78125,34432,-6.554612873,-710
6.157643361,667,-0.009231849,-1,7054.6875,34560,-6.48075808,-702
6.157643361,667,-0.286187323,-31,7058.59375,34688,-6.462294382,-700
6.213034455,673,1.033967101,112,7062.5,34816,-6.388439589,-692
6.222266305,674,-0.009231849,-1,7066.40625,34944,-6.416135136,-695
6.157643361,667,0.563142796,61,7070.3125,35072,-6.526917325,-707
6.148411512,666,0.886257515,96,7074.21875,35200,-6.489989929,-703
6.176107059,669,-0.267723624,-29,7078.125,35328,-6.471526231,-701
6.213034455,673,-0.073854793,-8,7082.03125,35456,-6.397671438,-693
6.176107059,669,0.886257515,96,7085.9375,35584,-6.453062532,-699
6.157643361,667,0.62776574,68,7089.84375,35712,-6.517685476,-706
6.16687521,668,-0.295419172,-32,7093.75,35840,-6.489989929,-703
6.16687521,668,0.950880459,103,7097.65625,35968,-6.489989929,-703
6.231498154,675,0.950880459,103,7101.5625,36096,-6.36997589,-690
6.231498154,675,-0.073854793,-8,7105.46875,36224,-6.397671438,-693
6.148411512,666,1.061662648,115,7109.375,36352,-6.471526231,-701
6.148411512,666,-0.590838343,-64,7113.28125,36480,-6.489989929,-703
6.185338908,670,0.923184912,100,7117.1875,36608,-6.462294382,-700
6.240730003,676,-0.046159246,-5,7121.09375,36736,-6.333048494,-686
6.213034455,673,2.427976318,263,7125,36864,-6.397671438,-693
6.203802606,672,0.886257515,96,7128.90625,36992,-6.443830683,-698
6.176107059,669,-0.018463698,-2,7132.8125,37120,-6.499221778,-704
6.222266305,674,-0.120014039,-13,7136.71875,37248,-6.406903287,-694
6.286889248,681,1.033967101,112,7140.625,37376,-6.286889248,-681
6.213034455,673,-0.009231849,-1,7144.53125,37504,-6.388439589,-692
6.222266305,674,0.987807855,107,7148.4375,37632,-6.397671438,-693
6.213034455,673,0.950880459,103,7152.34375,37760,-6.462294382,-700
6.231498154,675,-0.018463698,-2,7156.25,37888,-6.388439589,-692
6.26842555,679,-0.156941435,-17,7160.15625,38016,-6.360744041,-689
6.259193701,678,1.033967101,112,7164.0625,38144,-6.351512192,-688
6.249961852,677,-0.156941435,-17,7167.96875,38272,-6.36997589,-690
6.194570757,671,-0.295419172,-32,7171.875,38400,-6.48075808,-702
6.296121097,682,1.04319895,113,7175.78125,38528,-6.342280343,-687
6.342280343,687,-0.147709586,-16,7179.6875,38656,-6.277657399,-680
6.305352947,683,-0.147709586,-16,7183.59375,38784,-6.333048494,-686
6.323816645,685,-0.31388287,-34,7187.5,38912,-6.351512192,-688
6.259193701,678,0.913953063,99,7191.40625,39040,-6.397671438,-693
6.296121097,682,-0.147709586,-16,7195.3125,39168,-6.342280343,-687
6.323816645,685,-2.335657826,-253,7199.21875,39296,-6.323816645,-685
6.333048494,686,1.126285592,122,7203.125,39424,-6.333048494,-686
6.323816645,685,-0.009231849,-1,7207.03125,39552,-6.351512192,-688
6.26842555,679,-0.055391095,-6,7210.9375,39680,-6.425366985,-696
6.333048494,686,1.172444838,127,7214.84375,39808,-6.351512192,-688
6.323816645,685,-0.018463698,-2,7218.75,39936,-6.360744041,-689
6.314584796,684,1.117053743,121,7222.65625,40064,-6.323816645,-685
6.26842555,679,-0.184636982,-20,7226.5625,40192,-6.388439589,-692
6.231498154,675,-0.138477737,-15,7230.46875,40320,-6.471526231,-701
6.259193701,678,1.024735252,111,7234.375,40448,-6.416135136,-695
6.240730003,676,-0.5262154,-57,7238.28125,40576,-6.434598834,-697
6.249961852,677,-0.166173284,-18,7242.1875,40704,-6.36997589,-690
6.194570757,671,-0.286187323,-31,7246.09375,40832,-6.48075808,-702
6.16687521,668,-0.147709586,-16,7250,40960,-6.536149174,-708
6.176107059,669,0.581606494,63,7253.90625,41088,-6.499221778,-704
6.16687521,668,0.581606494,63,7257.8125,41216,-6.499221778,-704
6.222266305,674,-0.452360607,-49,7261.71875,41344,-6.397671438,-693
6.120715964,663,0.581606494,63,7265.625,41472,-6.508453627,-705
6.111484115,662,0.581606494,63,7269.53125,41600,-6.563844722,-711
6.074556719,658,-0.092318491,-10,7273.4375,41728,-6.591540269,-714
6.129947813,664,0.581606494,63,7277.34375,41856,-6.508453627,-705
6.203802606,672,1.14474929,124,7281.25,41984,-6.379207739,-691
6.111484115,662,-0.147709586,-16,7285.15625,42112,-6.508453627,-705
6.093020417,660,0.590838343,64,7289.0625,42240,-6.536149174,-708
6.102252266,661,-0.018463698,-2,7292.96875,42368,-6.554612873,-710
6.120715964,663,-0.009231849,-1,7296.875,42496,-6.526917325,-707
6.157643361,667,-0.21233253,-23,7300.78125,42624,-6.416135136,-695
6.120715964,663,-0.009231849,-1,7304.6875,42752,-6.526917325,-707
6.120715964,663,-0.286187323,-31,7308.59375,42880,-6.489989929,-703
6.111484115,662,0.535447249,58,7312.5,43008,-6.554612873,-710
6.148411512,666,1.061662648,115,7316.40625,43136,-6.48075808,-702
6.185338908,670,0.886257515,96,7320.3125,43264,-6.443830683,-698
6.16687521,668,-0.009231849,-1,7324.21875,43392,-6.471526231,-701
6.176107059,669,-0.249259926,-27,7328.125,43520,-6.453062532,-699
6.111484115,662,-0.147709586,-16,7332.03125,43648,-6.573076571,-712
6.16687521,668,-0.267723624,-29,7335.9375,43776,-6.471526231,-701
6.185338908,670,-0.267723624,-29,7339.84375,43904,-6.434598834,-697
6.185338908,670,0.950880459,103,7343.75,44032,-6.443830683,-698
6.157643361,667,-0.590838343,-64,7347.65625,44160,-6.471526231,-701
6.074556719,658,0.249259926,27,7351.5625,44288,-6.619235817,-717
6.129947813,664,-0.009231849,-1,7355.46875,44416,-6.508453627,-705
6.194570757,671,1.098590045,119,7359.375,44544,-6.434598834,-697
6.176107059,669,-0.295419172,-32,7363.28125,44672,-6.434598834,-697
6.139179662,665,0.581606494,63,7367.1875,44800,-6.517685476,-706
6.120715964,663,-0.083086642,-9,7371.09375,44928,-6.58230842,-713
6.185338908,670,0.913953063,99,7375,45056,-6.48075808,-702
6.16687521,668,-0.129245888,-14,7378.90625,45184,-6.48075808,-702
6.176107059,669,1.033967101,112,7382.8125,45312,-6.453062532,-699
