Device,Device,Device,Device,Device,Device,Device,Device,Device,Device,Device,Device
ECG Vx-RL,ECG Vx-RL,ECG LA-RA,ECG LA-RA,ExG2 CH1,ExG2 CH1,EXG1 Status,ECG LL-RA,ECG LL-RA,Timestamp,Timestamp,EXG2 Status
CAL,RAW,CAL,RAW,CAL,RAW,RAW,CAL,RAW,CAL,RAW,RAW
mV,No Units,mV,No Units,mV,No Units,No Units,mV,No Units,mSecs,No Units,No Units
9.192478561,127458,7.959126587,110357,1.024127129,14200,128,4.158460994,57659,6058.59375,1920,128
0.130323783,1807,7.791371678,108031,0.59024341,8184,128,4.081435094,56591,6078.125,2560,128
1.181640766,16384,6.111658944,84741,0.582742761,8080,128,4.085041175,56641,6097.65625,3200,128
0.018391015,255,6.094854605,84508,0.555625028,7704,128,4.456828172,61796,6117.1875,3840,128
1.998273968,27707,6.092402469,84474,0.441312246,6119,128,6.343025129,87949,6136.71875,4480,128
5.926522723,82174,6.084613333,84366,0.442971044,6142,128,6.357088847,88144,6156.25,5120,128
8.894976842,123333,6.094421875,84502,0.443187409,6145,128,6.390192674,88603,6175.78125,5760,128
9.414973785,130543,6.097811591,84549,0.44765895,6207,128,6.393942999,88655,6195.3125,6400,128
0.221557644,3072,6.065573223,84102,0.590604018,8189,128,6.357737941,88153,6214.84375,7040,128
1.193035983,16542,6.075453886,84239,0.440807395,6112,128,6.358459158,88163,6234.375,7680,128
1.774192068,24600,6.095143091,84512,0.590748261,8191,128,6.355790657,88126,6253.90625,8320,128
2.354194206,32642,6.10394193,84634,0.452274734,6271,128,6.351823968,88071,6273.4375,8960,128
0.009159447,127,6.073939332,84218,0.574593016,7967,128,6.313311018,87537,6292.96875,9600,128
0.147777217,2049,6.067808994,84133,0.519275727,7200,128,6.302925504,87393,6312.5,10240,128
0.166096111,2303,6.068169602,84138,0.521295133,7228,128,6.293333327,87260,6332.03125,10880,128
0.057697303,800,6.108269228,84694,0.552812285,7665,128,6.329538385,87762,6351.5625,11520,128
0.258483918,3584,6.123342648,84903,0.543508594,7536,128,6.323552289,87679,6371.09375,12160,128
0.070895561,983,6.112885012,84758,0.553894109,7680,128,6.322109857,87659,6390.625,12800,128
0,0,6.131348149,85014,0.445351058,6175,128,6.413632204,88928,6410.15625,13440,128
0.00223577,31,6.154066462,85329,0.551441974,7646,128,6.476594386,89801,6429.6875,14080,128
0.12974681,1799,6.239097862,86508,0.589666437,8176,128,6.500755131,90136,6449.21875,14720,128
0.350943846,4866,6.237727551,86489,0.583896707,8096,128,6.431662611,89178,6468.75,15360,128
0.129530445,1796,6.18543937,85764,0.460208113,6381,128,6.363796158,88237,6488.28125,16000,128
0.285890136,3964,6.200729156,85976,0.590748261,8191,128,6.326076546,87714,6507.8125,16640,128
0.294256245,4080,6.166615625,85503,0.516967835,7168,128,6.289799367,87211,6527.34375,17280,128
0.276947054,3840,6.184790276,85755,0.524396363,7271,128,6.305449761,87428,6546.875,17920,128
0.290866529,4033,6.208085562,86078,0.530166093,7351,128,6.313022532,87533,6566.40625,18560,128
0.009231568,128,6.207436467,86069,0.586420964,8131,128,6.303286112,87398,6585.9375,19200,128
0.003389717,47,6.213422562,86152,0.588296126,8157,128,6.31648437,87581,6605.46875,19840,128
8.65E-04,12,6.257560999,86764,0.445351058,6175,128,6.353410644,88093,6625,20480,128
0.034834747,483,6.287852083,87184,0.44765895,6207,128,6.378076241,88435,6644.53125,21120,128
0.004399419,61,6.296218192,87300,0.443980747,6156,128,6.293982422,87269,6664.0625,21760,128
0.040243869,558,6.403751541,88791,0.184559248,2559,128,5.820071199,80698,6683.59375,22400,128
2.346405071,32534,6.523329201,90449,1.181063793,16376,128,4.931604854,68379,6703.125,23040,128
2.289501105,31745,6.809652067,94419,1.181352279,16380,128,4.100763691,56859,6722.65625,23680,128
2.194733285,30431,6.952452892,96399,1.179332874,16352,128,4.609149052,63908,6742.1875,24320,128
2.326355258,32256,6.882567034,95430,0.90462159,12543,128,5.546441739,76904,6761.71875,24960,128
0,0,6.639517145,92060,1.071006187,14850,128,6.05655802,83977,6781.25,25600,128
2.219903734,30780,6.359396739,88176,0.5171842,7171,128,6.376056835,88407,6800.78125,26240,128
7.21E-05,1,6.303430355,87400,0.519203606,7199,128,6.479118643,89836,6820.3125,26880,128
0.009375812,130,6.300833976,87364,0.590748261,8191,128,6.514963092,90333,6839.84375,27520,128
0.064332493,892,6.24342516,86568,1.034079913,14338,128,6.516117038,90349,6859.375,28160,128
0.001153946,16,6.278620515,87056,1.099566352,15246,128,6.560976691,90971,6878.90625,28800,128
0.069164642,959,6.262176783,86828,1.180414698,16367,128,6.624155238,91847,6898.4375,29440,128
0.034690503,481,6.258210094,86773,1.034440522,14343,128,6.676876149,92578,6917.96875,30080,128
0.008149744,113,6.263979824,86853,1.178755901,16344,128,6.745391696,93528,6937.5,30720,128
2.88E-04,4,6.291746651,87238,1.100720298,15262,128,6.866483911,95207,6957.03125,31360,128
0.147632974,2047,6.31605164,87575,1.144714492,15872,128,6.907665361,95778,6976.5625,32000,128
0.30464176,4224,6.377643511,88429,1.125169531,15601,128,6.860642059,95126,6996.09375,32640,128
0.180087707,2497,6.443418436,89341,1.164187332,16142,128,6.77964947,94003,7015.625,33280,128
0.008582474,119,6.470391926,89715,1.040787225,14431,128,6.549148744,90807,7035.15625,33920,128
0.272908243,3784,6.482075629,89877,0.577045152,8001,128,6.450269991,89436,7054.6875,34560,128
5.77E-04,8,6.43916326,89282,0.588512491,8160,128,6.328384439,87746,7074.21875,35200,128
0.261945756,3632,6.448322707,89409,0.576684544,7996,128,6.306170977,87438,7093.75,35840,128
2.343015354,32487,6.441831761,89319,0.586060355,8126,128,6.318287411,87606,7113.28125,36480,128
0.129241959,1792,6.426686219,89109,0.586132477,8127,128,6.312734045,87529,7132.8125,37120,128
2.32512919,32239,6.433177165,89199,0.574016043,7959,128,6.319729843,87626,7152.34375,37760,128
2.344890516,32513,6.43425899,89214,0.584401558,8103,128,6.358603401,88165,7171.875,38400,128
2.293756282,31804,6.437720828,89262,0.479176102,6644,128,6.380167768,88464,7191.40625,39040,128
0.069236764,960,6.444644504,89358,0.518626633,7191,128,6.406347919,88827,7210.9375,39680,128
0.010962488,152,6.412622501,88914,0.461506303,6399,128,6.375551984,88400,7230.46875,40320,128
0.034618382,480,6.42142134,89036,0.555841393,7707,128,6.463973101,89626,7250,40960,128
0.009159447,127,6.476017413,89793,1.108004583,15363,128,6.520227971,90406,7269.53125,41600,128
2.358665747,32704,6.476089534,89794,0.563197799,7809,128,6.473853764,89763,7289.0625,42240,128
1.44E-04,2,6.431878976,89181,0.461073573,6393,128,6.376128957,88408,7308.59375,42880,128
2.35433845,32644,6.399352121,88730,0.55836565,7742,128,6.289510881,87207,7328.125,43520,128
2.354049963,32640,6.4072855,88840,0.526199404,7296,128,6.289871489,87212,7347.65625,44160,128
2.333278934,32352,6.379446552,88454,0.515020551,7141,128,6.262393148,86831,7367.1875,44800,128
2.360901518,32735,6.407141257,88838,0.59024341,8184,128,6.295208489,87286,7386.71875,45440,128
2.326355258,32256,6.400938797,88752,0.527281228,7311,128,6.286770259,87169,7406.25,46080,128
2.362560315,32758,6.409449149,88870,0.581877301,8068,128,6.305449761,87428,7425.78125,46720,128
2.233967451,30975,6.373748943,88375,0.588224004,8156,128,6.291097556,87229,7445.3125,47360,128
2.218966153,30767,6.35456459,88109,0.500235617,6936,128,6.267658027,86904,7464.84375,48000,128
2.215576436,30720,6.388029026,88573,0.537666743,7455,128,6.305449761,87428,7484.375,48640,128
2.289645349,31747,6.355646414,88124,0.590748261,8191,128,6.278909001,87060,7503.90625,49280,128
0.008005501,111,6.406924892,88835,0.534781877,7415,128,6.3249226,87698,7523.4375,49920,128
2.362343951,32755,6.410098244,88879,0.574376652,7964,128,6.333216588,87813,7542.96875,50560,128
2.349289936,32574,6.414641907,88942,0.556129879,7711,128,6.321028032,87644,7562.5,51200,128
2.249545723,31191,6.398342418,88716,0.554182596,7684,128,6.314681329,87556,7582.03125,51840,128
2.333567421,32356,6.439956598,89293,0.589666437,8176,128,6.340933602,87920,7601.5625,52480,128
2.345106881,32516,6.429931692,89154,0.535647337,7427,128,6.324994722,87699,7621.09375,53120,128
2.362993045,32764,6.407357622,88841,0.55439896,7687,128,6.283308421,87121,7640.625,53760,128
0.036926274,512,6.492893874,90027,0.558509893,7744,128,6.279053244,87062,7660.15625,54400,128
2.358665747,32704,6.596172046,91459,1.204070592,16695,128,6.010760785,83342,7679.6875,55040,128
2.223581937,30831,6.787005876,94105,0.019544961,271,128,4.671750626,64776,7699.21875,55680,128
2.272047671,31503,6.949928635,96364,1.841986399,25540,128,4.114250435,57046,7718.75,56320,128
2.362199707,32753,7.041450982,97633,1.77649996,24632,128,4.250199705,58931,7738.28125,56960,128
0.064765223,898,7.08299304,98209,0.572429368,7937,128,5.411790658,75037,7757.8125,57600,128
2.134583847,29597,6.862877829,95157,0.036926274,512,128,5.947437995,82464,7777.34375,58240,128
2.132564441,29569,6.538258378,90656,0.583319734,8088,128,6.487556873,89953,7796.875,58880,128
2.077030787,28799,6.475368318,89784,1.047783023,14528,128,6.543739622,90732,7816.40625,59520,128
2.344457787,32507,6.498591482,90106,1.177024982,16320,128,6.629275874,91918,7835.9375,60160,128
0.066568263,923,6.461160357,89587,1.17918863,16350,128,6.618601873,91770,7855.46875,60800,128
0.110778822,1536,6.463324006,89617,1.137718694,15775,128,6.676587662,92574,7875,61440,128
0.109696997,1521,6.45820337,89546,1.180558941,16369,128,6.774961564,93938,7894.53125,62080,128
0.293102299,4064,6.455751235,89512,1.153441209,15993,128,6.811382986,94443,7914.0625,62720,128
0.119289174,1654,6.479551372,89842,1.170101305,16224,128,6.954616541,96429,7933.59375,63360,128
0.147632974,2047,6.507029713,90223,1.15394606,16000,128,7.059625633,97885,7953.125,64000,128
0.293895637,4075,6.531983797,90569,1.177024982,16320,128,7.099941623,98444,7972.65625,64640,128
2.88E-04,4,6.57330949,91142,0.010313393,143,128,7.100013745,98445,7992.1875,65280,128
0.021564367,299,6.670240959,92486,2.305584229,31968,128,6.951515311,96386,8011.71875,384,128
0.017237069,239,6.728803722,93298,2.082728396,28878,128,6.8651136,95188,8031.25,1024,128
0.221918252,3077,6.730751006,93325,1.172914049,16263,128,6.768831225,93853,8050.78125,1664,128
0.073852548,1024,6.758517833,93710,1.179549239,16355,128,6.69331988,92806,8070.3125,2304,128
0.083588968,1159,6.732481925,93349,1.173202535,16267,128,6.602446628,91546,8089.84375,2944,128
0.009159447,127,6.6233619,91836,0.576396057,7992,128,6.463035519,89613,8109.375,3584,128
0.074213156,1029,6.614346697,91711,0.588368248,8158,128,6.428200773,89130,8128.90625,4224,128
0.073419818,1018,6.618385508,91767,0.558437772,7743,128,6.462963398,89612,8148.4375,4864,128
2.363137288,32766,6.658485133,92323,0.578126976,8016,128,6.52816135,90516,8167.96875,5504,128
0.001081824,15,6.647378403,92169,1.171760103,16247,128,6.522607985,90439,8187.5,6144,128
0,0,6.661586364,92366,1.162023683,16112,128,6.531623188,90564,8207.03125,6784,128
0.00223577,31,6.669736108,92479,1.181496523,16382,128,6.529748026,90538,8226.5625,7424,128
0.03231049,448,6.676010689,92566,1.181352279,16380,128,6.545037811,90750,8246.09375,8064,128
0.001153946,16,6.685242258,92694,1.163393994,16131,128,6.538402622,90658,8265.625,8704,128
0.047239667,655,6.694690191,92825,1.145796316,15887,128,6.53876323,90663,8285.15625,9344,128
0.018895867,262,6.720653977,93185,1.165413399,16159,128,6.577853152,91205,8304.6875,9984,128
0.062817939,871,6.705075706,92969,1.177024982,16320,128,6.558668799,90939,8324.21875,10624,128
0.239948659,3327,6.713369693,93084,1.145724195,15886,128,6.553764528,90871,8343.75,11264,128
0.262522729,3640,6.732914654,93355,1.165413399,16159,128,6.558596678,90938,8363.28125,11904,128
0.110923065,1538,6.784193132,94066,1.172914049,16263,128,6.553548164,90868,8382.8125,12544,128
2.36097364,32736,6.806550837,94376,1.162023683,16112,128,6.547778433,90788,8402.34375,13184,128
0.004471541,62,6.846001368,94923,1.172409197,16256,128,6.554125137,90876,8421.875,13824,128
0.032238368,447,6.857108099,95077,1.146950262,15903,128,6.561697908,90981,8441.40625,14464,128
0.073275575,1016,6.842178922,94870,1.164259453,16143,128,6.561770029,90982,8460.9375,15104,128
0.11113943,1541,6.875931844,95338,1.180991671,16375,128,6.578790734,91218,8480.46875,15744,128
0.115394606,1600,6.882134304,95424,1.178034684,16334,128,6.570280381,91100,8500,16384,128
0.073780426,1023,6.93463885,96152,1.177313468,16324,128,6.62422736,91848,8519.53125,17024,128
0.138185041,1916,6.911848415,95836,1.179837725,16359,128,6.589969586,91373,8539.0625,17664,128
0.143161433,1985,6.907160509,95771,1.163105507,16127,128,6.598912668,91497,8558.59375,18304,128
0.147056001,2039,6.901030171,95686,1.144714492,15872,128,6.573165247,91140,8578.125,18944,128
0.143666285,1992,6.924325457,96009,1.165197035,16156,128,6.60208602,91541,8597.65625,19584,128
0.130107418,1804,6.932763688,96126,1.181280158,16379,128,6.591556262,91395,8617.1875,20224,128
0.146767515,2035,6.923171511,95993,1.123294368,15575,128,6.546119636,90765,8636.71875,20864,128
0.148137826,2054,6.94437527,96287,1.148248452,15921,128,6.549076623,90806,8656.25,21504,128
0.227038887,3148,7.040801888,97624,1.190583848,16508,128,6.368916794,88308,8675.78125,22144,128
0.009159447,127,7.219447162,100101,0.036782031,510,128,5.128569022,71110,8695.3125,22784,128
2.381167696,33016,7.436172657,103106,1.886629687,26159,128,4.397544193,60974,8714.84375,23424,128
0.369190618,5119,7.592676591,105276,1.776788447,24636,128,4.637276487,64298,8734.375,24064,128
0.554182596,7684,7.64575811,106012,1.130795018,15679,128,5.487806855,76091,8753.90625,24704,128
0.576900909,7999,7.318037429,101468,0.022501948,312,128,6.326869884,87725,8773.4375,25344,128
2.451269919,33988,7.054288632,97811,0.923373213,12803,128,6.664759715,92410,8792.96875,25984,128
0.175399801,2432,7.01079929,97208,1.17695286,16319,128,6.845135909,94911,8812.5,26624,128
0.068948277,956,6.981301544,96799,1.142118113,15836,128,6.973368165,96689,8832.03125,27264,128
0.288486515,4000,6.999981046,97058,1.181568644,16383,128,6.984474896,96843,8851.5625,27904,128
0.581660936,8065,6.988585828,96900,1.163538237,16133,128,6.970266935,96646,8871.09375,28544,128
0.278028879,3855,6.969762083,96639,1.145147222,15878,128,6.979931233,96780,8890.625,29184,128
0.331759492,4600,6.934133999,96145,1.178106806,16335,128,7.023781183,97388,8910.15625,29824,128
0.323393383,4484,6.940047972,96227,1.144930857,15875,128,7.11306776,98626,8929.6875,30464,128
0.443331652,6147,6.946899527,96322,0.146334785,2029,128,7.196945214,99789,8949.21875,31104,128
0.360031171,4992,6.953823203,96418,0.146623271,2033,128,7.28313056,100984,8968.75,31744,128
0.459847505,6376,6.993490099,96968,0.03584445,497,128,7.271086248,100817,8988.28125,32384,128
0.588512491,8160,7.097489488,98410,0.036854152,511,128,7.172928712,99456,9007.8125,33024,128
2.372296735,32893,7.17242386,99449,2.362848802,32762,128,7.051908618,97778,9027.34375,33664,128
2.434754066,33759,7.18793001,99664,2.068953165,28687,128,6.853934747,95033,9046.875,34304,128
2.427902511,33664,7.155114669,99209,1.163249751,16129,128,6.76060936,93739,9066.40625,34944,128
2.3955199,33215,7.14141156,99019,1.145002978,15876,128,6.723250356,93221,9085.9375,35584,128
2.373594925,32911,7.148984331,99124,1.179837725,16359,128,6.726856438,93271,9105.46875,36224,128
2.404679347,33342,7.138887303,98984,1.153873939,15999,128,6.725918856,93258,9125,36864,128
2.401433873,33297,7.122299328,98754,1.137790816,15776,128,6.757003278,93689,9144.53125,37504,128
2.3725131,32896,7.155114669,99209,1.109591259,15385,128,6.796237444,94233,9164.0625,38144,128
2.372440979,32895,7.158937116,99262,1.172409197,16256,128,6.805685378,94364,9183.59375,38784,128
2.440595918,33840,7.1662214,99363,1.172697684,16260,128,6.814339973,94484,9203.125,39424,128
2.435691647,33772,7.17199113,99443,1.167793413,16192,128,6.784553741,94071,9222.65625,40064,128
2.370133086,32863,7.188434862,99671,1.163970967,16139,128,6.779072497,93995,9242.1875,40704,128
2.478604016,34367,7.172712347,99453,1.141829627,15832,128,6.745391696,93528,9261.71875,41344,128
2.377201006,32961,7.185333632,99628,1.144786614,15873,128,6.751594156,93614,9281.25,41984,128
2.377128884,32960,7.196007633,99776,1.177097103,16321,128,6.749214142,93581,9300.78125,42624,128
2.378787682,32983,7.212090756,99999,1.181352279,16380,128,6.758373589,93708,9320.3125,43264,128
2.491946517,34552,7.176029942,99499,1.181568644,16383,128,6.719788518,93173,9339.84375,43904,128
2.399630833,33272,7.223846581,100162,1.172409197,16256,128,6.772870037,93909,9359.375,44544,128
2.367608829,32828,7.222909,100149,1.177024982,16320,128,6.771788212,93894,9378.90625,45184,128
2.496562302,34616,7.224279311,100168,1.180991671,16375,128,6.764792414,93797,9398.4375,45824,128
2.437061958,33791,7.206681634,99924,1.151493925,15966,128,6.74690625,93549,9417.96875,46464,128
2.474565205,34311,7.21093681,99983,1.177169225,16322,128,6.753902048,93646,9437.5,47104,128
2.40128963,33295,7.22247627,100143,1.77253327,24577,128,6.755705089,93671,9457.03125,47744,128
2.49252349,34560,7.223990825,100164,1.774696919,24607,128,6.762051792,93759,9476.5625,48384,128
2.520146074,34943,7.275702033,100881,2.06787134,28672,128,6.81066177,94433,9496.09375,49024,128
2.511779965,34827,7.276423249,100891,1.165413399,16159,128,6.815133311,94495,9515.625,49664,128
2.365300937,32796,7.228967217,100233,1.155100006,16016,128,6.761691184,93754,9535.15625,50304,128
2.365084572,32793,7.238775759,100369,1.168586751,16203,128,6.762917252,93771,9554.6875,50944,128
2.375037357,32931,7.230770258,100258,1.181496523,16382,128,6.752748102,93630,9574.21875,51584,128
2.492235004,34556,7.258464963,100642,1.181568644,16383,128,6.7854192,94083,9593.75,52224,128
2.508678735,34784,7.231202988,100264,1.145724195,15886,128,6.762700887,93768,9613.28125,52864,128
2.510553898,34810,7.21713927,100069,1.163393994,16131,128,6.739549844,93447,9632.8125,53504,128
2.478676138,34368,7.205599809,99909,1.18048682,16368,128,6.752099008,93621,9652.34375,54144,128
2.476656732,34340,7.256806166,100619,1.780394528,24686,128,6.427407435,89119,9671.875,54784,128
2.54740805,35321,7.309887685,101355,0.06685675,927,128,5.743478029,79636,9691.40625,55424,128
0.58670945,8135,7.616765215,105610,0.130972878,1816,128,4.522675219,62709,9710.9375,56064,128
1.069707998,14832,7.746656268,107411,2.290510808,31759,128,4.579939792,63503,9730.46875,56704,128
2.363353653,32769,7.924075475,109871,0.028560165,396,128,5.559135146,77080,9750,57344,128
1.181568644,16383,7.686434708,106576,0.278389487,3860,128,6.390120553,88602,9769.53125,57984,128
2.432590417,33729,7.37609534,102273,1.181568644,16383,128,6.720437613,93182,9789.0625,58624,128
2.422349146,33587,7.126915112,98818,1.038335089,14397,128,6.761835428,93756,9808.59375,59264,128
2.368907019,32846,7.105855597,98526,1.181568644,16383,128,6.80402658,94341,9828.125,59904,128
2.367608829,32828,7.100734961,98455,1.173491022,16271,128,6.851122004,94994,9847.65625,60544,128
2.363281532,32768,7.094460379,98368,1.155027885,16015,128,6.878600344,95375,9867.1875,61184,128
2.366094275,32807,7.111625327,98606,1.14904179,15932,128,6.945961946,96309,9886.71875,61824,128
0.571780273,7928,7.097345245,98408,1.161302467,16102,128,7.014261128,97256,9906.25,62464,128
0.274639162,3808,7.069073566,98016,1.180991671,16375,128,7.073040256,98071,9925.78125,63104,128
2.365805789,32803,7.063880809,97944,0.110850943,1537,128,7.183963321,99609,9945.3125,63744,128
2.367464586,32826,7.097489488,98410,0.281562839,3904,128,7.260772855,100674,9964.84375,64384,128
2.432518295,33728,7.178698442,99536,0,0,128,7.288467561,101058,9984.375,65024,128
2.368185802,32836,7.225721744,100188,0.009159447,127,128,7.217860486,100079,10003.90625,128,128
2.64967652,36739,7.285726939,101020,0.009159447,127,128,7.004813195,97125,10023.4375,768,128
2.584117959,35830,7.292217886,101110,1.164403697,16145,128,6.869801506,95253,10042.96875,1408,128
2.529377643,35071,7.288467561,101058,1.145291465,15880,128,6.765153022,93802,10062.5,2048,128
2.511491479,34823,7.270509275,100809,1.181568644,16383,128,6.70615753,92984,10082.03125,2688,128
2.433744363,33745,7.225216892,100181,1.173491022,16271,128,6.64196928,92094,10101.5625,3328,128
2.435331039,33767,7.21093681,99983,1.181568644,16383,128,6.668005188,92455,10121.09375,3968,128
2.501755059,34688,7.192040943,99721,1.181568644,16383,128,6.623578265,91839,10140.625,4608,128
2.391913818,33165,7.211297418,99988,1.145219343,15879,128,6.665120323,92415,10160.15625,5248,128
2.365805789,32803,7.18526151,99627,1.165485521,16160,128,6.635478334,92004,10179.6875,5888,128
2.390904116,33151,7.190959119,99706,1.17695286,16319,128,6.67867919,92603,10199.21875,6528,128
2.468867596,34232,7.185766361,99634,1.174644968,16287,128,6.694834434,92827,10218.75,7168,128
2.367825194,32831,7.241804867,100411,1.153801817,15998,128,6.700676286,92908,10238.28125,7808,128
2.381600425,33022,7.162326832,99309,1.116947665,15487,128,6.641680794,92090,10257.8125,8448,128
2.363281532,32768,7.169827481,99413,1.169524332,16216,128,6.54229719,90712,10277.34375,9088,128
2.364363356,32783,7.224567798,100172,1.772749635,24580,128,6.513015808,90306,10296.875,9728,128
2.519136372,34929,7.246132165,100471,1.781909082,24707,128,6.528666202,90523,10316.40625,10368,128
2.365300937,32796,7.272240194,100833,1.781043623,24695,128,6.551240271,90836,10335.9375,11008,128
2.378210709,32975,7.252406746,100558,1.163826724,16137,128,6.523906174,90457,10355.46875,11648,128
2.630924896,36479,7.319335618,101486,1.781548474,24702,128,6.577636788,91202,10375,12288,128
2.36674337,32816,7.292506372,101114,1.77693269,24638,128,6.554413623,90880,10394.53125,12928,128
2.434898309,33761,7.295319116,101153,1.167793413,16192,128,6.56003911,90958,10414.0625,13568,128
2.422132781,33584,7.285654817,101019,1.181352279,16380,128,6.556649394,90911,10433.59375,14208,128
2.593782257,35964,7.31630651,101444,1.772893879,24582,128,6.57951195,91228,10453.125,14848,128
2.381167696,33016,7.347030323,101870,1.181568644,16383,128,6.590690802,91383,10472.65625,15488,128
2.436412863,33782,7.380927489,102340,1.773254487,24587,128,6.627905563,91899,10492.1875,16128,128
2.658619602,36863,7.371768042,102213,1.180991671,16375,128,6.628554658,91908,10511.71875,16768,128
2.695617997,37376,7.427950791,102992,1.774696919,24607,128,6.688199245,92735,10531.25,17408,128
2.82594178,39183,7.409127046,102731,1.18091955,16374,128,6.664471229,92406,10550.78125,18048,128
2.66078325,36893,7.422830155,102921,1.172625562,16259,128,6.693608367,92810,10570.3125,18688,128
2.700738633,37447,7.428383521,102998,1.773615095,24592,128,6.712936963,93078,10589.84375,19328,128
2.867483838,39759,7.422325304,102914,1.16721644,16184,128,6.69952234,92892,10609.375,19968,128
2.663163264,36926,7.431124143,103036,1.181352279,16380,128,6.698368394,92876,10628.90625,20608,128
2.677371225,37123,7.457809145,103406,1.774841163,24609,128,6.730462519,93321,10648.4375,21248,128
2.929796926,40623,7.508582772,104110,1.774552676,24605,128,6.562563367,90993,10667.96875,21888,128
2.939966075,40764,7.573636481,105012,1.190583848,16508,128,6.083315144,84348,10687.5,22528,128
2.477738557,34355,7.795122003,108083,2.361190004,32739,128,4.69764229,65135,10707.03125,23168,128
1.175871036,16304,7.951914424,110257,1.772966,24583,128,4.348934215,60300,10726.5625,23808,128
2.400135684,33279,8.1235639,112637,0.013991596,194,128,5.355680031,74259,10746.09375,24448,128
1.180775306,16372,7.963670249,110420,0.05625487,780,128,5.9644587,82700,10765.625,25088,128
2.43006616,33694,7.586402009,105189,0.589089464,8168,128,6.666490634,92434,10785.15625,25728,128
2.372296735,32893,7.47706562,103673,1.10786034,15361,128,6.813113906,94467,10804.6875,26368,128
2.445788675,33912,7.46379524,103489,1.172481319,16257,128,6.881340966,95413,10824.21875,27008,128
2.396241116,33225,7.456294591,103385,1.149258155,15935,128,6.94661104,96318,10843.75,27648,128
2.659701426,36878,7.47396439,103630,1.181352279,16380,128,7.010510804,97204,10863.28125,28288,128
2.506370843,34752,7.442663603,103196,1.168298265,16199,128,7.051187402,97768,10882.8125,28928,128
2.95035159,40908,7.473820147,103628,8.65E-04,12,128,7.117250814,98684,10902.34375,29568,128
2.881114826,39948,7.48326808,103759,0.14301719,1983,128,7.236900596,100343,10921.875,30208,128
2.381456182,33020,7.472449836,103609,0,0,128,7.302387035,101251,10941.40625,30848,128
2.396673846,33231,7.513414921,104177,0.001009703,14,128,7.431484751,103041,10960.9375,31488,128
2.81043563,38968,7.536998694,104504,0.013703109,190,128,7.453770334,103350,10980.46875,32128,128
2.381167696,33016,7.551062411,104699,0.002163649,30,128,7.386697219,102420,11000,32768,128
2.971915957,41207,7.69847902,106743,7.21E-05,1,128,7.242526083,100421,11019.53125,33408,128
2.363425775,32770,7.740814417,107330,0.009159447,127,128,7.113428368,98631,11039.0625,34048,128
2.400424171,33283,7.73165497,107203,1.181568644,16383,128,6.960025663,96504,11058.59375,34688,128
2.367897316,32832,7.713263954,106948,1.178178928,16336,128,6.902039874,95700,11078.125,35328,128
2.954101915,40960,7.692565047,106661,1.177169225,16322,128,6.861723883,95141,11097.65625,35968,128
2.954029793,40959,7.661192138,106226,1.181568644,16383,128,6.857252342,95079,11117.1875,36608,128
2.954101915,40960,7.692204439,106656,2.068376192,28679,128,6.905718077,95751,11136.71875,37248,128
2.363281532,32768,7.686578952,106578,1.165413399,16159,128,6.924830309,96016,11156.25,37888,128
2.972132322,41210,7.698695385,106746,1.172048589,16251,128,6.968247529,96618,11175.78125,38528,128
2.434681944,33758,7.677924356,106458,1.158561845,16064,128,6.920214524,95952,11195.3125,39168,128
2.654003817,36799,7.657225449,106171,1.171832224,16248,128,6.894899833,95601,11214.84375,39808,128
2.95345282,40951,7.660110314,106211,1.165413399,16159,128,6.917978754,95921,11234.375,40448,128
2.507524789,34768,7.672875842,106388,1.173491022,16271,128,6.933629147,96138,11253.90625,41088,128
2.372224614,32892,7.716725792,106996,1.172409197,16256,128,6.906367172,95760,11273.4375,41728,128
2.371359154,32880,7.698406899,106742,1.178395293,16339,128,6.809579946,94418,11292.96875,42368,128
2.374748871,32927,7.638762312,105915,1.144714492,15872,128,6.797030782,94244,11312.5,43008,128
2.954029793,40959,7.642440515,105966,1.179332874,16352,128,6.785779808,94088,11332.03125,43648,128
2.912559856,40384,7.635949568,105876,1.177169225,16322,128,6.789962863,94146,11351.5625,44288,128
2.936720602,40719,7.619505837,105648,1.172409197,16256,128,6.802800513,94324,11371.09375,44928,128
2.821325996,39119,7.602917862,105418,1.175871036,16304,128,6.798184728,94260,11390.625,45568,128
2.367969438,32833,7.614817931,105583,1.181352279,16380,128,6.821696379,94586,11410.15625,46208,128
2.838923674,39363,7.602989984,105419,1.163754602,16136,128,6.813546635,94473,11429.6875,46848,128
2.398332643,33254,7.604793025,105444,1.18091955,16374,128,6.830639461,94710,11449.21875,47488,128
2.45530873,34044,7.622462824,105689,1.172409197,16256,128,6.850400788,94984,11468.75,48128,128
2.363281532,32768,7.623833135,105708,1.180703185,16371,128,6.858406288,95095,11488.28125,48768,128
2.399270224,33267,7.632343487,105826,1.163105507,16127,128,6.849246842,94968,11507.8125,49408,128
2.917175641,40448,7.653258759,106116,1.165197035,16156,128,6.872614249,95292,11527.34375,50048,128
2.952010387,40931,7.630179838,105796,1.181496523,16382,128,6.847443801,94943,11546.875,50688,128
2.93794667,40736,7.66479822,106276,2.068087705,28675,128,6.873119101,95299,11566.40625,51328,128
2.957635874,41009,7.693430506,106673,2.070107111,28703,128,6.898217428,95647,11585.9375,51968,128
2.381239817,33017,7.698046291,106737,2.074867138,28769,128,6.891582238,95555,11605.46875,52608,128
2.363714261,32774,7.683261357,106532,1.163393994,16131,128,6.869296654,95246,11625,53248,128
2.40128963,33295,7.732376186,107213,1.173274657,16268,128,6.905790199,95752,11644.53125,53888,128
2.437350444,33795,7.775721285,107814,2.08647872,28930,128,6.851122004,94994,11664.0625,54528,128
3.024204138,41932,7.875177011,109193,1.21813431,16890,128,6.236645727,86474,11683.59375,55168,128
2.717542972,37680,8.035287027,111413,0.017958286,249,128,5.242016344,72683,11703.125,55808,128
2.584262202,35832,8.253094346,114433,2.289501105,31745,128,4.618164255,64033,11722.65625,56448,128
3.549538082,49216,8.361060424,115930,0.145397204,2016,128,5.167514702,71650,11742.1875,57088,128
3.674164256,50944,8.40072732,116480,0.064620979,896,128,5.96402597,82694,11761.71875,57728,128
2.492451369,34559,8.066515692,111846,1.140387194,15812,128,6.753757805,93644,11781.25,58368,128
2.529161278,35068,7.841640454,108728,1.144570249,15870,128,7.046571618,97704,11800.78125,59008,128
2.510049046,34803,7.785890434,107955,0.004255176,59,128,7.121722355,98746,11820.3125,59648,128
2.9720602,41209,7.824547628,108491,0.147416609,2044,128,7.185910605,99636,11839.84375,60288,128
2.488773166,34508,7.812286951,108321,0.146767515,2035,128,7.232933907,100288,11859.375,60928,128
2.520723047,34951,7.840414386,108711,0.004038811,56,128,7.267552288,100768,11878.90625,61568,128
3.250738174,45073,7.818200924,108403,0.289063488,4008,128,7.314287104,101416,11898.4375,62208,128
2.98179662,41344,7.811637856,108312,0.004543663,63,128,7.397731828,102573,11917.96875,62848,128
3.180203221,44095,7.836375575,108655,0.009231568,128,128,7.489831148,103850,11937.5,63488,128
2.958140726,41016,7.850295049,108848,5.05E-04,7,128,7.606091214,105462,11957.03125,64128,128
2.995355486,41532,7.883470998,109308,2.16E-04,3,128,7.645685988,106011,11976.5625,64768,128
3.530930702,48958,7.943476193,110140,0.027766827,385,128,7.625347689,105729,11996.09375,65408,128
3.461477573,47995,8.020069363,111202,0.036782031,510,128,7.526324693,104356,12015.625,512,128
3.508212389,48643,8.121977225,112615,2.16E-04,3,128,7.345010918,101842,12035.15625,1152,128
3.52068943,48816,8.099547398,112304,0,0,128,7.208051945,99943,12054.6875,1792,128
2.953813428,40956,8.076756963,111988,0.027694705,384,128,7.117539301,98688,12074.21875,2432,128
3.282399569,45512,8.078199396,112008,0.008149744,113,128,7.098427069,98423,12093.75,3072,128
3.396279621,47091,8.1182269,112563,0.018391015,255,128,7.143575209,99049,12113.28125,3712,128
3.47106975,48128,8.123852387,112641,0.016227366,225,128,7.235890893,100329,12132.8125,4352,128
3.43652349,47649,8.168567797,113261,0.036998396,513,128,7.275702033,100881,12152.34375,4992,128
3.399597216,47137,8.144911903,112933,0.133569256,1852,128,7.186487578,99644,12171.875,5632,128
2.935566656,40703,8.173616311,113331,0.147632974,2047,128,7.200479174,99838,12191.40625,6272,128
3.54283077,49123,8.117000832,112546,0.110778822,1536,128,7.169538995,99409,12210.9375,6912,128
3.278216514,45454,8.107192291,112410,0.060005195,832,128,7.131891505,98887,12230.46875,7552,128
2.933330886,40672,8.09608556,112256,5.05E-04,7,128,7.091287028,98324,12250,8192,128
3.405294824,47216,8.130848185,112738,0.018102529,251,128,7.106721056,98538,12269.53125,8832,128
3.544633811,49148,8.137339132,112828,0.036854152,511,128,7.116962328,98680,12289.0625,9472,128
3.396063256,47088,8.10762502,112416,1.174644968,16287,128,7.073617229,98079,12308.59375,10112,128
3.398299026,47119,8.138276713,112841,0.004543663,63,128,7.098354947,98422,12328.125,10752,128
3.543119257,49127,8.13950278,112858,1.179404995,16353,128,7.094748866,98372,12347.65625,11392,128
3.540306513,49088,8.119452968,112580,1.181496523,16382,128,7.061140187,97906,12367.1875,12032,128
3.540450757,49090,8.11469294,112514,1.179332874,16352,128,7.04887951,97736,12386.71875,12672,128
2.937802427,40734,8.113827481,112502,1.172264954,16254,128,7.042388563,97646,12406.25,13312,128
2.949846739,40901,8.133949415,112781,1.178034684,16334,128,7.04931224,97742,12425.78125,13952,128
2.933835737,40679,8.172750851,113319,2.327004352,32265,128,7.06525112,97963,12445.3125,14592,128
3.528622809,48926,8.144262808,112924,1.172337076,16255,128,7.042749172,97651,12464.84375,15232,128
3.453183586,47880,8.179746649,113416,1.181568644,16383,128,7.049817091,97749,12484.375,15872,128
3.508212389,48643,8.199003124,113683,2.333206813,32351,128,7.059192903,97879,12503.90625,16512,128
3.470781263,48124,8.19128611,113576,1.172914049,16263,128,7.053423173,97799,12523.4375,17152,128
3.541388338,49103,8.240256696,114255,2.349289936,32574,128,7.080036054,98168,12542.96875,17792,128
3.543984716,49139,8.205854679,113778,1.165341278,16158,128,7.05508197,97822,12562.5,18432,128
3.544850176,49151,8.250425845,114396,2.330826799,32318,128,7.056812889,97846,12582.03125,19072,128
3.488378941,48368,8.233837871,114166,2.328518907,32286,128,7.056668646,97844,12601.5625,19712,128
2.951794023,40928,8.182054541,113448,1.170029184,16223,128,6.985196112,96853,12621.09375,20352,128
3.540522878,49091,8.179386041,113411,1.172409197,16256,128,6.951371068,96384,12640.625,20992,128
2.953669185,40954,8.252012521,114418,2.0687368,28684,128,6.871460303,95276,12660.15625,21632,128
4.153628844,57592,8.294203674,115003,0.003894568,54,128,6.769768807,93866,12679.6875,22272,128
3.619207575,50182,8.724048582,120963,0.129241959,1792,128,4.775173041,66210,12718.75,23552,128
3.831173042,53121,8.892164098,123294,0.005697609,79,128,5.116885318,70948,12738.28125,24192,128
4.569554278,63359,8.892885315,123304,1.177097103,16321,128,6.185944222,85771,12757.8125,24832,128
3.99488914,55391,8.609952165,119381,0.588584612,8161,128,6.649109322,92193,12777.34375,25472,128
3.546004122,49167,8.297304904,115046,1.065020092,14767,128,7.085084568,98238,12796.875,26112,128
4.150671858,57551,8.274009618,114723,0.027766827,385,128,7.142493384,99034,12816.40625,26752,128
3.542902892,49124,8.275524172,114744,0.073203453,1015,128,7.183314226,99600,12835.9375,27392,128
3.515063943,48738,8.259657414,114524,0.12931408,1793,128,7.188579105,99673,12855.46875,28032,128
4.15211429,57571,8.275524172,114744,0.286683474,3975,128,7.246060043,100470,12875,28672,128
3.506842078,48624,8.236866979,114208,0.278677974,3864,128,7.29286698,101119,12894.53125,29312,128
3.540595,49092,8.273721132,114719,0.295265948,4094,128,7.370397731,102194,12914.0625,29952,128
3.526747647,48900,8.295501863,115021,0.018318894,254,128,7.524521652,104331,12933.59375,30592,128
4.435985021,61507,8.297377026,115047,0.589666437,8176,128,7.635661082,105872,12953.125,31232,128
4.51430911,62593,8.360988302,115929,0.008366109,116,128,7.778894636,107858,12972.65625,31872,128
4.712643589,65343,8.43440812,116947,0.004038811,56,128,7.742689579,107356,12992.1875,32512,128
4.726490942,65535,8.562640376,118725,0.073203453,1015,128,7.675039491,106418,13011.71875,33152,128
4.725481239,65521,8.598484826,119222,0.016227366,225,128,7.417421033,102846,13031.25,33792,128
4.440240197,61566,8.554634876,118614,0.229635266,3184,128,7.249882489,100523,13050.78125,34432,128
4.710335697,65311,8.528743211,118255,0.140276568,1945,128,7.157278318,99239,13070.3125,35072,128
4.657254178,64575,8.532998387,118314,0.073780426,1023,128,7.138598816,98980,13089.84375,35712,128
4.673409423,64799,8.500110924,117858,0.039234166,544,128,7.129511491,98854,13109.375,36352,128
4.359031243,60440,8.508621276,117976,0.073780426,1023,128,7.165572305,99354,13128.90625,36992,128
4.430431656,61430,8.491167842,117734,0.072698602,1008,128,7.156845588,99233,13148.4375,37632,128
4.43108075,61439,8.4963606,117806,0.143233555,1986,128,7.201128268,99847,13167.96875,38272,128
4.670091828,64753,8.481792031,117604,0.136742608,1896,128,7.195214295,99765,13187.5,38912,128
4.613692714,63971,8.497730911,117825,0.145397204,2016,128,7.220601108,100117,13207.03125,39552,128
4.721947279,65472,8.506385506,117945,0.281202231,3899,128,7.218725946,100091,13226.5625,40192,128
4.666846355,64708,8.50790006,117966,0.147128123,2040,128,7.203941012,99886,13246.09375,40832,128
4.656172354,64560,8.49946183,117849,0.144315379,2001,128,7.189588808,99687,13265.625,41472,128
4.608355714,63897,8.478690801,117561,0.146839636,2036,128,7.185982726,99637,13285.15625,42112,128
4.43108075,61439,8.501913965,117883,0.137824433,1911,128,7.180429361,99560,13304.6875,42752,128
4.69894048,65153,8.504870952,117924,0.145325082,2015,128,7.195142173,99764,13324.21875,43392,128
4.357300324,60416,8.524776521,118200,0.147632974,2047,128,7.205527688,99908,13343.75,44032,128
4.412978222,61188,8.527877751,118243,0.147344488,2043,128,7.222764757,100147,13363.28125,44672,128
4.678097329,64864,8.486479936,117669,0.1107067,1535,128,7.168601414,99396,13382.8125,45312,128
4.430575899,61432,8.502058208,117885,0.111716403,1549,128,7.182881496,99594,13402.34375,45952,128
4.607634498,63887,8.485398112,117654,0.118712201,1646,128,7.17862632,99535,13421.875,46592,128
4.426537088,61376,8.497730911,117825,0.145397204,2016,128,7.20343616,99879,13441.40625,47232,128
4.687328897,64992,8.518574061,118114,0.13241531,1836,128,7.203508282,99880,13460.9375,47872,128
4.708099926,65280,8.547783321,118519,0.147128123,2040,128,7.234015731,100303,13480.46875,48512,128
4.653215367,64519,8.517131629,118094,0.110850943,1537,128,7.224639919,100173,13500,49152,128
4.42220979,61316,8.571078607,118842,0.293102299,4064,128,7.288106953,101053,13519.53125,49792,128
4.726058212,65529,8.560981579,118702,0.291876232,4047,128,7.259907396,100662,13539.0625,50432,128
4.726490942,65535,8.554130024,118607,0.293390786,4068,128,7.277649317,100908,13558.59375,51072,128
4.708027805,65279,8.57208831,118856,0.267643364,3711,128,7.288900291,101064,13578.125,51712,128
4.431152872,61440,8.583339284,119012,0.292813813,4060,128,7.308228887,101332,13597.65625,52352,128
4.722235766,65476,8.538046901,118384,0.287260447,3983,128,7.272240194,100833,13617.1875,52992,128
4.70737871,65270,8.545403307,118486,0.285962258,3965,128,7.263297112,100709,13636.71875,53632,128
4.444928103,61631,8.595383596,119179,0.286106501,3967,128,7.25168553,100548,13656.25,54272,128
4.431224994,61441,8.639666276,119793,0.00223577,31,128,6.995148897,96991,13675.78125,54912,128
4.597321105,63744,8.794799899,121944,1.21899977,16902,128,5.626352504,78012,13695.3125,55552,128
4.726490942,65535,8.978277323,124488,0.009087325,126,128,4.970911142,68924,13714.84375,56192,128
4.690213763,65032,9.128290311,126568,0.010097028,140,128,5.350415152,74186,13734.375,56832,128
4.652638394,64511,9.170697829,127156,1.171399495,16242,128,6.219985631,86243,13753.90625,57472,128
4.278904114,59329,8.982820986,124551,1.029536251,14275,128,6.888408886,95511,13773.4375,58112,128
4.666485747,64703,8.653008777,119978,0.132126824,1832,128,7.520843449,104280,13792.96875,58752,128
4.431152872,61440,8.665197333,120147,0.590099167,8182,128,7.647777515,106040,13812.5,59392,128
4.431152872,61440,8.678395591,120330,0,0,128,7.634651379,105858,13832.03125,60032,128
4.439158373,61551,8.60887034,119366,0.589954923,8180,128,7.598806929,105361,13851.5625,60672,128
4.599556875,63775,8.569780418,118824,0.582598517,8078,128,7.590657185,105248,13871.09375,61312,128
4.43548017,61500,8.602884245,119283,0.586204599,8128,128,7.663572152,106259,13890.625,61952,128
4.652854759,64514,8.571944067,118854,1.164331575,16144,128,7.700354183,106769,13910.15625,62592,128
4.459063942,61827,8.595311474,119178,1.145724195,15886,128,7.826711276,108521,13929.6875,63232,128
4.648238975,64450,8.631660775,119682,1.181568644,16383,128,7.927320949,109916,13949.21875,63872,128
4.717836346,65415,8.666062792,120159,0.004110933,57,128,8.02345908,111249,13968.75,64512,128
3.563457556,49409,8.716115202,120853,0,0,128,8.031825189,111365,13988.28125,65152,128
3.754940481,52064,8.834971647,122501,0.036637787,508,128,7.93669676,110046,14007.8125,256,128
3.617476656,50158,8.871393069,123006,0.003461838,48,128,7.768292757,107711,14027.34375,896,128
3.590503167,49784,8.803166008,122060,0.581805179,8067,128,7.527262274,104369,14046.875,1536,128
3.544922298,49152,8.827687362,122400,0.59024341,8184,128,7.46776193,103544,14066.40625,2176,128
4.689708911,65025,8.826605538,122385,0.590171288,8183,128,7.457087929,103396,14085.9375,2816,128
4.726346699,65533,8.824441889,122355,0.588945221,8166,128,7.444106036,103216,14105.46875,3456,128
4.65956207,64607,8.813767888,122207,0.563342042,7811,128,7.431628994,103043,14125,4096,128
4.698796236,65151,8.816869118,122250,0.555048055,7696,128,7.459251578,103426,14144.53125,4736,128
4.715239968,65379,8.850405675,122715,0.581588814,8064,128,7.499134838,103979,14164.0625,5376,128
4.703772629,65220,8.87233065,123019,0.574593016,7967,128,7.517309489,104231,14183.59375,6016,128
4.725409117,65520,8.856319649,122797,0.590387653,8186,128,7.486225067,103800,14203.125,6656,128
4.431369237,61443,8.868003353,122959,0.00223577,31,128,7.481320796,103732,14222.65625,7296,128
4.135742681,57344,8.85372327,122761,0.556129879,7711,128,7.455212767,103370,14242.1875,7936,128
4.595518064,63719,8.87896584,123111,0.52071816,7220,128,7.462857659,103476,14261.71875,8576,128
4.149590033,57536,8.902549613,123438,0.59067614,8190,128,7.453770334,103350,14281.25,9216,128
4.624799445,64125,8.911204208,123558,0.589954923,8180,128,7.458818848,103420,14300.78125,9856,128
4.708965386,65292,8.920075169,123681,0.586204599,8128,128,7.451318199,103316,14320.3125,10496,128
4.726490942,65535,8.937889211,123928,0.590459775,8187,128,7.460333402,103441,14339.84375,11136,128
4.670885166,64764,8.976041553,124457,0.589666437,8176,128,7.481392918,103733,14359.375,11776,128
4.72598609,65528,8.960679646,124244,0.571780273,7928,128,7.46422797,103495,14378.90625,12416,128
4.716754522,65400,8.981739161,124536,0.581805179,8067,128,7.478075323,103687,14398.4375,13056,128
4.69454106,65092,8.992052554,124679,0.588512491,8160,128,7.471151647,103591,14417.96875,13696,128
4.718269076,65421,9.002870798,124829,0.590748261,8191,128,7.495528757,103929,14437.5,14336,128
4.725409117,65520,9.008496285,124907,0.57697303,8000,128,7.479301391,103704,14457.03125,14976,128
4.595518064,63719,9.025805476,125147,0.58627672,8129,128,7.490119635,103854,14476.5625,15616,128
4.136824505,57359,9.028690342,125187,0.586204599,8128,128,7.466824349,103531,14496.09375,16256,128
4.688482843,65008,9.025589112,125144,0.572573611,7939,128,7.476128039,103660,14515.625,16896,128
4.654441435,64536,9.03482068,125272,0.582093666,8071,128,7.487162648,103813,14535.15625,17536,128
4.154133696,57599,9.071386346,125779,0.572357246,7936,128,7.504255474,104050,14554.6875,18176,128
4.726490942,65535,9.009073259,124915,0.579280922,8032,128,7.448649698,103279,14574.21875,18816,128
4.65379234,64527,9.024290922,125126,0.55879838,7748,128,7.542696302,104583,14593.75,19456,128
4.140214222,57406,9.032368545,125238,0.572285124,7935,128,7.583661387,105151,14613.28125,20096,128
4.719495144,65438,9.112856282,126354,0.013775231,191,128,7.561303682,104841,14632.8125,20736,128
4.634463744,64259,9.047730452,125451,0.534277026,7408,128,7.443889671,103213,14652.34375,21376,128
4.655595381,64552,9.11804904,126426,0.018318894,254,128,7.080829392,98179,14671.875,22016,128
4.689853154,65027,9.179352424,127276,1.794963097,24888,128,6.400217581,88742,14691.40625,22656,128
4.698219263,65143,9.314003505,129143,0.142728703,1979,128,5.459463055,75698,14710.9375,23296,128
9.51745862,131964,9.56794376,132664,0.081858049,1135,128,5.233938722,72571,14730.46875,23936,128
9.45766979,131135,9.756541819,135279,1.217990067,16888,128,6.079204211,84291,14750,24576,128
9.730145303,134913,9.454929168,131097,1.18048682,16368,128,6.885812507,95475,14769.53125,25216,128
4.717331495,65408,9.139685528,126726,0,0,128,7.27736083,100904,14789.0625,25856,128
4.579074333,63491,8.973228809,124418,0.501966536,6960,128,7.43855267,103139,14808.59375,26496,128
4.687545262,64995,8.996019244,124734,0.571708151,7927,128,7.52178103,104293,14828.125,27136,128
4.708604778,65287,8.997101068,124749,0.57697303,8000,128,7.539667194,104541,14847.65625,27776,128
4.135742681,57344,9.012535097,124963,0.585627626,8120,128,7.591955375,105266,14867.1875,28416,128
4.69187256,65055,8.988734959,124633,0.590748261,8191,128,7.606740309,105471,14886.71875,29056,128
4.721947279,65472,9.008496285,124907,0.572573611,7939,128,7.702301467,106796,14906.25,29696,128
4.207287336,58336,9.008568407,124908,1.178106806,16335,128,7.769446703,107727,14925.78125,30336,128
4.726274577,65532,9.045638924,125422,1.180558941,16369,128,7.923570624,109864,14945.3125,30976,128
4.688410722,65007,9.047153479,125443,1.181496523,16382,128,7.949750775,110227,14964.84375,31616,128
4.20966735,58369,9.122881189,126493,0.003317595,46,128,7.983431576,110694,14984.375,32256,128
4.588594388,63623,9.171996018,127174,0.004543663,63,128,7.921911826,109841,15003.90625,32896,128
4.574170062,63423,9.244478255,128179,0.03454626,479,128,7.82065306,108437,15023.4375,33536,128
4.722812739,65484,9.30845014,129066,0.018318894,254,128,7.654340584,106131,15042.96875,34176,128
4.578208873,63479,9.283856664,128725,0.590531896,8188,128,7.568443724,104940,15062.5,34816,128
4.708532656,65286,9.264600189,128458,0.576468179,7993,128,7.516155543,104215,15082.03125,35456,128
4.654874164,64542,9.265032919,128464,0.558509893,7744,128,7.511756124,104154,15101.5625,36096,128
4.46339124,61887,9.273254785,128578,0.572357246,7936,128,7.513126434,104173,15121.09375,36736,128
4.467790659,61948,9.253637702,128306,0.581588814,8064,128,7.521997395,104296,15140.625,37376,128
4.724255171,65504,9.238997011,128103,0.581588814,8064,128,7.526108328,104353,15160.15625,38016,128
4.510270299,62537,9.275490555,128609,0.572934219,7944,128,7.557553358,104789,15179.6875,38656,128
4.67990037,64889,9.258758337,128377,0.585050653,8112,128,7.564549156,104886,15199.21875,39296,128
4.436994724,61521,9.258109243,128368,0.572862097,7943,128,7.574069211,105018,15218.75,39936,128
4.576405832,63454,9.284505759,128734,0,0,128,7.570535251,104969,15238.28125,40576,128
4.468295511,61955,9.274048123,128589,0.563342042,7811,128,7.538945978,104531,15257.8125,41216,128
4.578785846,63487,9.278519664,128651,0.590099167,8182,128,7.545653289,104624,15277.34375,41856,128
4.44521659,61635,9.248589188,128236,0.588368248,8158,128,7.490480243,103859,15296.875,42496,128
4.467862781,61949,9.271668109,128556,0.578054855,8015,128,7.515506448,104206,15316.40625,43136,128
4.70514294,65239,9.27924088,128661,0.586637328,8134,128,7.528776828,104390,15335.9375,43776,128
4.574747035,63431,9.277221474,128633,0.572357246,7936,128,7.537431423,104510,15355.46875,44416,128
4.43194621,61451,9.223130253,127883,0.587214301,8142,128,7.483195959,103758,15375,45056,128
4.726202455,65531,9.227096942,127938,0.590748261,8191,128,7.500505149,103998,15394.53125,45696,128
4.465554889,61917,9.2659705,128477,0.59067614,8190,128,7.529209558,104396,15414.0625,46336,128
4.690718614,65039,9.261498959,128415,0.588440369,8159,128,7.503750623,104043,15433.59375,46976,128
4.441394143,61582,9.254214675,128314,0.576396057,7992,128,7.521059814,104283,15453.125,47616,128
4.541931694,62976,9.269720825,128529,0.590315532,8185,128,7.597220254,105339,15472.65625,48256,128
4.540128653,62951,9.252267391,128287,0.58670945,8135,128,7.648066002,106044,15492.1875,48896,128
4.657182057,64574,9.314364113,129148,1.180991671,16375,128,7.682323776,106519,15511.71875,49536,128
4.504933298,62463,9.295324003,128884,0.570049354,7904,128,7.591955375,105266,15531.25,50176,128
4.66706272,64711,9.260849865,128406,0.572357246,7936,128,7.556255168,104771,15550.78125,50816,128
4.726490942,65535,9.259695919,128390,0.574881503,7971,128,7.519401016,104260,15570.3125,51456,128
4.433244399,61469,9.238131552,128091,0.567452975,7868,128,7.526829544,104363,15589.84375,52096,128
4.472550687,62014,9.272966298,128574,0.581588814,8064,128,7.545797532,104626,15609.375,52736,128
4.569626399,63360,9.287534867,128776,0.583896707,8096,128,7.569237062,104951,15628.90625,53376,128
4.449327522,61692,9.244838863,128184,0.567741462,7872,128,7.546807235,104640,15648.4375,54016,128
4.465915497,61922,9.373143241,129963,0.041253572,572,128,7.459035213,103423,15667.96875,54656,128
4.68963679,65024,9.416921069,130570,2.225889829,30863,128,7.008996249,97183,15687.5,55296,128
9.508731903,131843,9.653119403,133845,1.181640766,16384,128,5.686646186,78848,15707.03125,55936,128
9.468127426,131280,9.76368186,135378,0.050773627,704,128,5.294304525,73408,15726.5625,56576,128
9.891553508,137151,9.950837487,137973,0.001081824,15,128,6.187963627,85799,15746.09375,57216,128
9.748031467,135161,9.830394367,136303,1.114711894,15456,128,6.849463206,94971,15765.625,57856,128
9.55510611,132486,9.55553884,132492,0.110778822,1536,128,7.323158064,101539,15785.15625,58496,128
4.661869962,64639,9.271235379,128550,0.537810986,7457,128,7.702085102,106793,15804.6875,59136,128
4.435696535,61503,9.216206576,127787,1.173491022,16271,128,7.71838459,107019,15824.21875,59776,128
4.506087244,62479,9.236977605,128075,1.163610359,16134,128,7.802983261,108192,15843.75,60416,128
4.615495755,63996,9.224933293,127908,1.181063793,16376,128,7.825485209,108504,15863.28125,61056,128
4.442620211,61599,9.246353417,128205,1.152792114,15984,128,7.939942234,110091,15882.8125,61696,128
4.72598609,65528,9.267917784,128504,1.167721292,16191,128,7.999081969,110911,15902.34375,62336,128
4.65379234,64527,9.233660011,128029,1.177241347,16323,128,8.046898609,111574,15921.875,62976,128
4.435552291,61501,9.252267391,128287,1.166639467,16176,128,8.185372136,113494,15941.40625,63616,128
4.703484142,65216,9.28234211,128704,1.181424401,16381,128,8.257421643,114493,15960.9375,64256,128
4.578785846,63487,9.323451438,129274,1.209335471,16768,128,8.319878974,115359,15980.46875,64896,128
4.579074333,63491,9.358718915,129763,1.186184428,16447,128,8.275956902,114750,16000,0,128
4.726490942,65535,9.423772624,130665,2.16E-04,3,128,8.084978829,112102,16019.53125,640,128
4.726490942,65535,9.433076314,130794,1.179837725,16359,128,7.925734273,109894,16039.0625,1280,128
4.726490942,65535,9.464232858,131226,1.146806019,15901,128,7.798223233,108126,16058.59375,1920,128
9.455289776,131102,9.466901358,131263,1.158201237,16059,128,7.776226136,107821,16078.125,2560,128
4.691367709,65048,9.427234462,130713,1.181568644,16383,128,7.713840927,106956,16097.65625,3200,128
4.717259373,65407,9.462934668,131208,1.175149819,16294,128,7.762090297,107625,16117.1875,3840,128
9.462862547,131207,9.464016493,131223,1.164043088,16140,128,7.775000069,107804,16136.71875,4480,128
4.723533955,65494,9.448726708,131011,1.163249751,16129,128,7.801035977,108165,16156.25,5120,128
4.726058212,65529,9.447428518,130993,1.164187332,16142,128,7.810628153,108298,16175.78125,5760,128
4.723894563,65499,9.440649085,130899,1.153873939,15999,128,7.84192894,108732,16195.3125,6400,128
9.454857046,131096,9.455073411,131099,0,0,128,7.870849713,109133,16214.84375,7040,128
9.460049803,131168,9.469569858,131300,1.179044387,16348,128,7.890394675,109404,16234.375,7680,128
9.455145533,131100,9.47007471,131307,1.165629764,16162,128,7.887509809,109364,16253.90625,8320,128
9.492576658,131619,9.492576658,131619,1.180558941,16369,128,7.987686752,110753,16273.4375,8960,128
9.522146526,132029,9.512554349,131896,1.180775306,16372,128,8.005500794,111000,16292.96875,9600,128
9.600542736,133116,9.554096407,132472,1.181568644,16383,128,8.002543807,110959,16312.5,10240,128
9.504837335,131789,9.46567529,131246,1.125097409,15600,128,7.853829009,108897,16332.03125,10880,128
4.717331495,65408,9.434735112,130817,1.181280158,16379,128,7.799665666,108146,16351.5625,11520,128
9.453630978,131079,9.437403612,130854,1.181568644,16383,128,7.770817014,107746,16371.09375,12160,128
4.725481239,65521,9.403578568,130385,1.181424401,16381,128,7.749108404,107445,16390.625,12800,128
4.717331495,65408,9.436249666,130838,1.180270455,16365,128,7.782861326,107913,16410.15625,13440,128
4.724543658,65508,9.408482839,130453,1.180198333,16364,128,7.748315066,107434,16429.6875,14080,128
4.725336996,65519,9.401126433,130351,0.004327298,60,128,7.7400932,107320,16449.21875,14720,128
4.726274577,65532,9.409204055,130463,0.001730919,24,128,7.769374582,107726,16468.75,15360,128
4.661581476,64635,9.414613177,130538,1.173274657,16268,128,7.749324769,107448,16488.28125,16000,128
4.725913969,65527,9.453126127,131072,0.008077622,112,128,7.793463206,108060,16507.8125,16640,128
4.717187252,65406,9.422402313,130646,1.144858735,15874,128,7.768797608,107718,16527.34375,17280,128
4.72598609,65528,9.406391311,130424,1.177529833,16327,128,7.741751998,107343,16546.875,17920,128
4.68963679,65024,9.395500946,130273,1.163393994,16131,128,7.711821522,106928,16566.40625,18560,128
4.661437233,64633,9.384682701,130123,1.135987775,15751,128,7.701940859,106791,16585.9375,19200,128
4.708316291,65283,9.422762921,130651,1.172409197,16256,128,7.721557942,107063,16605.46875,19840,128
4.690141641,65031,9.418435623,130591,1.18048682,16368,128,7.728048888,107153,16625,20480,128
4.708099926,65280,9.46257406,131203,1.181496523,16382,128,7.775000069,107804,16644.53125,21120,128
9.453630978,131079,9.48247963,131479,7.21E-05,1,128,7.683189235,106531,16664.0625,21760,128
9.45766979,131135,9.624487117,133448,0.011395217,158,128,7.107802881,98553,16683.59375,22400,128
9.508515538,131840,9.734688966,134976,1.255998165,17415,128,6.149739164,85269,16703.125,23040,128
9.896241414,137216,9.897251117,137230,0.073275575,1016,128,5.529276792,76666,16722.65625,23680,128
9.709230031,134623,10.11635663,140268,2.16E-04,3,128,6.045162802,83819,16742.1875,24320,128
10.41782503,144448,10.12364091,140369,1.181352279,16380,128,6.789602255,94141,16761.71875,24960,128
9.596143317,133055,9.74283871,135089,0.222062495,3079,128,7.52488226,104336,16781.25,25600,128
9.526906553,132095,9.5130592,131903,1.172914049,16263,128,7.792958354,108053,16800.78125,26240,128
9.481037197,131459,9.466035898,131251,1.145796316,15887,128,7.879937038,109259,16820.3125,26880,128
9.489186941,131572,9.485725103,131524,1.161951561,16111,128,7.919243326,109804,16839.84375,27520,128
9.453558857,131078,9.484571157,131508,1.153513331,15994,128,7.947370761,110194,16859.375,28160,128
9.526906553,132095,9.500365794,131727,1.163538237,16133,128,7.994898915,110853,16878.90625,28800,128
9.487744509,131552,9.513131322,131904,0.008077622,112,128,8.055697448,111696,16898.4375,29440,128
9.45413583,131086,9.49401909,131639,1.163177629,16128,128,8.106831683,112405,16917.96875,30080,128
9.462357695,131200,9.481542049,131466,1.18048682,16368,128,8.178304217,113396,16937.5,30720,128
9.511977376,131888,9.505486429,131798,1.181063793,16376,128,8.291463052,114965,16957.03125,31360,128
9.528781715,132121,9.54493696,132345,1.20883062,16761,128,8.334447543,115561,16976.5625,32000,128
9.596215438,133056,9.623044684,133428,1.218422797,16894,128,8.327019015,115458,16996.09375,32640,128
9.68442019,134279,9.686728083,134311,0.016083123,223,128,8.21342745,113883,17015.625,33280,128
9.526690188,132092,9.729784695,134908,0.035123233,487,128,8.085555802,112110,17035.15625,33920,128
9.748464197,135167,9.761662455,135350,1.179404995,16353,128,8.04516769,111550,17054.6875,34560,128
9.748752683,135171,9.778683159,135586,1.181352279,16380,128,8.011559011,111084,17074.21875,35200,128
9.460049803,131168,9.822244623,136190,0,0,128,7.946216815,110178,17093.75,35840,128
9.464809831,131234,9.760508509,135334,1.176880738,16318,128,7.859093888,108970,17113.28125,36480,128
9.73000106,134911,9.731443492,134931,1.153873939,15999,128,7.811205126,108306,17132.8125,37120,128
9.521641674,132022,9.743199318,135094,1.170101305,16224,128,7.833346466,108613,17152.34375,37760,128
9.710456098,134640,9.706056679,134579,1.180991671,16375,128,7.810339667,108294,17171.875,38400,128
9.711610044,134656,9.71449491,134696,1.179044387,16348,128,7.853252036,108889,17191.40625,39040,128
9.713773693,134686,9.71362945,134684,1.177241347,16323,128,7.861473901,109003,17210.9375,39680,128
9.585180829,132903,9.744281142,135109,0.035483841,492,128,7.870561227,109129,17230.46875,40320,128
9.730289546,134915,9.712114896,134663,1.179332874,16352,128,7.844525319,108768,17250,40960,128
9.595061492,133040,9.71276399,134672,0.009159447,127,128,7.823682168,108479,17269.53125,41600,128
9.690839015,134368,9.686944447,134314,1.181568644,16383,128,7.791083192,108027,17289.0625,42240,128
9.743920534,135104,9.698844516,134479,1.178467414,16340,128,7.78834257,107989,17308.59375,42880,128
9.582223842,132862,9.723293748,134818,1.181496523,16382,128,7.817840316,108398,17328.125,43520,128
9.748319953,135165,9.737934439,135021,0.004327298,60,128,7.812503316,108324,17347.65625,44160,128
9.747959345,135160,9.739376872,135041,0.004471541,62,128,7.826639155,108520,17367.1875,44800,128
9.764619442,135391,9.783010457,135646,1.179477117,16354,128,7.847265941,108806,17386.71875,45440,128
9.898477185,137247,9.765484901,135403,0,0,128,7.825701574,108507,17406.25,46080,128
9.471012291,131320,9.816691258,136113,1.179837725,16359,128,7.838106494,108679,17425.78125,46720,128
9.785462592,135680,9.78091893,135617,1.181568644,16383,128,7.798006868,108123,17445.3125,47360,128
9.784236525,135663,9.818854906,136143,1.146445411,15896,128,7.830100993,108568,17464.84375,48000,128
9.518756809,131982,9.814167001,136078,1.168298265,16199,128,7.816758492,108383,17484.375,48640,128
9.564770408,132620,9.827942232,136269,1.181568644,16383,128,7.81892214,108413,17503.90625,49280,128
9.785318349,135678,9.815320947,136094,1.143560546,15856,128,7.847121697,108804,17523.4375,49920,128
9.546812123,132371,9.815609433,136098,1.163754602,16136,128,7.814450599,108351,17542.96875,50560,128
9.757695765,135295,9.810200311,136023,1.146445411,15896,128,7.792814111,108051,17562.5,51200,128
9.794694161,135808,9.783875916,135658,1.18048682,16368,128,7.791588043,108034,17582.03125,51840,128
9.529358689,132129,9.834721665,136363,1.151061195,15960,128,7.797285652,108113,17601.5625,52480,128
9.482840238,131484,9.840491395,136443,1.180703185,16371,128,7.791660165,108035,17621.09375,53120,128
9.748536318,135168,9.836668949,136390,1.162023683,16112,128,7.772259447,107766,17640.625,53760,128
9.990864991,138528,9.843159895,136480,1.162600656,16120,128,7.735621659,107258,17660.15625,54400,128
9.969516989,138232,9.951053852,137976,0.013703109,190,128,7.287890588,101050,17679.6875,55040,128
9.485220252,131517,10.06623209,139573,1.775922987,24624,128,6.556721515,90912,17699.21875,55680,128
9.526690188,132092,10.2746636,142463,0.009159447,127,128,5.447418743,75531,17718.75,56320,128
10.42986935,144615,10.43044632,144623,0.064909466,900,128,5.872215137,81421,17738.28125,56960,128
9.471661385,131329,10.41378622,144392,1.178178928,16336,128,6.961612339,96526,17757.8125,57600,128
9.455361897,131103,10.11909725,140306,0.300242341,4163,128,7.419440439,102874,17777.34375,58240,128
9.600542736,133116,9.867681249,136820,1.02463198,14207,128,7.763244243,107641,17796.875,58880,128
9.5130592,131903,9.806233621,135968,1.16368248,16135,128,7.884841309,109327,17816.40625,59520,128
9.820008852,136159,9.814960338,136089,1.180991671,16375,128,7.930422179,109959,17835.9375,60160,128
9.762383671,135360,9.75834486,135304,1.12603499,15613,128,7.919892421,109813,17855.46875,60800,128
9.592681479,133007,9.733030168,134953,1.173491022,16271,128,7.932874314,109993,17875,61440,128
9.711610044,134656,9.707138503,134594,1.181568644,16383,128,7.998360753,110901,17894.53125,62080,128
9.469281372,131296,9.760508509,135334,1.178755901,16344,128,8.162437458,113176,17914.0625,62720,128
9.453630978,131079,9.753656954,135239,4.33E-04,6,128,8.27941874,114798,17933.59375,63360,128
9.462862547,131207,9.795775985,135823,0.147416609,2044,128,8.377359912,116156,17953.125,64000,128
9.757190914,135288,9.820225217,136162,1.181929252,16388,128,8.389476346,116324,17972.65625,64640,128
9.53296477,132179,9.855997545,136658,0.035555963,493,128,8.307041324,115181,17992.1875,65280,128
9.486806928,131539,9.929922215,137683,0.036565666,507,128,8.187968515,113530,18011.71875,384,128
9.47187775,131332,9.973267314,138284,0.001009703,14,128,7.988335846,110762,18031.25,1024,128
10.00752509,138759,10.00867903,138775,0.008077622,112,128,7.909434785,109668,18050.78125,1664,128
9.97442126,138300,9.967713948,138207,1.177024982,16320,128,7.800603247,108159,18070.3125,2304,128
9.969516989,138232,9.962593313,138136,1.180414698,16367,128,7.806372977,108239,18089.84375,2944,128
9.508515538,131840,9.951702947,137985,1.177529833,16327,128,7.788991665,107998,18109.375,3584,128
9.61886163,133370,9.948890203,137946,1.172337076,16255,128,7.816758492,108383,18128.90625,4224,128
9.905400861,137343,9.968002435,138211,1.153369087,15992,128,7.835942845,108649,18148.4375,4864,128
9.743920534,135104,9.974709746,138304,0.002812744,39,128,7.863493307,109031,18167.96875,5504,128
9.926244012,137632,9.964179988,138158,1.172409197,16256,128,7.87467216,109186,18187.5,6144,128
10.0115639,138815,10.03002704,139071,0.004038811,56,128,7.90835296,109653,18207.03125,6784,128
10.03529191,139144,10.01819909,138907,1.181063793,16376,128,7.882605539,109296,18226.5625,7424,128
9.525680485,132078,10.03341675,139118,5.05E-04,7,128,7.903232325,109582,18246.09375,8064,128
9.746228426,135136,10.02346397,138980,0.006779433,94,128,7.852891428,108884,18265.625,8704,128
10.03983558,139207,10.03969133,139205,1.173491022,16271,128,7.849934441,108843,18285.15625,9344,128
10.03060401,139079,9.994254708,138575,1.181135914,16377,128,7.777235839,107835,18304.6875,9984,128
9.453630978,131079,10.00976086,138790,1.167721292,16191,128,7.813224532,108334,18324.21875,10624,128
9.454207951,131087,10.01387179,138847,1.179549239,16355,128,7.805796004,108231,18343.75,11264,128
9.738727777,135032,10.03413797,139128,1.17918863,16350,128,7.825773695,108508,18363.28125,11904,128
10.03493131,139139,10.03493131,139139,1.164331575,16144,128,7.822383979,108461,18382.8125,12544,128
10.04279256,139248,10.03276766,139109,1.181352279,16380,128,7.827865222,108537,18402.34375,13184,128
10.04611016,139294,10.0645733,139550,1.181135914,16377,128,7.844164711,108763,18421.875,13824,128
9.453198249,131073,10.04877866,139331,1.176303765,16310,128,7.813801505,108342,18441.40625,14464,128
9.453198249,131073,10.04863442,139329,1.177024982,16320,128,7.825845817,108509,18460.9375,15104,128
10.05317808,139392,10.05736113,139450,1.181063793,16376,128,7.827793101,108536,18480.46875,15744,128
9.453126127,131072,10.07236243,139658,1.179332874,16352,128,7.835870723,108648,18500,16384,128
10.04365802,139260,10.06998242,139625,1.145868438,15888,128,7.846328359,108793,18519.53125,17024,128
10.04964412,139343,10.0692612,139615,1.163393994,16131,128,7.83175979,108591,18539.0625,17664,128
9.461420114,131187,10.08570493,139843,1.176448009,16312,128,7.859093888,108970,18558.59375,18304,128
9.455361897,131103,10.09464801,139967,1.181135914,16377,128,7.86493574,109051,18578.125,18944,128
9.460266168,131171,10.0859213,139846,1.172914049,16263,128,7.857146604,108943,18597.65625,19584,128
9.526401702,132088,10.08202673,139792,1.164259453,16143,128,7.847915035,108815,18617.1875,20224,128
9.746228426,135136,10.02368033,138983,1.167793413,16192,128,7.814955451,108358,18636.71875,20864,128
10.07971884,139760,10.10301412,140083,0.002884865,40,128,7.803704477,108202,18656.25,21504,128
9.52676231,132093,10.16922178,141001,0,0,128,7.534113828,104464,18675.78125,22144,128
9.73930475,135040,10.29060248,142684,2.139848726,29670,128,6.399207878,88728,18695.3125,22784,128
10.60007639,146975,10.42633539,144566,0.032743219,454,128,5.573415229,77278,18714.84375,23424,128
9.454207951,131087,10.53199357,146031,0.050773627,704,128,5.513049425,76441,18734.375,24064,128
10.63476689,147456,10.6394548,147521,1.181424401,16381,128,6.788736795,94129,18753.90625,24704,128
9.453126127,131072,10.40628557,144288,0.457179005,6339,128,7.456438834,103387,18773.4375,25344,128
9.455289776,131102,10.06688119,139582,1.039777522,14417,128,8.037306432,111441,18792.96875,25984,128
9.453342492,131075,10.07156909,139647,1.144714492,15872,128,8.127242103,112688,18812.5,26624,128
9.970526692,138246,9.990143775,138518,1.121779814,15554,128,8.063919313,111810,18832.03125,27264,128
10.02548337,139008,9.974709746,138304,1.118245854,15505,128,8.060385354,111761,18851.5625,27904,128
9.970598813,138247,9.992379545,138549,1.163177629,16128,128,8.108562602,112429,18871.09375,28544,128
10.02086759,138944,9.98105645,138392,1.172409197,16256,128,8.145128267,112936,18890.625,29184,128
9.746516913,135140,9.961727853,138124,1.172409197,16256,128,8.190997623,113572,18910.15625,29824,128
9.530440513,132144,9.977017638,138336,0.02127588,295,128,8.29268912,114982,18929.6875,30464,128
10.04373014,139261,10.00680387,138749,1.19289174,16540,128,8.377071426,116152,18949.21875,31104,128
9.593835425,133023,10.03687859,139166,0.295121705,4092,128,8.486479936,117669,18968.75,31744,128
10.07618488,139711,10.07596851,139708,1.199815416,16636,128,8.468521651,117420,18988.28125,32384,128
10.19150736,141310,10.21804812,141678,1.183660171,16412,128,8.419046214,116734,19007.8125,33024,128
10.09991289,140040,10.24776223,142090,0.001298189,18,128,8.235857276,114194,19027.34375,33664,128
9.748247832,135164,10.2773321,142500,0.009159447,127,128,8.141305821,112883,19046.875,34304,128
9.669995865,134079,10.24235311,142015,1.167721292,16191,128,8.002832294,110963,19066.40625,34944,128
9.693363272,134403,10.28641943,142626,0.002019406,28,128,8.016751768,111156,19085.9375,35584,128
10.06709755,139585,10.25245014,142155,1.167721292,16191,128,7.980546711,110654,19105.46875,36224,128
9.675765595,134159,10.28036121,142542,1.165197035,16156,128,7.996557712,110876,19125,36864,128
9.489980279,131583,10.26283565,142299,1.153657574,15996,128,7.991076468,110800,19144.53125,37504,128
10.09984077,140039,10.25216165,142151,1.181568644,16383,128,7.975065467,110578,19164.0625,38144,128
10.11664511,140272,10.25526288,142194,1.181352279,16380,128,7.973478791,110556,19183.59375,38784,128
9.712691869,134671,10.26889387,142383,1.179549239,16355,128,7.964679952,110434,19203.125,39424,128
10.0622654,139518,10.27891878,142522,0.00223577,31,128,7.964463587,110431,19222.65625,40064,128
9.453126127,131072,10.26218656,142290,1.163393994,16131,128,7.925517908,109891,19242.1875,40704,128
9.568232246,132668,10.2693266,142389,1.177962563,16333,128,7.917007556,109773,19261.71875,41344,128
10.12645365,140408,10.27430299,142458,1.18048682,16368,128,7.938139193,110066,19281.25,41984,128
10.09984077,140039,10.24747375,142086,1.178611657,16342,128,7.931504003,109974,19300.78125,42624,128
10.07214607,139655,10.28209213,142566,0,0,128,7.967925426,110479,19320.3125,43264,128
9.467189845,131267,10.25677744,142215,1.149402398,15937,128,7.943981045,110147,19339.84375,43904,128
9.736347763,134999,10.28209213,142566,1.16058125,16092,128,7.996701955,110878,19378.90625,45184,128
9.678722582,134200,10.31151775,142974,0.009231568,128,128,7.986749171,110740,19398.4375,45824,128
9.600759101,133119,10.29529039,142749,1.179837725,16359,128,7.997639537,110891,19417.96875,46464,128
10.04445136,139271,10.31296019,142994,1.175871036,16304,128,8.015237214,111135,19437.5,47104,128
9.67468377,134144,10.30747894,142918,0.004038811,56,128,8.023603323,111251,19457.03125,47744,128
9.743920534,135104,10.27877453,142520,1.174428603,16284,128,8.002688051,110961,19476.5625,48384,128
9.743992656,135105,10.28137091,142556,1.163393994,16131,128,8.036657338,111432,19496.09375,49024,128
9.7291356,134899,10.32486025,143159,0.009159447,127,128,8.066155084,111841,19515.625,49664,128
10.37512903,143856,10.33459667,143294,1.172409197,16256,128,8.103946817,112365,19535.15625,50304,128
10.41544502,144415,10.39063518,144071,1.171471616,16243,128,8.183424852,113467,19554.6875,50944,128
10.34188096,143395,10.36308472,143689,1.171471616,16243,128,8.141017335,112879,19574.21875,51584,128
10.11722208,140280,10.35760347,143613,0.005841852,81,128,8.176212689,113367,19593.75,52224,128
10.36755626,143751,10.37022476,143788,0.008654595,120,128,8.26477805,114595,19613.28125,52864,128
10.56812651,146532,10.52824325,145979,1.182650469,16398,128,8.357021613,115874,19632.8125,53504,128
10.63007899,147391,10.59827335,146950,1.181640766,16384,128,8.395967292,116414,19652.34375,54144,128
11.24376193,155900,10.6651301,147877,1.18272259,16399,128,8.150321025,113008,19671.875,54784,128
10.65214821,147697,10.73645839,148866,2.88E-04,4,128,6.946827405,96321,19691.40625,55424,128
10.70732125,148462,10.96804094,152077,1.220081594,16917,128,5.969290849,82767,19710.9375,56064,128
10.63527174,147463,11.1753185,154951,0.036854152,511,128,5.841347079,80993,19730.46875,56704,128
11.52330536,159776,11.32713453,157056,1.255493314,17408,128,6.717696991,93144,19750,57344,128
11.22544303,155646,10.99595201,152464,0.31791214,4408,128,7.675760707,106428,19769.53125,57984,128
10.87471555,150783,10.69664725,148314,1.121563449,15551,128,8.106975926,112407,19789.0625,58624,128
10.6261123,147336,10.55240399,146314,0.004399419,61,128,8.27588478,114749,19808.59375,59264,128
10.47811872,145284,10.46578592,145113,0.078251967,1085,128,8.404910374,116538,19828.125,59904,128
10.48359996,145360,10.4100359,144340,0.146479028,2031,128,8.444072419,117081,19847.65625,60544,128
10.49636549,145537,10.34974222,143504,0.292741691,4059,128,8.520449224,118140,19867.1875,61184,128
10.58824844,146811,10.32918755,143219,0.53535885,7423,128,8.603244853,119288,19886.71875,61824,128
10.19042554,141295,10.31065229,142962,0.58670945,8135,128,8.758017869,121434,19906.25,62464,128
10.30243043,142848,10.33459667,143294,1.198877835,16623,128,8.861800893,122873,19925.78125,63104,128
10.33813063,143343,10.32889907,143215,1.777004811,24639,128,8.944308036,124017,19945.3125,63744,128
10.33986155,143367,10.37080173,143796,1.179837725,16359,128,9.101533187,126197,19964.84375,64384,128
10.34043853,143375,10.46549743,145109,1.811623193,25119,128,9.155912895,126951,19984.375,65024,128
10.48259026,145346,10.54389364,146196,1.772677514,24579,128,9.077733049,125867,20003.90625,128,128
10.5977685,146943,10.62683351,147346,1.774696919,24607,128,8.930893413,123831,20023.4375,768,128
11.57689173,160519,10.66238948,147839,0.588224004,8156,128,8.670750698,120224,20042.96875,1408,128
11.26172021,156149,10.65315791,147711,0.562548704,7800,128,8.530546252,118280,20062.5,2048,128
10.59091694,146848,10.5817575,146721,0.285962258,3965,128,8.445082122,117095,20082.03125,2688,128
10.56091434,146432,10.56769378,146526,0.27629796,3831,128,8.454241568,117222,20101.5625,3328,128
10.63036747,147395,10.57548291,146634,0.286394988,3971,128,8.486263572,117666,20121.09375,3968,128
10.48713392,145409,10.51396316,145781,0.275793108,3824,128,8.486119328,117664,20140.625,4608,128
10.56307799,146462,10.50566918,145666,0.292525326,4056,128,8.516987385,118092,20160.15625,5248,128
10.59957154,146968,10.48352784,145359,0.267643364,3711,128,8.509991587,117995,20179.6875,5888,128
10.61731346,147214,10.49268728,145486,0.278101001,3856,128,8.520809832,118145,20199.21875,6528,128
10.61637588,147201,10.51554984,145803,1.186184428,16447,128,8.547927564,118521,20218.75,7168,128
10.4870618,145408,10.48922545,145438,0.286178623,3968,128,8.537686293,118379,20238.28125,7808,128
10.632459,147424,10.46715623,145132,0.29490534,4089,128,8.52383894,118187,20257.8125,8448,128
10.48352784,145359,10.46657925,145124,0.294400489,4082,128,8.547062105,118509,20277.34375,9088,128
10.48821574,145424,10.49059576,145457,0.29447261,4083,128,8.547711199,118518,20296.875,9728,128
10.49542791,145524,10.49420184,145507,0.278028879,3855,128,8.56148643,118709,20316.40625,10368,128
10.62986262,147388,10.53249842,146038,1.183876536,16415,128,8.611610962,119404,20335.9375,11008,128
10.61630376,147200,10.53249842,146038,0.572573611,7939,128,8.619688585,119516,20355.46875,11648,128
10.52384383,145918,10.52853173,145983,0.58447368,8104,128,8.622717693,119558,20375,12288,128
10.61839528,147229,10.54483122,146209,0.581588814,8064,128,8.641902046,119824,20394.53125,12928,128
10.632459,147424,10.5404318,146148,0.590315532,8185,128,8.636637168,119751,20414.0625,13568,128
10.56084222,146431,10.55997676,146419,0.581588814,8064,128,8.769990059,121600,20433.59375,14208,128
10.49030727,145453,10.57122774,146575,1.181712887,16385,128,8.829851011,122430,20453.125,14848,128
10.63209839,147419,10.5764205,146647,0.590531896,8188,128,8.812686063,122192,20472.65625,15488,128
10.56495316,146488,10.57923324,146686,0.588512491,8160,128,8.729962555,121045,20492.1875,16128,128
10.63447841,147452,10.54259545,146178,0.582887004,8082,128,8.679549537,120346,20511.71875,16768,128
10.55860645,146400,10.55363006,146331,0.59024341,8184,128,8.694911444,120559,20531.25,17408,128
10.50523645,145660,10.55290884,146321,0.586132477,8127,128,8.701979363,120657,20550.78125,18048,128
10.52369958,145916,10.55860645,146400,0.58670945,8135,128,8.70226785,120661,20570.3125,18688,128
10.5127371,145764,10.58233447,146729,1.186184428,16447,128,8.742078989,121213,20589.84375,19328,128
10.49153334,145470,10.55586583,146362,1.181857131,16387,128,8.740203826,121187,20609.375,19968,128
10.61601527,147196,10.60361035,147024,0.590748261,8191,128,8.795881724,121959,20628.90625,20608,128
10.62539108,147326,10.58637328,146785,0.58981068,8178,128,8.779942844,121738,20648.4375,21248,128
10.61637588,147201,10.66815921,147919,1.181640766,16384,128,8.645436006,119873,20667.96875,21888,128
11.56549651,160361,10.68929084,148212,0.29533807,4095,128,8.180972717,113433,20687.5,22528,128
11.46092015,158911,10.9342159,151608,0.12931408,1793,128,6.907881726,95781,20707.03125,23168,128
11.22464969,155635,11.07939673,153621,1.91994988,26621,128,6.525420728,90478,20726.5625,23808,128
11.2400116,155848,11.2400116,155848,0.029930476,415,128,7.119414463,98714,20746.09375,24448,128
11.24296859,155889,11.10875024,154028,1.144714492,15872,128,8.027353648,111303,20765.625,25088,128
11.58042569,160568,10.82004736,150025,0.002524257,35,128,8.497947275,117828,20785.15625,25728,128
10.57937748,146688,10.55831797,146396,0.553821987,7679,128,8.87896584,123111,20804.6875,26368,128
10.54699487,146239,10.54007119,146143,1.17471709,16288,128,8.939115279,123945,20824.21875,27008,128
10.52398807,145920,10.52521414,145937,1.15214302,15975,128,9.005899907,124871,20843.75,27648,128
10.50437099,145648,10.50747222,145691,1.145724195,15886,128,9.035109167,125276,20863.28125,28288,128
10.4870618,145408,10.52463717,145929,1.17471709,16288,128,9.10521139,126248,20882.8125,28928,128
10.56113071,146435,10.54230696,146174,2.07227076,28733,128,9.229116348,127966,20902.34375,29568,128
10.61738558,147215,10.50768858,145694,1.173491022,16271,128,9.260345013,128399,20921.875,30208,128
10.63447841,147452,10.50566918,145666,1.181568644,16383,128,9.376821444,130014,20941.40625,30848,128
10.56113071,146435,10.51324195,145771,1.181135914,16377,128,9.451900059,131055,20960.9375,31488,128
10.49398547,145504,10.54266757,146179,0.036854152,511,128,9.480676589,131454,20980.46875,32128,128
10.61680861,147207,10.59286423,146875,8.65E-04,12,128,9.434518747,130814,21000,32768,128
14.21712032,197127,10.69967636,148356,2.216586139,30734,128,9.269720825,128529,21019.53125,33408,128
14.18019404,196615,10.72044739,148644,2.071982273,28729,128,9.119275107,126443,21039.0625,34048,128
11.75957582,163052,10.71842798,148616,1.153585452,15995,128,9.018304827,125043,21058.59375,34688,128
11.74255511,162816,10.71734616,148601,1.17471709,16288,128,8.966593619,124326,21078.125,35328,128
11.52907509,159856,10.69635876,148310,1.18048682,16368,128,8.916757574,123635,21097.65625,35968,128
11.55669767,160239,10.67219802,147975,1.145868438,15888,128,8.917839398,123650,21117.1875,36608,128
11.59477789,160767,10.66541858,147881,1.164259453,16143,128,8.905145991,123474,21136.71875,37248,128
11.52323324,159775,10.63382931,147443,1.163177629,16128,128,8.926205507,123766,21156.25,37888,128
11.52792114,159840,10.65294154,147708,1.165701886,16163,128,8.957434172,124199,21175.78125,38528,128
11.67786201,161919,10.64291664,147569,1.165197035,16156,128,8.956063861,124180,21195.3125,39168,128
10.5614192,146439,10.60923584,147102,1.161374588,16103,128,8.929811589,123816,21214.84375,39808,128
10.62560745,147329,10.60714431,147073,1.181496523,16382,128,8.935581319,123896,21234.375,40448,128
10.63418992,147448,10.57036228,146563,1.181280158,16379,128,8.900890815,123415,21253.90625,41088,128
10.56098647,146433,10.64558514,147606,1.772461149,24576,128,9.043042546,125386,21273.4375,41728,128
10.61652012,147203,10.6281317,147364,1.160292764,16088,128,9.070088156,125761,21292.96875,42368,128
11.68630024,162036,10.66563495,147884,1.179765604,16358,128,9.05782748,125591,21312.5,43008,128
11.7818614,163361,10.64053662,147536,1.166567345,16175,128,8.984840391,124579,21332.03125,43648,128
10.59798486,146946,10.59106119,146850,1.130290166,15672,128,8.922599426,123716,21351.5625,44288,128
10.63418992,147448,10.5961097,146920,1.179332874,16352,128,8.895048963,123334,21371.09375,44928,128
10.57894475,146682,10.59986002,146972,1.148681182,15927,128,8.91437756,123602,21390.625,45568,128
10.63455053,147453,10.62704988,147349,1.181063793,16376,128,8.92634975,123768,21410.15625,46208,128
10.61623163,147199,10.65149911,147688,1.18048682,16368,128,8.984479783,124574,21429.6875,46848,128
10.62733836,147353,10.62668927,147344,1.181063793,16376,128,8.97193062,124400,21449.21875,47488,128
10.63469477,147455,10.63375719,147442,1.148320573,15922,128,8.972219106,124404,21468.75,48128,128
11.5234496,159778,10.64919122,147656,1.17695286,16319,128,8.991691946,124674,21488.28125,48768,128
10.6184674,147230,10.62539108,147326,1.145796316,15887,128,8.987653135,124618,21507.8125,49408,128
10.62553532,147328,10.59820123,146949,1.181568644,16383,128,8.978493688,124491,21527.34375,50048,128
11.81590281,163833,10.64868637,147649,1.151349682,15964,128,9.01664603,125020,21546.875,50688,128
11.52099747,159744,10.61103888,147127,1.160220642,16087,128,9.001067758,124804,21566.40625,51328,128
11.75171456,162943,10.64349361,147577,1.163105507,16127,128,9.023786071,125119,21585.9375,51968,128
11.81525371,163824,10.66527434,147879,1.772461149,24576,128,9.036407356,125294,21605.46875,52608,128
11.5481152,160120,10.67767926,148051,1.774192068,24600,128,9.047730452,125451,21625,53248,128
10.63447841,147452,10.67630895,148032,1.788616394,24800,128,9.064462669,125683,21644.53125,53888,128
11.68709358,162047,10.72152921,148659,1.774696919,24607,128,8.960823889,124246,21664.0625,54528,128
14.18863227,196732,10.77158162,149353,1.198372984,16616,128,8.655172426,120008,21683.59375,55168,128
11.80248818,163647,10.9582324,151941,0.084165941,1167,128,7.418719222,102864,21703.125,55808,128
11.22551515,155647,11.1249776,154253,2.075948963,28784,128,6.811743595,94448,21722.65625,56448,128
11.23453036,155772,11.30831078,156795,2.358665747,32704,128,7.422685912,102919,21742.1875,57088,128
11.37120084,157667,11.2796785,156398,2.16E-04,3,128,8.1439022,112919,21761.71875,57728,128
11.52352172,159779,10.86375306,150631,0.352530521,4888,128,8.852641446,122746,21781.25,58368,128
11.36997478,157650,10.68554052,148160,1.036171441,14367,128,9.137233393,126692,21800.78125,59008,128
11.24361768,155898,10.64587362,147610,1.144714492,15872,128,9.195868277,127505,21820.3125,59648,128
10.63015111,147392,10.61897226,147237,1.15214302,15975,128,9.237554578,128083,21839.84375,60288,128
10.63469477,147455,10.63462265,147454,1.177024982,16320,128,9.28234211,128704,21859.375,60928,128
10.61623163,147199,10.62301107,147293,1.180703185,16371,128,9.332250277,129396,21878.90625,61568,128
10.6297905,147387,10.62863655,147371,1.153369087,15992,128,9.397303986,130298,21898.4375,62208,128
14.24431017,197504,10.65972098,147802,0.004543663,63,128,9.526545945,132090,21917.96875,62848,128
14.31816272,198528,10.63296385,147431,0.146479028,2031,128,9.591166924,132986,21937.5,63488,128
14.19375291,196803,10.64883061,147651,0.009159447,127,128,9.681823812,134243,21957.03125,64128,128
14.19353654,196800,10.69332966,148268,0.018391015,255,128,9.746661156,135142,21976.5625,64768,128
14.2907565,198148,10.74929604,149044,0.001658797,23,128,9.722356167,134805,21996.09375,65408,128
14.25346962,197631,10.84673236,150395,0,0,128,9.563183732,132598,22015.625,512,128
14.43362945,200129,10.88870715,150977,2.326355258,32256,128,9.425864151,130694,22035.15625,1152,128
14.17997768,196612,10.87976407,150853,1.167577048,16189,128,9.248012215,128228,22054.6875,1792,128
14.2350786,197376,10.89440476,151056,2.076814422,28796,128,9.283784543,128724,22074.21875,2432,128
14.21654334,197119,10.87637435,150806,1.181568644,16383,128,9.304122842,129006,22093.75,3072,128
11.81590281,163833,10.92375826,151463,2.226899532,30877,128,9.323595682,129276,22113.28125,3712,128
14.19764748,196857,10.94294261,151729,1.181496523,16382,128,9.301237977,128966,22132.8125,4352,128
11.75171456,162943,10.85603605,150524,1.163105507,16127,128,9.229260591,127968,22152.34375,4992,128
14.22151974,197188,10.8335341,150212,1.18048682,16368,128,9.188944601,127409,22171.875,5632,128
11.7058452,162307,10.82242737,150058,1.148753303,15928,128,9.229981807,127978,22191.40625,6272,128
11.75063273,162928,10.79898784,149733,1.178034684,16334,128,9.186420344,127374,22210.9375,6912,128
14.18776681,196720,10.7928575,149648,1.163249751,16129,128,9.182597897,127321,22230.46875,7552,128
11.68687721,162044,10.78463564,149534,1.179404995,16353,128,9.183319114,127331,22250,8192,128
14.17990556,196611,10.79797814,149719,2.071549543,28723,128,9.170625707,127155,22269.53125,8832,128
11.81633554,163839,10.78153441,149491,1.179477117,16354,128,9.159302611,126998,22289.0625,9472,128
14.19577231,196831,10.77547619,149407,1.172337076,16255,128,9.166803261,127102,22308.59375,10112,128
11.81626342,163838,10.75593123,149136,1.179332874,16352,128,9.159158368,126996,22328.125,10752,128
11.81633554,163839,10.78102956,149484,1.180414698,16367,128,9.172645113,127183,22347.65625,11392,128
11.81525371,163824,10.71626433,148586,1.181496523,16382,128,9.115164174,126386,22367.1875,12032,128
11.76844678,163175,10.73501596,148846,1.775273892,24615,128,9.118914499,126438,22386.71875,12672,128
14.29912261,198264,10.77915439,149458,1.773542973,24591,128,9.154903192,126937,22406.25,13312,128
11.81633554,163839,10.76415309,149250,1.177890441,16332,128,9.126343027,126541,22425.78125,13952,128
14.18416073,196670,10.7865108,149560,1.181496523,16382,128,9.154686827,126934,22445.3125,14592,128
11.81633554,163839,10.78600595,149553,1.18048682,16368,128,9.1552638,126942,22464.84375,15232,128
14.21567788,197107,10.81723461,149986,1.181568644,16383,128,9.174880883,127214,22484.375,15872,128
11.81179187,163776,10.78672716,149563,1.181568644,16383,128,9.150359529,126874,22503.90625,16512,128
11.78171716,163359,10.82567284,150103,2.086262356,28927,128,9.208273197,127677,22523.4375,17152,128
11.72495743,162572,10.82163403,150047,2.070034989,28702,128,9.179352424,127276,22542.96875,17792,128
14.2280828,197279,10.83036075,150168,2.075732598,28781,128,9.200195575,127565,22562.5,18432,128
14.23680952,197400,10.82127342,150042,1.172409197,16256,128,9.185699127,127364,22582.03125,19072,128
11.81619129,163837,10.8431984,150346,2.069530138,28695,128,9.203657413,127613,22601.5625,19712,128
14.18892076,196736,10.84781418,150410,2.076525936,28792,128,9.201061034,127577,22621.09375,20352,128
14.21401909,197084,10.83439956,150224,1.148464817,15924,128,9.171419045,127166,22640.625,20992,128
11.81626342,163838,10.88358651,150906,2.068087705,28675,128,9.181011222,127299,22660.15625,21632,128
11.67742928,161913,10.96299243,152007,1.772461149,24576,128,8.663177927,120119,22679.6875,22272,128
11.806527,163703,11.06800152,153463,0.133785621,1855,128,7.817335465,108391,22699.21875,22912,128
11.5774687,160527,11.33744792,157199,2.355059666,32654,128,6.849102598,94966,22718.75,23552,128
11.23453036,155772,11.46546381,158974,2.179515622,30220,128,7.296761548,101173,22738.28125,24192,128
11.8112149,163768,11.49755794,159419,1.172409197,16256,128,8.118082657,112561,22757.8125,24832,128
11.55785162,160255,11.16082205,154750,0.535142486,7420,128,8.940774076,123968,22777.34375,25472,128
11.80818579,163726,10.92195522,151438,1.145796316,15887,128,9.27880815,128655,22796.875,26112,128
11.75171456,162943,10.85762273,150546,1.179332874,16352,128,9.391534256,130218,22816.40625,26752,128
11.78178928,163360,10.86800824,150690,2.32866315,32288,128,9.418868353,130597,22835.9375,27392,128
14.18336739,196659,10.85531483,150514,0.032022003,444,128,9.498490631,131701,22855.46875,28032,128
14.40066986,199672,10.83266864,150200,0.145397204,2016,128,9.58698387,132928,22875,28672,128
14.21185544,197054,10.81463823,149950,0,0,128,9.681679568,134241,22894.53125,29312,128
14.25036839,197588,10.85877667,150562,2.16E-04,3,128,9.763393374,135374,22914.0625,29952,128
14.27662066,197952,10.8805574,150864,0.588584612,8161,128,9.785534714,135681,22933.59375,30592,128
14.21611061,197113,10.82516799,150096,0.561106272,7780,128,9.830105881,136299,22953.125,31232,128
14.18863227,196732,10.82805286,150136,0.001081824,15,128,9.846405369,136525,22972.65625,31872,128
14.18012192,196614,10.8812065,150873,0,0,128,9.804935432,135950,22992.1875,32512,128
14.18423285,196671,10.96097302,151979,0.041469937,575,128,9.725168911,134844,23011.71875,33152,128
14.32732216,198655,11.04485047,153142,0.036998396,513,128,9.501231253,131739,23031.25,33792,128
14.2073839,196992,11.07146336,153511,2.316041865,32113,128,9.40588646,130417,23050.78125,34432,128
14.31816272,198528,11.03417647,152994,2.068953165,28687,128,9.2889773,128796,23070.3125,35072,128
14.21748092,197132,11.03287828,152976,2.06830407,28678,128,9.279385123,128663,23089.84375,35712,128
14.21611061,197113,11.03121949,152953,2.067943462,28673,128,9.298569476,128929,23109.375,36352,128
14.18769469,196719,10.98412406,152300,1.177529833,16327,128,9.285659705,128750,23128.90625,36992,128
14.25346962,197631,10.99674535,152475,1.180991671,16375,128,9.311479248,129108,23148.4375,37632,128
14.25029626,197587,10.99869263,152502,2.21665826,30735,128,9.342852157,129543,23167.96875,38272,128
14.19793596,196861,11.00381327,152573,1.177529833,16327,128,9.344583076,129567,23187.5,38912,128
14.25462356,197647,11.03742195,153039,2.29058293,31760,128,9.38287966,130098,23207.03125,39552,128
14.25145021,197603,11.0672803,153453,2.300968444,31904,128,9.389370607,130188,23226.5625,40192,128
14.23414102,197363,11.05271173,153251,2.215576436,30720,128,9.364344402,129841,23246.09375,40832,128
14.29479531,198204,11.05610145,153298,1.177024982,16320,128,9.353886766,129696,23265.625,41472,128
14.18776681,196720,11.08646465,153719,1.177457711,16326,128,9.379706309,130054,23285.15625,42112,128
14.32732216,198655,11.08156038,153651,1.181496523,16382,128,9.36383955,129834,23304.6875,42752,128
14.32963006,198687,11.07997371,153629,1.181352279,16380,128,9.368888064,129904,23324.21875,43392,128
14.43860584,200198,11.07817067,153604,1.181568644,16383,128,9.380860255,130070,23343.75,44032,128
14.33547191,198768,11.08249796,153664,2.222572234,30817,128,9.356411023,129731,23363.28125,44672,128
14.33713071,198791,11.08920528,153757,2.243775993,31111,128,9.372854754,129959,23382.8125,45312,128
14.4034826,199711,11.08934952,153759,2.289573227,31746,128,9.381437228,130078,23402.34375,45952,128
14.17968919,196608,11.08805133,153741,2.222644356,30818,128,9.37710993,130018,23421.875,46592,128
14.47300785,200675,11.12180425,154209,2.291520511,31773,128,9.405742217,130415,23441.40625,47232,128
14.24899808,197569,11.12468912,154249,2.289933835,31751,128,9.385476039,130134,23460.9375,47872,128
14.22325065,197212,11.12980975,154320,2.289933835,31751,128,9.41165619,130497,23480.46875,48512,128
14.18019404,196615,11.15570142,154679,2.328879515,32291,128,9.41958957,130607,23500,49152,128
14.7356027,204316,11.15317716,154644,2.354049963,32640,128,9.444183045,130948,23519.53125,49792,128
14.18668499,196705,11.1593075,154729,1.177024982,16320,128,9.421536853,130634,23539.0625,50432,128
14.35501687,199039,11.14185406,154487,1.172625562,16259,128,9.416993191,130571,23558.59375,51072,128
14.40297775,199704,11.17488577,154945,2.326355258,32256,128,9.427378705,130715,23578.125,51712,128
14.73300633,204280,11.17546274,154953,2.354122085,32641,128,9.448438221,131007,23597.65625,52352,128
14.43593734,200161,11.17878034,154999,1.181568644,16383,128,9.431633882,130774,23617.1875,52992,128
14.18646862,196702,11.15822567,154714,1.167721292,16191,128,9.400765824,130346,23636.71875,53632,128
14.40167956,199686,11.22241392,155604,2.335514705,32383,128,9.37047474,129926,23656.25,54272,128
14.32696156,198650,11.31285445,156858,1.809387423,25088,128,9.132329122,126624,23675.78125,54912,128
14.32285062,198593,11.36874871,157633,1.197868132,16609,128,8.454169447,117221,23695.3125,55552,128
11.79340086,163521,11.63718541,161355,0.145397204,2016,128,7.286448155,101030,23714.84375,56192,128
11.81352279,163800,11.81359492,163801,0.004255176,59,128,7.389509963,102459,23734.375,56832,128
16.56035203,229617,11.87965833,164717,0.005120636,71,128,8.528454724,118251,23753.90625,57472,128
11.79736755,163576,11.61288042,161018,1.066174038,14783,128,9.042177086,125374,23773.4375,58112,128
14.24892595,197568,11.23763159,155815,0,0,128,9.528565351,132118,23792.96875,58752,128
14.17990556,196611,11.23272732,155747,0.290866529,4033,128,9.634223537,133583,23812.5,59392,128
14.1817086,196636,11.22904911,155696,0.294833218,4088,128,9.728558627,134891,23832.03125,60032,128
14.18444922,196674,11.28689066,156498,2.16E-04,3,128,9.883187399,137035,23851.5625,60672,128
14.2580854,197695,11.30383924,156733,0.001081824,15,128,9.878860102,136975,23871.09375,61312,128
14.17968919,196608,11.23294368,155750,0.582165787,8072,128,9.855997545,136658,23890.625,61952,128
14.73408815,204295,11.18916585,155143,0.562837191,7804,128,9.866527303,136804,23910.15625,62592,128
14.76589379,204736,11.19630589,155242,5.05E-04,7,128,9.985816477,138458,23929.6875,63232,128
14.7682738,204769,11.20488837,155361,1.171832224,16248,128,10.06716967,139586,23949.21875,63872,128
14.75550827,204592,11.21549025,155508,0.009087325,126,128,10.12342454,140366,23968.75,64512,128
14.24885383,197567,11.28465489,156467,0.009159447,127,128,10.1265979,140410,23988.28125,65152,128
14.30770508,198383,11.35093467,157386,0.017309191,240,128,10.05714477,139447,24007.8125,256,128
14.40124683,199680,11.45644861,158849,0.036060814,500,128,9.894222008,137188,24027.34375,896,128
14.7785872,204912,11.4540686,158816,0.563053556,7807,128,9.757623644,135294,24046.875,1536,128
14.26991335,197859,11.4260854,158428,0.286106501,3967,128,9.661124904,133956,24066.40625,2176,128
14.18069889,196622,11.42247932,158378,0.294256245,4080,128,9.62773259,133493,24085.9375,2816,128
14.19808021,196863,11.42709511,158442,0.280985866,3896,128,9.650450903,133808,24105.46875,3456,128
14.44625073,200304,11.41865688,158325,0.017237069,239,128,9.654994566,133871,24125,4096,128
14.47156542,200655,11.42161386,158366,0.295049583,4091,128,9.678938947,134203,24144.53125,4736,128
14.36540238,199183,11.41346412,158253,0.278677974,3864,128,9.694300854,134416,24164.0625,5376,128
14.34405438,198887,11.4084156,158183,0.287981664,3993,128,9.685862623,134299,24183.59375,6016,128
14.23515072,197377,11.43062907,158491,0.00223577,31,128,9.698628151,134476,24203.125,6656,128
14.37398486,199302,11.41988294,158342,0.295121705,4092,128,9.673818311,134132,24222.65625,7296,128
14.4034826,199711,11.429403,158474,0.286322866,3970,128,9.662639458,133977,24242.1875,7936,128
14.19786384,196860,11.48291725,159216,0.018391015,255,128,9.691415988,134376,24261.71875,8576,128
14.4748109,200700,11.44397157,158676,0.260214837,3608,128,9.648719984,133784,24281.25,9216,128
14.47502726,200703,11.47354144,159086,0.291299259,4039,128,9.679804406,134215,24300.78125,9856,128
14.25361386,197633,11.45659285,158851,0.006995798,97,128,9.65427335,133861,24320.3125,10496,128
14.45663624,200448,11.46560806,158976,0.294761097,4087,128,9.650883633,133814,24339.84375,11136,128
14.41826754,199916,11.48032087,159180,0.29533807,4095,128,9.655715782,133881,24359.375,11776,128
14.32039849,198559,11.49712521,159413,0.29533807,4095,128,9.661629756,133963,24378.90625,12416,128
14.47466665,200698,11.50440949,159514,0.293607151,4071,128,9.670500716,134086,24398.4375,13056,128
14.47170967,200657,11.51450652,159654,0.288414393,3999,128,9.680958352,134231,24417.96875,13696,128
14.46117991,200511,11.50700587,159550,0.258483918,3584,128,9.677857122,134188,24437.5,14336,128
14.4661563,200580,11.51501137,159661,0.29533807,4095,128,9.683122001,134261,24457.03125,14976,128
14.45663624,200448,11.5101071,159593,0.294256245,4080,128,9.67951592,134211,24476.5625,15616,128
14.48440307,200833,11.53260905,159905,0.291299259,4039,128,9.726539222,134863,24496.09375,16256,128
14.25339749,197630,11.5021016,159482,0.280481014,3889,128,9.681679568,134241,24515.625,16896,128
14.24546412,197520,11.50368828,159504,7.21E-05,1,128,9.711826409,134659,24535.15625,17536,128
14.47445029,200695,11.51068407,159601,0.018102529,251,128,9.71629795,134721,24554.6875,18176,128
14.46478599,200561,11.50852043,159571,0.009808542,136,128,9.705263341,134568,24574.21875,18816,128
14.18863227,196732,11.53001267,159869,0.005697609,79,128,9.726539222,134863,24593.75,19456,128
14.47531575,200707,11.53131086,159887,0.286178623,3968,128,9.723726478,134824,24613.28125,20096,128
14.49731284,201012,11.54205698,160036,0.295265948,4094,128,9.734544722,134974,24632.8125,20736,128
14.76178286,204679,11.55842859,160263,0,0,128,9.712475504,134668,24652.34375,21376,128
15.06613613,208899,11.64007028,161395,2.16E-04,3,128,9.530584756,132146,24671.875,22016,128
14.34636227,198919,11.73209747,162671,1.772966,24583,128,8.579156229,118954,24691.40625,22656,128
16.69038733,231420,11.95805454,165804,0.006346703,88,128,7.687083803,106585,24710.9375,23296,128
14.16555335,196412,12.13850285,168306,0.073852548,1024,128,7.581065009,105115,24730.46875,23936,128
16.67192419,231164,12.23846343,169692,1.182866834,16401,128,8.457631285,117269,24750,24576,128
16.54376406,229387,12.03868652,166922,1.097979676,15224,128,9.071169981,125776,24769.53125,25216,128
14.18423285,196671,11.69632515,162175,0.554975933,7695,128,9.862632735,136750,24789.0625,25856,128
14.54866344,201724,11.6614904,161692,0.572862097,7943,128,9.95718419,138061,24808.59375,26496,128
14.49111038,200926,11.64692183,161490,5.05E-04,7,128,9.951991433,137989,24828.125,27136,128
14.56496293,201950,11.62932415,161246,0.585050653,8112,128,9.963530894,138149,24847.65625,27776,128
14.50279409,201088,11.55316371,160190,0.553894109,7680,128,9.962521191,138135,24867.1875,28416,128
14.62734814,202815,11.54862005,160127,0.590315532,8185,128,10.01127541,138811,24886.71875,29056,128
15.09469629,209295,11.549774,160143,1.180558941,16369,128,10.07748307,139729,24906.25,29696,128
14.64126761,203008,11.54061455,160016,1.177024982,16320,128,10.17787637,141121,24925.78125,30336,128
14.76611015,204739,11.55467827,160211,2.16E-04,3,128,10.28591457,142619,24945.3125,30976,128
14.73819908,204352,11.57234807,160456,0.008077622,112,128,10.38457696,143987,24964.84375,31616,128
15.14409961,209980,11.61764045,161084,0.001081824,15,128,10.38176422,143948,24984.375,32256,128
15.21586063,210975,11.70988401,162363,0.001009703,14,128,10.29392008,142730,25003.90625,32896,128
15.36125783,212991,11.77450499,163259,0.054884559,761,128,10.17282786,141051,25023.4375,33536,128
15.36017601,212976,11.80292091,163653,0.034618382,480,128,9.97752249,138343,25042.96875,34176,128
15.29663686,212095,11.76036915,163063,0.588440369,8159,128,9.856935126,136671,25062.5,34816,128
14.71973595,204096,11.76563403,163136,2.16E-04,3,128,9.8318368,136323,25082.03125,35456,128
15.35902206,212960,11.74096843,162794,0.583752463,8094,128,9.796280837,135830,25101.5625,36096,128
15.35952692,212967,11.73844418,162759,0.585988234,8125,128,9.80659423,135973,25121.09375,36736,128
14.73812696,204351,11.71853861,162483,0.589882802,8179,128,9.808974243,136006,25140.625,37376,128
15.35664205,212927,11.71796164,162475,0.574593016,7967,128,9.808469392,135999,25160.15625,38016,128
14.70531162,203896,11.74774787,162888,0.007356406,102,128,9.812940933,136061,25179.6875,38656,128
14.73379966,204291,11.77969775,163331,2.16E-04,3,128,9.830682854,136307,25199.21875,39296,128
15.32440368,212480,11.79044387,163480,0.03454626,479,128,9.819864609,136157,25218.75,39936,128
14.76596591,204737,11.80263243,163649,5.77E-04,8,128,9.796569323,135834,25238.28125,40576,128
14.75110886,204531,11.76036915,163063,0.561971731,7792,128,9.753584832,135238,25257.8125,41216,128
14.77036533,204798,11.79664633,163566,7.21E-05,1,128,9.693219029,134401,25277.34375,41856,128
16.54297072,229376,11.81669615,163844,0.009159447,127,128,9.662783702,133979,25296.875,42496,128
16.54751438,229439,11.8208792,163902,0.013847353,192,128,9.671798905,134104,25316.40625,43136,128
16.54477376,229401,11.83609686,164113,5.05E-04,7,128,9.716658558,134726,25335.9375,43776,128
16.57982487,229887,11.8685516,164563,7.21E-05,1,128,9.724808302,134839,25355.46875,44416,128
16.54318709,229379,11.8422272,164198,0.008582474,119,128,9.710744585,134644,25375,45056,128
16.58855159,230008,11.86206065,164473,0.00223577,31,128,9.729279843,134901,25394.53125,45696,128
16.60528381,230240,11.87641285,164672,0.004327298,60,128,9.751421184,135208,25414.0625,46336,128
16.61480386,230372,11.87900923,164708,0.009231568,128,128,9.742189615,135080,25433.59375,46976,128
16.58884008,230012,11.86862372,164564,0.004038811,56,128,9.734111993,134968,25453.125,47616,128
16.57960851,229884,11.88946687,164853,0.036349301,504,128,9.744569629,135113,25472.65625,48256,128
16.54700953,229432,11.89927541,164989,5.05E-04,7,128,9.764907928,135395,25492.1875,48896,128
16.55386109,229527,11.90107845,165014,0.00973642,135,128,9.759354563,135318,25511.71875,49536,128
16.54318709,229379,11.87864862,164703,0.002163649,30,128,9.759787292,135324,25531.25,50176,128
16.61328931,230351,11.886582,164813,0.004183054,58,128,9.752719373,135226,25550.78125,50816,128
16.57174725,229775,11.88441835,164783,0.017309191,240,128,9.743992656,135105,25570.3125,51456,128
16.64855679,230840,11.9129064,165178,7.21E-05,1,128,9.760724874,135337,25589.84375,52096,128
16.5519138,229500,11.92372464,165328,0.018391015,255,128,9.778466794,135583,25609.375,52736,128
16.55227441,229505,11.92163312,165299,0.004543663,63,128,9.760652752,135336,25628.90625,53376,128
16.67437633,231198,11.94752478,165658,0.069236764,960,128,9.809118487,136008,25648.4375,54016,128
16.69182976,231440,12.01322758,166569,0.053081519,736,128,9.546451515,132366,25667.96875,54656,128
16.83383725,233409,12.10871662,167893,1.838163953,25487,128,8.993422865,124698,25687.5,55296,128
17.07659865,236775,12.29464618,170471,0.065197952,904,128,8.043581014,111528,25707.03125,55936,128
16.57016058,229753,12.5071165,173417,0.018895867,262,128,7.4416539,103182,25726.5625,56576,128
16.83780394,233464,12.65489371,175466,0.105874551,1468,128,8.219269302,113964,25746.09375,57216,128
17.10378851,237152,12.37765817,171622,1.042013293,14448,128,9.172933599,127187,25765.625,57856,128
16.67668422,231230,12.09782625,167742,0.147416609,2044,128,9.59715302,133069,25785.15625,58496,128
16.59136433,230047,11.93865382,165535,0.553821987,7679,128,9.845539909,136513,25804.6875,59136,128
16.54614407,229420,11.91622399,165224,0.59067614,8190,128,9.877634034,136958,25824.21875,59776,128
16.6589423,230984,11.942909,165594,0.004687906,65,128,9.975214598,138311,25843.75,60416,128
16.64689799,230817,11.92076766,165287,0.009159447,127,128,10.0125736,138829,25863.28125,61056,128
16.57066543,229760,11.91795491,165248,1.172409197,16256,128,10.04394651,139264,25882.8125,61696,128
16.68952187,231408,11.92632102,165364,1.181063793,16376,128,10.17967942,141146,25902.34375,62336,128
16.5718915,229777,11.91946947,165269,1.181135914,16377,128,10.21667781,141659,25921.875,62976,128
16.65389379,230914,11.92877316,165398,0.006779433,94,128,10.36459927,143710,25941.40625,63616,128
16.579897,229888,11.92834043,165392,1.181352279,16380,128,10.42157536,144500,25960.9375,64256,128
16.6005959,230175,11.95177996,165717,0.006923676,96,128,10.43643241,144706,25980.46875,64896,128
16.5435477,229384,12.04820657,167054,5.05E-04,7,128,10.39921765,144190,26000,0,128
14.17983343,196610,12.09768201,167740,0.041397815,574,128,10.35854105,143626,26019.53125,640,0
4.726563063,65536,12.17615034,168828,1.44E-04,2,128,10.07813216,139738,26039.0625,1280,0
16.54383618,229388,12.18855526,169000,0.583896707,8096,128,9.957400555,138064,26058.59375,1920,128
16.57614667,229836,12.14708533,168425,0.59024341,8184,128,9.868330344,136829,26078.125,2560,128
16.56027991,229616,12.14081074,168338,0.572357246,7936,128,9.8601806,136716,26097.65625,3200,128
16.54297072,229376,12.12386216,168103,0.589666437,8176,128,9.876263723,136939,26117.1875,3840,128
16.61271234,230343,12.12371792,168101,0.568246313,7879,128,9.922493687,137580,26136.71875,4480,128
16.55162532,229496,12.16280784,168643,0.001081824,15,128,10.05873144,139469,26156.25,5120,128
16.55912597,229600,12.16172602,168628,0.009159447,127,128,10.0462544,139296,26175.78125,5760,128
16.54347557,229383,12.13309373,168231,0.590748261,8191,128,10.01754999,138898,26195.3125,6400,128
16.6906037,231423,12.11362089,167961,0.587214301,8142,128,9.93237435,137717,26214.84375,7040,128
16.68670913,231369,12.12768461,168156,0,0,128,9.881095872,137006,26234.375,7680,128
16.54297072,229376,12.12184276,168075,0.009159447,127,128,9.826499799,136249,26253.90625,8320,128
16.5568902,229569,12.13222827,168219,2.88E-04,4,128,9.823254326,136204,26273.4375,8960,128
16.54729802,229436,12.14391197,168381,2.88E-04,4,128,9.817556717,136125,26292.96875,9600,128
16.55912597,229600,12.12717976,168149,1.44E-04,2,128,9.789285039,135733,26312.5,10240,128
16.54751438,229439,12.14355137,168376,0.004832149,67,128,9.810560919,136028,26332.03125,10880,128
16.54874045,229456,12.13713254,168287,0.590748261,8191,128,9.803492999,135930,26351.5625,11520,128
16.54874045,229456,12.1416762,168350,0.585339139,8116,128,9.815320947,136094,26371.09375,12160,128
16.61639054,230394,12.14412834,168384,0.588512491,8160,128,9.830682854,136307,26390.625,12800,128
16.54376406,229387,12.14621987,168413,0.582598517,8078,128,9.849001747,136561,26410.15625,13440,128
16.61184688,230331,12.16778423,168712,0.577045152,8001,128,9.871647939,136875,26429.6875,14080,128
16.58018548,229892,12.16590907,168686,0.553966231,7681,128,9.870493993,136859,26449.21875,14720,128
16.61285658,230345,12.1873292,168983,0.590748261,8191,128,9.903814185,137321,26468.75,15360,128
16.65432652,230920,12.20629718,169246,0.586493085,8132,128,9.908069361,137380,26488.28125,16000,128
16.59944196,230159,12.19043043,169026,0.579280922,8032,128,9.882394061,137024,26507.8125,16640,128
16.54304284,229377,12.18343463,168929,0.590531896,8188,128,9.857223613,136675,26527.34375,17280,128
16.60780807,230275,12.19165649,169043,0.588728856,8163,128,9.869340047,136843,26546.875,17920,128
16.56136174,229631,12.18718495,168981,0.587214301,8142,128,9.864507897,136776,26566.40625,18560,128
16.68822368,231390,12.19446924,169082,0.572285124,7935,128,9.880735264,137001,26585.9375,19200,128
16.56460721,229676,12.24423316,169772,0.001081824,15,128,9.880014048,136991,26605.46875,19840,128
16.61653478,230396,12.35183863,171264,0.036709909,509,128,9.886360751,137079,26625,20480,128
16.83628939,233443,12.37001328,171516,0.590315532,8185,128,9.858738167,136696,26644.53125,21120,128
17.13588263,237597,12.51440078,173518,2.16E-04,3,128,9.807099081,135980,26664.0625,21760,128
17.27565435,239535,12.55226464,174043,0.001586676,22,128,9.370258375,129923,26683.59375,22400,128
17.20266726,238523,12.80267093,177515,1.181640766,16384,128,8.167485972,113246,26703.125,23040,128
17.0194062,235982,12.94987118,179556,0.073852548,1024,128,7.569453427,104954,26722.65625,23680,128
17.86366199,247688,13.21398058,183218,0.006923676,96,128,8.478618679,117560,26742.1875,24320,128
18.01648772,249807,13.07788707,181331,0.524684849,7275,128,9.102038038,126204,26761.71875,24960,128
17.65212925,244755,12.85200213,178199,5.05E-04,7,128,9.62773259,133493,26781.25,25600,128
17.14237358,237687,12.5504616,174018,0.480113683,6657,128,9.977738855,138346,26800.78125,26240,128
17.15275909,237831,12.51101107,173471,0.5171842,7171,128,10.02137244,138951,26820.3125,26880,128
17.43893772,241799,12.5188002,173579,1.172409197,16256,128,10.07748307,139729,26839.84375,27520,128
17.24226203,239072,12.49262005,173216,1.148681182,15927,128,10.07971884,139760,26859.375,28160,128
17.42927342,241665,12.52694995,173692,1.177024982,16320,128,10.17556848,141089,26878.90625,28800,128
17.27341858,239504,12.52096385,173609,1.18091955,16374,128,10.2039844,141483,26898.4375,29440,128
17.72013995,245698,12.541807,173898,0.004327298,60,128,10.29125157,142693,26917.96875,30080,128
17.43836074,241791,12.53784031,173843,1.171904346,16249,128,10.38428848,143983,26937.5,30720,128
17.70723018,245519,12.53185422,173760,1.18048682,16368,128,10.45208281,144923,26957.03125,31360,128
17.71588477,245639,12.57173748,174313,0.004543663,63,128,10.49665397,145541,26976.5625,32000,128
17.724323,245756,12.59698005,174663,1.181568644,16383,128,10.44249063,144790,26996.09375,32640,128
18.3175234,253981,12.73639116,176596,0.069741615,967,128,10.33762578,143336,27015.625,33280,128
17.68761309,245247,12.7482191,176760,0.013342501,185,128,10.15501382,140804,27035.15625,33920,128
17.65256198,244761,12.77259621,177098,1.181568644,16383,128,10.03002704,139071,27054.6875,34560,128
17.43828862,241790,12.7225438,176404,0.554110474,7683,128,9.946438068,137912,27074.21875,35200,128
17.43028312,241679,12.73566994,176586,0.56810207,7877,128,9.947375649,137925,27093.75,35840,128
17.45199173,241980,12.71309587,176273,0.587935518,8152,128,9.931292526,137702,27113.28125,36480,128
17.43093222,241688,12.73545357,176583,0,0,128,9.949395055,137953,27132.8125,37120,128
17.44874626,241935,12.71828863,176345,0.588728856,8163,128,9.98285949,138417,27152.34375,37760,128
17.68725248,245242,12.74252149,176681,0.00223577,31,128,10.00081778,138666,27171.875,38400,128
17.46259361,242127,12.76011917,176925,0.002091527,29,128,10.00492871,138723,27191.40625,39040,128
17.4292013,241664,12.76076827,176934,0.59067614,8190,128,10.04142225,139229,27210.9375,39680,128
17.65075894,244736,12.79733393,177441,0.018102529,251,128,10.11224569,140211,27230.46875,40320,128
17.69576284,245360,12.83721719,177994,0.00223577,31,128,10.01798272,138904,27250,40960,128
17.46720939,242191,12.81421039,177675,0.586132477,8127,128,9.946438068,137912,27269.53125,41600,128
17.71422597,245616,12.77951989,177194,0.59067614,8190,128,9.908718456,137389,27289.0625,42240,128
17.6506147,244734,12.7668986,177019,0.588728856,8163,128,9.894077765,137186,27308.59375,42880,128
17.5012508,242663,12.77057681,177070,0.583752463,8094,128,9.911891808,137433,27328.125,43520,128
17.50774175,242753,12.82437954,177816,0.007500649,104,128,9.934754364,137750,27347.65625,44160,128
17.51012176,242786,12.79307876,177382,0.00396669,55,128,9.901722658,137292,27367.1875,44800,128
17.50298172,242687,12.79603574,177423,0.004543663,63,128,9.92040216,137551,27386.71875,45440,128
17.66453417,244927,12.8075752,177583,0.587791275,8150,128,9.943985932,137878,27406.25,46080,128
18.62923308,258303,12.80454609,177541,0.016155245,224,128,9.952640528,137998,27425.78125,46720,128
17.65991839,244863,12.82928381,177884,0.028127435,390,128,9.976440665,138328,27445.3125,47360,128
17.68876704,245263,12.80151699,177499,0.590748261,8191,128,9.946726554,137916,27464.84375,48000,128
17.72453937,245759,12.79783878,177448,0,0,128,9.962088461,138129,27484.375,48640,128
18.74058887,259847,12.7975503,177444,0.006779433,94,128,9.939298026,137813,27503.90625,49280,128
17.68703612,245239,12.80973885,177613,0,0,128,9.950116271,137963,27523.4375,49920,128
17.72453937,245759,12.81197462,177644,0.00223577,31,128,9.934537999,137747,27542.96875,50560,128
17.68883916,245264,12.80764732,177584,7.21E-05,1,128,9.906482685,137358,27562.5,51200,128
18.61747725,258140,12.79242966,177373,0.581588814,8064,128,9.87835525,136968,27582.03125,51840,128
17.71646174,245647,12.78536174,177275,0.001730919,24,128,9.865445479,136789,27601.5625,52480,128
17.71552416,245634,12.82675956,177849,0.039162044,543,128,9.901217806,137285,27621.09375,53120,128
18.64524408,258525,12.8402463,178036,0.001081824,15,128,9.886360751,137079,27640.625,53760,128
18.61120267,258053,12.83166383,177917,0.59024341,8184,128,9.825922826,136241,27660.15625,54400,128
18.90567528,262136,12.97251737,179870,0.055533654,770,128,9.376893565,130015,27679.6875,55040,128
17.71076414,245568,13.06714094,181182,1.779312704,24671,128,8.630506829,119666,27699.21875,55680,128
18.43313437,255584,13.26201359,183884,0.002163649,30,128,7.832697372,108604,27718.75,56320,128
18.88086544,261792,13.45630925,186578,0.078179846,1084,128,8.117145075,112548,27738.28125,56960,128
18.87365328,261692,13.51818961,187436,1.140315073,15811,128,8.895409572,123339,27757.8125,57600,128
18.58415706,257678,13.12815584,182028,1.125674382,15608,128,9.629319266,133515,27777.34375,58240,128
17.70614835,245504,12.85813246,178284,0.441384368,6120,128,9.965333934,138174,27796.875,58880,128
17.70672532,245512,12.83260141,177930,1.181352279,16380,128,10.09940804,140033,27816.40625,59520,128
17.57654578,243707,12.82654319,177846,0.009159447,127,128,10.12919428,140446,27835.9375,60160,128
17.71617326,245643,12.82574985,177835,0.02791107,387,128,10.18342974,141198,27855.46875,60800,128
17.71537992,245632,12.79300663,177381,1.181496523,16382,128,10.21754327,141671,27875,61440,128
17.56132812,243496,12.80259881,177514,0.004471541,62,128,10.28353456,142586,27894.53125,62080,128
17.46497362,242160,12.78702054,177298,1.181063793,16376,128,10.36842172,143763,27914.0625,62720,128
17.65306683,244768,12.81262372,177653,0.002307892,32,128,10.45482343,144961,27933.59375,63360,128
17.72396239,245751,12.8155807,177694,1.44E-04,2,128,10.56848712,146537,27953.125,64000,128
17.54005224,243201,12.84327541,178078,0.036349301,504,128,10.611111,147128,27972.65625,64640,128
17.6966283,245372,12.89628481,178813,0.072914967,1011,128,10.61796255,147223,27992.1875,65280,128
18.88829397,261895,13.01384306,180443,0.002163649,30,128,10.50905889,145713,28011.71875,384,128
18.82785604,261057,13.05350996,180993,0.069236764,960,128,10.33163969,143253,28031.25,1024,128
18.68476673,259073,13.0803392,181365,0.011323096,157,128,10.16871693,140994,28050.78125,1664,128
18.61134691,258055,13.04737962,180908,0.00223577,31,128,10.06399632,139542,28070.3125,2304,128
18.8693981,261633,13.07456947,181285,0.034618382,480,128,10.10344685,140089,28089.84375,2944,128
18.74953195,259971,13.10825027,181752,0.018318894,254,128,10.18876674,141272,28109.375,3584,128
18.74931559,259968,13.13644983,182143,0.034762625,482,128,10.16835632,140989,28128.90625,4224,128
18.68382915,259060,13.10291327,181678,0,0,128,10.11765481,140286,28148.4375,4864,128
18.83413063,261144,13.09397019,181554,1.165197035,16156,128,10.14296951,140637,28167.96875,5504,128
18.68462249,259071,13.04348505,180854,1.175149819,16294,128,10.10907234,140167,28187.5,6144,128
18.86947022,261634,13.04002321,180806,1.44E-04,2,128,10.1009226,140054,28207.03125,6784,128
18.64892228,258576,13.04370142,180857,1.181568644,16383,128,10.1012832,140059,28226.5625,7424,128
18.66644784,258819,13.05740452,181047,0.01637161,227,128,10.09782137,140011,28246.09375,8064,128
18.68462249,259071,13.07882465,181344,0,0,128,10.11729421,140281,28265.625,8704,128
18.9057474,262137,13.04543233,180881,1.177241347,16323,128,10.08902253,139889,28285.15625,9344,128
18.87336479,261688,13.07420886,181280,0.018391015,255,128,10.11714996,140279,28304.6875,9984,128
18.63961859,258447,13.04867781,180926,1.145724195,15886,128,10.11347176,140228,28324.21875,10624,128
18.79367039,260583,13.0653379,181157,1.179332874,16352,128,10.12948276,140450,28343.75,11264,128
18.68952676,259139,13.08293558,181401,0.001009703,14,128,10.13438703,140518,28363.28125,11904,128
18.90618013,262143,13.09952356,181631,0.008943082,124,128,10.14491679,140664,28382.8125,12544,128
18.83492396,261155,13.07493008,181290,1.144714492,15872,128,10.11772694,140287,28402.34375,13184,128
18.88995277,261918,13.06353486,181132,1.164475818,16146,128,10.10056199,140049,28421.875,13824,128
18.69169041,259169,13.07882465,181344,0.008293987,115,128,10.11729421,140281,28441.40625,14464,128
18.88887094,261903,13.07521857,181294,1.174644968,16287,128,10.11101962,140194,28460.9375,15104,128
17.76096079,246264,13.10543753,181713,1.164043088,16140,128,10.13914706,140584,28480.46875,15744,128
18.87862967,261761,13.10204781,181666,1.181424401,16381,128,10.13712765,140556,28500,16384,128
17.72663089,245788,13.11726548,181877,1.177601955,16328,128,10.17051997,141019,28519.53125,17024,128
18.85057436,261372,13.07824768,181336,1.17962136,16356,128,10.10416807,140099,28539.0625,17664,128
18.88800548,261891,13.09115745,181515,2.88E-04,4,128,10.14809014,140708,28558.59375,18304,128
17.72634241,245784,13.11380364,181829,1.180847428,16373,128,10.15032591,140739,28578.125,18944,128
17.72461149,245760,13.14640261,182281,7.21E-05,1,128,10.16813995,140986,28597.65625,19584,128
17.72461149,245760,13.15404751,182387,0,0,128,10.17318847,141056,28617.1875,20224,128
17.74163219,245996,13.11221696,181807,1.163393994,16131,128,10.10539414,140116,28636.71875,20864,128
17.95136189,248904,13.1510184,182345,0.008943082,124,128,10.17174604,141036,28656.25,21504,128
17.9463855,248835,13.24073771,183589,0.017381313,241,128,9.797362661,135845,28675.78125,22144,128
17.72461149,245760,13.33557765,184904,1.837659101,25480,128,8.90110718,123418,28695.3125,22784,128
18.7747024,260320,13.58079118,188304,0.129241959,1792,128,7.794833516,108079,28714.84375,23424,128
18.31975917,254012,13.64346488,189173,0.029858354,414,128,7.922272435,109846,28734.375,24064,128
18.55076475,257215,13.68962272,189813,1.190944456,16513,128,9.17473664,127212,28753.90625,24704,128
18.62468942,258240,13.50088042,187196,0.062745817,870,128,9.789429282,135735,28773.4375,25344,128
18.40370874,255176,13.25263777,183754,1.144065397,15863,128,10.15277805,140773,28792.96875,25984,128
18.3245192,254078,13.13810863,182166,1.14817633,15920,128,10.31981174,143089,28812.5,26624,128
18.90596377,262140,13.12584795,181996,0,0,128,10.37109022,143800,28832.03125,27264,128
18.86557566,261580,13.10673572,181731,1.181352279,16380,128,10.41695957,144436,28851.5625,27904,128
17.83495758,247290,13.10262479,181674,0.001081824,15,128,10.45662647,144986,28871.09375,28544,128
17.73369881,245886,13.13183405,182079,0.009231568,128,128,10.55997676,146419,28890.625,29184,128
18.31564824,253955,13.08524347,181433,0.002812744,39,128,10.5977685,146943,28910.15625,29824,128
18.4425823,255715,13.08387316,181414,1.182073496,16390,128,10.65597065,147750,28929.6875,30464,128
18.62807913,258287,13.09411443,181556,1.181712887,16385,128,10.77194223,149358,28949.21875,31104,128
18.8647102,261568,13.10449995,181700,1.21770158,16884,128,10.84968935,150436,28968.75,31744,128
18.89788614,262028,13.16876032,182591,1.254916341,17400,128,10.90558361,151211,28988.28125,32384,128
18.90567528,262136,13.25097898,183731,1.182794712,16400,128,10.80699334,149844,29007.8125,33024,128
17.72461149,245760,13.31300358,184591,0.065702804,911,128,10.51598257,145809,29027.34375,33664,128
18.61488087,258104,13.30103139,184425,0.022501948,312,128,10.3666908,143739,29046.875,34304,128
18.46306484,255999,13.23323706,183485,0.001803041,25,128,10.18270852,141188,29066.40625,34944,128
18.31564824,253955,13.22011092,183303,0.027694705,384,128,10.15941324,140865,29085.9375,35584,128
17.76139352,246270,13.21830788,183278,0.041830545,580,128,10.17059209,141020,29105.46875,36224,128
17.94616913,248832,13.20532599,183098,5.05E-04,7,128,10.19201221,141317,29125,36864,128
17.8907076,248063,13.17972281,182743,0.001081824,15,128,10.19251707,141324,29144.53125,37504,128
18.79980073,260668,13.21866849,183283,0.073780426,1023,128,10.27870241,142519,29164.0625,38144,128
18.89298187,261960,13.20633569,183112,0.032815341,455,128,10.26312414,142303,29183.59375,38784,128
18.47287339,256135,13.21066299,183172,0.008077622,112,128,10.2730048,142440,29203.125,39424,128
18.3869044,254943,13.2167212,183256,0.004687906,65,128,10.27076903,142409,29222.65625,40064,128
17.96456015,249087,13.23763648,183546,0,0,128,10.27473572,142464,29242.1875,40704,128
18.01994956,249855,13.25083473,183729,0.00223577,31,128,10.28692428,142633,29261.71875,41344,128
18.01771379,249824,13.2680718,183968,0.035772328,496,128,10.30142072,142834,29281.25,41984,128
18.0110786,249732,13.25335899,183764,0.021348002,296,128,10.29702131,142773,29300.78125,42624,128
17.79615614,246752,13.28653494,184224,0.037359004,518,128,10.30286316,142854,29320.3125,43264,128
17.86510442,247708,13.28646282,184223,0,0,128,10.28858307,142656,29339.84375,43904,128
17.86993657,247775,13.29079012,184283,0,0,128,10.2939922,142731,29359.375,44544,128
18.89694856,262015,13.31848482,184667,0.001081824,15,128,10.3019977,142842,29378.90625,45184,128
18.90538679,262132,13.30622414,184497,0.021997097,305,128,10.28980914,142673,29398.4375,45824,128
18.89702069,262016,13.3397607,184962,0.03231049,448,128,10.32175902,143116,29417.96875,46464,128
18.61307783,258079,13.33406309,184883,0.03231049,448,128,10.31151775,142974,29437.5,47104,128
18.6406283,258461,13.38757734,185625,0.036854152,511,128,10.33928458,143359,29457.03125,47744,128
18.90603589,262141,13.38325004,185565,0.018967988,263,128,10.32406692,143148,29476.5625,48384,128
18.88778912,261888,13.3734415,185429,1.180558941,16369,128,10.32817785,143205,29496.09375,49024,128
18.74008402,259840,13.4007756,185808,0.034834747,483,128,10.34325127,143414,29515.625,49664,128
18.88786124,261889,13.40459805,185861,0.003461838,48,128,10.34317915,143413,29535.15625,50304,128
18.83968399,261221,13.448448,186469,0.006923676,96,128,10.39287095,144102,29554.6875,50944,128
18.73950705,259832,13.42104178,186089,0.004327298,60,128,10.3633732,143693,29574.21875,51584,128
17.72807333,245808,13.44368797,186403,0.014929177,207,128,10.3736866,143836,29593.75,52224,128
17.86712383,247736,13.43856733,186332,0.00223577,31,128,10.3526992,143545,29613.28125,52864,128
17.72684726,245791,13.4611414,186645,0.002019406,28,128,10.35955076,143640,29632.8125,53504,128
17.79745433,246770,13.51227564,187354,0.040965085,568,128,10.34988646,143506,29652.34375,54144,128
18.01079011,249728,13.57076628,188165,0.01637161,227,128,10.15285017,140774,29671.875,54784,128
18.35235814,254464,13.71573075,190175,0.037935977,526,128,9.165505071,127084,29691.40625,55424,128
18.83175061,261111,13.92740773,193110,1.218494918,16895,128,8.293410336,114992,29710.9375,56064,128
18.87365328,261692,14.07294918,195128,0.137319581,1904,128,8.094282519,112231,29730.46875,56704,128
14.19923415,196879,14.20947542,197021,1.774119946,24599,128,9.275490555,128609,29750,57344,128
18.90618013,262143,13.97875833,193822,0.581444571,8062,128,9.868402465,136830,29769.53125,57984,128
18.89233278,261951,13.59449429,188494,0.932316295,12927,128,10.53884513,146126,29789.0625,58624,128
18.75861928,260097,13.59124882,188449,0.006923676,96,128,10.64255603,147564,29808.59375,59264,128
18.90394436,262112,13.57357902,188204,1.181352279,16380,128,10.61781831,147221,29828.125,59904,128
17.79788706,246776,13.51443929,187384,1.153296966,15991,128,10.60526915,147047,29847.65625,60544,128
17.93866848,248728,13.50066406,187193,1.178178928,16336,128,10.58089204,146709,29867.1875,61184,128
18.01987744,249854,13.50138527,187203,0.036854152,511,128,10.64774879,147636,29886.71875,61824,128
18.17342438,251983,13.50340468,187231,0.073780426,1023,128,10.7078261,148469,29906.25,62464,128
17.94378912,248799,13.48422032,186965,0.145469325,2017,128,10.81341217,149933,29925.78125,63104,128
18.30843607,253855,13.47073358,186778,0.286683474,3975,128,10.87875436,150839,29945.3125,63744,128
18.76071081,260126,13.50390953,187238,1.181640766,16384,128,10.97611856,152189,29964.84375,64384,128
