Device,Device,Device,Device,Device,Device,Device,Device,Device,Device,Device,Device
ECG Vx-RL,ECG Vx-RL,ECG LA-RA,ECG LA-RA,ExG2 CH1,ExG2 CH1,EXG1 Status,ECG LL-RA,ECG LL-RA,Timestamp,Timestamp,EXG2 Status
CAL,RAW,RAW,CAL,CAL,RAW,RAW,CAL,RAW,RAW,CAL,RAW
mV,No Units,No Units,mV,mV,No Units,No Units,mV,No Units,No Units,mSecs,No Units
-4.73615524,-65669,-224341,-16.17983832,0.589882802,8179,128,8.808863617,122139,1920,16058.59375,128
-2.040104513,-28287,-222748,-16.06494857,1.149113911,15933,128,10.56531376,146493,2560,16078.125,128
-1.188780807,-16483,-218713,-15.77393779,0.572285124,7935,128,11.03201282,152964,3200,16097.65625,128
-0.313296355,-4344,-217132,-15.6599135,0.448812896,6223,128,11.06966031,153486,3840,16117.1875,128
-1.44E-04,-2,-215286,-15.52677697,0.589594315,8175,128,11.11942424,154176,4480,16136.71875,128
-0.011539461,-160,-216811,-15.63676246,0.331182519,4592,128,10.96284818,152005,5120,16156.25,128
-2.084603558,-28904,-218113,-15.73066482,0.071544656,992,128,10.78405866,149526,5760,16175.78125,128
-1.699978912,-23571,-219671,-15.84303031,0.035267476,489,128,10.70696064,148457,6400,16195.3125,128
-1.188636564,-16481,-218866,-15.7849724,7.21E-05,1,128,10.6854684,148159,7040,16214.84375,128
-0.307238139,-4260,-217842,-15.71111986,0.055317289,767,128,10.69520482,148294,7680,16234.375,128
-0.555048055,-7696,-218859,-15.78446755,1.177024982,16320,128,10.6384451,147507,8320,16253.90625,128
-0.147705096,-2048,-218954,-15.79131911,1.108653678,15372,128,10.58875329,146818,8960,16273.4375,128
0.005697609,79,-217943,-15.71840414,1.165197035,16156,128,10.6014467,146994,9600,16292.96875,128
-18.86947022,-261634,-218116,-15.73088118,1.181280158,16379,128,10.59401817,146891,10240,16312.5,128
-18.46299272,-255998,-218430,-15.75352737,0.018967988,263,128,10.51966077,145860,10880,16332.03125,128
-18.2971851,-253699,-217338,-15.67477055,1.181568644,16383,128,10.56855924,146538,11520,16351.5625,128
1.035017495,14351,-216237,-15.59536464,1.18048682,16368,128,10.58485873,146764,12160,16371.09375,128
-16.24784902,-225284,-217078,-15.65601893,1.051749712,14583,128,10.54497546,146211,12800,16390.625,128
-15.42494123,-213874,-216982,-15.64909526,1.172914049,16263,128,10.51901168,145851,13440,16410.15625,128
-15.37698035,-213209,-216331,-15.60214407,1.17695286,16319,128,10.54497546,146211,14080,16429.6875,128
4.431369237,61443,-216298,-15.59976406,1.037397508,14384,128,10.53430146,146063,14720,16449.21875,128
-14.47459453,-200697,-216677,-15.62709816,1.043095117,14463,128,10.47948903,145303,15360,16468.75,128
4.541354721,62968,-216027,-15.5802191,1.0397054,14416,128,10.48965818,145444,16000,16488.28125,128
-14.29111711,-198153,-214209,-15.44910198,1.149258155,15935,128,10.63765176,147496,16640,16507.8125,128
4.592633199,63679,-215282,-15.52648849,1.108653678,15372,128,10.51216012,145756,17280,16527.34375,128
4.722019401,65473,-213445,-15.39400105,1.181063793,16376,128,10.5881042,146809,17920,16546.875,128
-14.25303689,-197625,-214226,-15.45032805,1.043095117,14463,128,10.52297837,145906,18560,16566.40625,128
-14.32739429,-198656,-215119,-15.51473266,1.114784016,15457,128,10.42532568,144552,19200,16585.9375,128
4.721947279,65472,-215331,-15.53002245,1.121635571,15552,128,10.3576756,143614,19840,16605.46875,128
4.718413319,65423,-214353,-15.45948749,1.147599357,15912,128,10.45316463,144938,20480,16625,128
-14.47307998,-200676,-215479,-15.54069645,1.17695286,16319,128,10.40267949,144238,21120,16644.53125,128
4.722019401,65473,-204069,-14.71778866,0.553317136,7672,128,11.00475085,152586,21760,16664.0625,128
4.690790736,65040,-205704,-14.83570753,1.145291465,15880,128,10.75910458,149180,22400,16683.59375,128
3.729265181,51708,-210841,-15.20619633,1.172409197,16256,128,10.42633539,144566,23040,16703.125,128
4.717403617,65409,-212787,-15.34654502,1.050090915,14560,128,10.3896976,144058,23680,16722.65625,128
3.616539075,50145,-212656,-15.33709709,1.069707998,14832,128,10.42164748,144501,24320,16742.1875,128
3.54946596,49215,-212452,-15.32238428,1.089757811,15110,128,10.40246313,144235,24960,16761.71875,128
3.54946596,49215,-212461,-15.32303337,1.172409197,16256,128,10.34447734,143431,25600,16781.25,128
-15.22862616,-211152,-211419,-15.24788263,5.05E-04,7,128,10.46095377,145046,26240,16800.78125,128
3.69248315,51198,-210167,-15.15758635,1.18048682,16368,128,10.47501749,145241,26880,16820.3125,128
-14.91778194,-206842,-208496,-15.03707111,1.154018182,16001,128,10.60505278,147044,27520,16839.84375,128
3.83153365,53126,-208416,-15.03130138,1.144570249,15870,128,10.59690304,146931,28160,16859.375,128
-14.78089509,-204944,-207557,-14.9693489,0.01507342,209,128,10.68128534,148101,28800,16878.90625,128
4.576405832,63454,-206987,-14.92823958,0.078468332,1088,128,10.71756252,148604,29440,16898.4375,128
4.062971957,56335,-209087,-15.079695,0.028560165,396,128,10.57894475,146682,30080,16917.96875,128
3.70178684,51327,-210689,-15.19523385,1.173563143,16272,128,10.46975261,145168,30720,16937.5,128
-15.23201588,-211199,-212118,-15.29829565,1.04280663,14459,128,10.28555397,142614,31360,16957.03125,128
-15.2137691,-210946,-211326,-15.24117532,1.037758116,14389,128,10.31440262,143014,32000,16976.5625,128
-15.21485093,-210961,-210366,-15.17193856,1.163393994,16131,128,10.33697669,143327,32640,16996.09375,128
-15.24600747,-211393,-210509,-15.18225195,1.140603559,15815,128,10.28980914,142673,33280,17015.625,128
-15.3331304,-212601,-211839,-15.27817372,1.067616471,14803,128,10.24184826,142008,33920,17035.15625,128
3.581848572,49664,-210557,-15.18571379,1.177024982,16320,128,10.32269661,143129,34560,17054.6875,128
-15.22235158,-211065,-210237,-15.16263487,1.181568644,16383,128,10.24112704,141998,35200,17074.21875,128
3.581487963,49659,-210926,-15.21232667,1.043455725,14468,128,10.22828939,141820,35840,17093.75,128
3.618125751,50167,-209929,-15.14042141,1.144714492,15872,128,10.27502421,142468,36480,17113.28125,128
3.728399721,51696,-208724,-15.05351484,0.035195355,488,128,10.30336801,142861,37120,17132.8125,128
3.82266269,53003,-210354,-15.1710731,1.179332874,16352,128,10.19987347,141426,37760,17152.34375,128
-15.36111359,-212989,-210207,-15.16047122,1.174644968,16287,128,10.21920207,141694,38400,17171.875,128
3.840260367,53247,-208288,-15.02206981,0.011539461,160,128,10.33798639,143341,39040,17191.40625,128
3.708638395,51422,-209555,-15.11344792,1.181496523,16382,128,10.21018686,141569,39680,17210.9375,128
3.609543277,50048,-208531,-15.03959537,0.017164948,238,128,10.23146274,141864,40320,17230.46875,128
-15.21571639,-210973,-211222,-15.23367467,1.107716096,15359,128,10.10878385,140163,40960,17250,128
-15.0700307,-208953,-208863,-15.06353975,1.168154021,16197,128,10.2906746,142685,41600,17269.53125,128
-14.32739429,-198656,-206768,-14.91244494,1.173346779,16269,128,10.40693467,144297,42240,17289.0625,128
3.989191531,55312,-207991,-15.00064969,1.172409197,16256,128,10.32760088,143197,42880,17308.59375,128
-14.9923557,-207876,-209072,-15.07861317,1.180414698,16367,128,10.22691908,141801,43520,17328.125,128
3.839755516,53240,-208698,-15.05163968,1.181063793,16376,128,10.20124378,141445,44160,17347.65625,128
-15.06829978,-208929,-208084,-15.007357,1.167721292,16191,128,10.22316876,141749,44800,17367.1875,128
4.097085487,56808,-206927,-14.92391228,0.002019406,28,128,10.28728489,142638,45440,17386.71875,128
-14.4821673,-200802,-194701,-14.04215324,0.572862097,7943,128,11.25688806,156082,46080,17406.25,128
-14.47286361,-200673,-199177,-14.36496965,0.111283673,1543,128,11.00965512,152654,46720,17425.78125,128
4.726490942,65535,-206891,-14.9213159,1.044321185,14480,128,10.18782916,141259,47360,17445.3125,128
4.449111158,61689,-207229,-14.94569301,1.089325081,15104,128,10.22865,141825,48000,17464.84375,128
-14.47502726,-200703,-208052,-15.00504911,1.131083504,15683,128,10.18133821,141169,48640,17484.375,128
4.445000225,61632,-207461,-14.96242523,1.140964167,15820,128,10.22078874,141716,49280,17503.90625,128
4.703484142,65216,-207597,-14.97223377,1.179332874,16352,128,10.21574023,141646,49920,17523.4375,128
-14.88136052,-206337,-206332,-14.88099991,0.00887096,123,128,10.30509893,142885,50560,17542.96875,128
-14.79474244,-205136,-206668,-14.90523278,1.165413399,16159,128,10.24906042,142108,51200,17562.5,128
-14.84443424,-205825,-205305,-14.806931,1.174933454,16291,128,10.38789456,144033,51840,17582.03125,128
4.675284585,64825,-205509,-14.82164381,1.152792114,15984,128,10.38464908,143988,52480,17601.5625,128
4.690718614,65039,-204169,-14.72500083,1.163033386,16126,128,10.49997157,145587,53120,17621.09375,128
-14.62705965,-202811,-203864,-14.70300373,1.164259453,16143,128,10.53091175,146016,53760,17640.625,128
-14.18892076,-196736,-206751,-14.91121887,1.141901748,15833,128,10.31144563,142973,54400,17660.15625,128
4.705503548,65244,-208197,-15.01550675,1.107932461,15362,128,10.19446435,141351,55040,17679.6875,128
-14.77058169,-204801,-208046,-15.00461638,1.179837725,16359,128,10.16475024,140939,55680,17699.21875,128
-14.91475283,-206800,-207782,-14.98557627,1.180558941,16369,128,10.19338252,141336,56320,17718.75,128
3.690824353,51175,-209753,-15.127728,0.59067614,8190,128,10.01726151,138894,56960,17738.28125,128
-14.80750797,-205313,-208766,-15.05654395,1.177529833,16327,128,10.06904484,139612,57600,17757.8125,128
4.061890133,56320,-207835,-14.98939872,0.003461838,48,128,10.12017907,140321,58240,17777.34375,128
4.435696535,61503,-208241,-15.0186801,1.149474519,15938,128,10.05029321,139352,58880,17796.875,128
4.01529956,55674,-208407,-15.03065229,1.144570249,15870,128,10.07438184,139686,59520,17816.40625,128
-14.62568934,-202792,-208259,-15.01997829,0.590748261,8191,128,10.04805744,139321,60160,17835.9375,128
4.524261895,62731,-207497,-14.96502161,1.163754602,16136,128,10.08390189,139818,60800,17855.46875,128
-14.77952478,-204925,-207954,-14.99798119,0.581083963,8057,128,10.03421009,139129,61440,17875,128
4.134516613,57327,-208073,-15.00656366,0.556202001,7712,128,10.00550568,138731,62080,17894.53125,128
-15.02214194,-208289,-207277,-14.94915485,0.556129879,7711,128,10.00918388,138782,62720,17914.0625,128
4.125573531,57203,-208097,-15.00829458,0.580434868,8048,128,9.964468475,138162,63360,17933.59375,128
-14.77865932,-204913,-207135,-14.93891358,0.586420964,8131,128,9.998077154,138628,64000,17953.125,128
4.48509985,62188,-206480,-14.89167391,0.586204599,8128,128,10.0532502,139393,64640,17972.65625,128
4.689853154,65027,-206146,-14.86758529,1.177024982,16320,128,10.06377996,139539,65280,17992.1875,128
4.136247532,57351,-205119,-14.79351637,1.177169225,16322,128,10.06673694,139580,384,18011.71875,128
4.723966685,65500,-206763,-14.91208433,0.588512491,8160,128,9.938360445,137800,1024,18031.25,128
4.615784242,64000,-206320,-14.88013445,0.517112078,7170,128,9.925234309,137618,1664,18050.78125,128
4.135526316,57341,-207219,-14.94497179,0.587502788,8146,128,9.867176398,136813,2304,18070.3125,128
-14.77079806,-204804,-206348,-14.88215385,0.582093666,8071,128,9.88809167,137103,2944,18089.84375,128
4.597032618,63740,-206159,-14.86852287,0.589954923,8180,128,9.927397958,137648,3584,18109.375,128
-14.23623255,-197392,-194251,-14.00969851,0.001803041,25,128,10.67263075,147981,4224,18128.90625,128
0.219249751,3040,-199571,-14.39338558,0.001730919,24,128,10.1559514,140817,4864,18148.4375,128
-14.75219068,-204546,-203620,-14.68540605,0.461650546,6401,128,9.899847496,137266,5504,18167.96875,128
4.139132397,57391,-204305,-14.73480937,0.443115287,6144,128,9.896241414,137216,6144,18187.5,128
4.698796236,65151,-204424,-14.74339184,0.59067614,8190,128,9.858233316,136689,6784,18207.03125,128
4.209450985,58366,-203782,-14.69708976,0.570049354,7904,128,9.875758872,136932,7424,18226.5625,128
4.20966735,58369,-203099,-14.64783068,0.572068759,7932,128,9.909944524,137406,8064,18246.09375,128
4.142305749,57435,-204197,-14.72702023,0.579280922,8032,128,9.811210014,136037,8704,18265.625,128
4.360617919,60462,-202369,-14.59518189,0.572357246,7936,128,9.928407661,137662,9344,18285.15625,128
4.427546791,61390,-200155,-14.43550461,0.036926274,512,128,10.05173565,139372,9984,18304.6875,128
4.726274577,65532,-200736,-14.47740727,1.18048682,16368,128,10.05209625,139377,10624,18324.21875,128
4.726490942,65535,-199139,-14.36222903,1.44E-04,2,128,10.13366582,140508,11264,18343.75,128
4.653215367,64519,-198444,-14.3121045,0.007933379,110,128,10.12573244,140398,11904,18363.28125,128
-14.44776528,-200325,-200061,-14.42872517,1.108581556,15371,128,10.03017128,139073,12544,18382.8125,128
-14.47877758,-200755,-202295,-14.58984489,0.574593016,7967,128,9.823975542,136214,13184,18402.34375,128
4.1684859,57798,-203143,-14.65100403,0.512352051,7104,128,9.725168911,134844,13824,18421.875,128
4.293761169,59535,-202229,-14.58508487,0.291659867,4044,128,9.747382372,135152,14464,18441.40625,128
4.399347234,60999,-202372,-14.59539826,0.288342272,3998,128,9.716081585,134718,15104,18460.9375,128
4.285611425,59422,-201077,-14.50200075,0.009087325,126,128,9.760292144,135331,15744,18480.46875,128
4.297295129,59584,-202354,-14.59410007,0.294256245,4080,128,9.66314431,133984,16384,18500,128
4.135959045,57347,-200686,-14.47380119,0.009664298,134,128,9.753007859,135230,17024,18519.53125,128
4.396462369,60959,-201642,-14.54274947,0.262955459,3646,128,9.687088691,134316,17664,18539.0625,128
-14.62338145,-202760,-200540,-14.46327143,2.16E-04,3,128,9.716442194,134723,18304,18558.59375,128
4.136031167,57348,-200940,-14.49212009,0.294833218,4088,128,9.652253944,133833,18944,18578.125,128
-14.2927759,-198176,-199922,-14.41870027,0.00973642,135,128,9.712187017,134664,19584,18597.65625,128
4.63475223,64263,-200496,-14.46009808,0.253868133,3520,128,9.62419863,133444,20224,18617.1875,128
4.648094731,64448,-199791,-14.40925233,0.290505921,4028,128,9.695743286,134436,20864,18636.71875,128
-14.32566337,-198632,-200018,-14.42562394,0.115466728,1601,128,9.642589646,133699,21504,18656.25,128
4.542797153,62988,-198968,-14.34989623,0.230789212,3200,128,9.684059582,134274,22144,18675.78125,128
-14.20969179,-197024,-199163,-14.36395995,0.29533807,4095,128,9.671366176,134098,22784,18695.3125,128
4.65292688,64515,-198533,-14.31852333,0.002019406,28,128,9.695238435,134429,23424,18714.84375,128
4.616866066,64015,-197546,-14.24733928,0.294256245,4080,128,9.750627846,135197,24064,18734.375,128
4.680477343,64897,-197367,-14.23442951,0.258339674,3582,128,9.708869423,134618,24704,18753.90625,128
-14.32436518,-198614,-197892,-14.27229336,0.226822522,3145,128,9.678938947,134203,25344,18773.4375,128
-14.29962746,-198271,-198167,-14.29212681,0.2497572,3463,128,9.60645671,133198,25984,18792.96875,128
4.722956982,65486,-198774,-14.33590464,0,0,128,9.564770408,132620,26624,18812.5,128
-14.18423285,-196671,-198496,-14.31585483,0.109841241,1523,128,9.552870339,132455,27264,18832.03125,128
-18.90423285,-262116,-197540,-14.24690655,0.181962869,2523,128,9.625857428,133467,27904,18851.5625,128
5.289400254,73340,-182159,-13.13760378,1.236020474,17138,128,11.00907815,152646,28544,18871.09375,128
0.157153029,2179,-194137,-14.00147665,0.281274352,3900,128,9.660259445,133944,29184,18890.625,128
4.726274577,65532,-196631,-14.18134799,0.034618382,480,128,9.546956366,132373,29824,18910.15625,128
0.014135839,196,-195941,-14.13158406,0.276947054,3840,128,9.612514926,133282,30464,18929.6875,128
-18.82316814,-260992,-195429,-14.09465779,0.239948659,3327,128,9.632420496,133558,31104,18949.21875,128
0.046013599,638,-195285,-14.08427228,0.143233555,1986,128,9.596071195,133054,31744,18968.75,128
0.013703109,190,-195396,-14.09227778,0,0,128,9.583594153,132881,32384,18988.28125,128
0.240020781,3328,-193382,-13.94702482,0.059428222,824,128,9.68218442,134248,33024,19007.8125,128
0.281562839,3904,-193705,-13.9703201,0.294833218,4088,128,9.672375878,134112,33664,19027.34375,128
4.726563063,65536,-191194,-13.78922269,0.059283979,822,128,9.837822895,136406,34304,19046.875,128
4.726563063,65536,-190439,-13.73477086,0.002452135,34,128,9.852535707,136610,34944,19066.40625,128
4.846645575,67201,-191103,-13.78265962,0.587214301,8142,128,9.795487499,135819,35584,19085.9375,128
0.589017342,8167,-190705,-13.75395522,0.59067614,8190,128,9.834216813,136356,36224,19105.46875,128
-14.17968919,-196608,-191469,-13.80905614,0.5171842,7171,128,9.752214521,135219,36864,19125,128
4.781952474,66304,-193426,-13.95019817,0.147705096,2048,128,9.569169828,132681,37504,19144.53125,128
-18.68447825,-259069,-193149,-13.93022048,0.115322484,1599,128,9.531450216,132158,38144,19164.0625,128
0.145902055,2023,-192511,-13.88420688,0.065197952,904,128,9.547677582,132383,38784,19183.59375,128
-18.61192389,-258063,-192557,-13.88752447,0.013919474,193,128,9.499933064,131721,39424,19203.125,128
0.461362059,6397,-192184,-13.8606231,0.110778822,1536,128,9.499788821,131719,40064,19222.65625,128
0.503048361,6975,-191949,-13.84367452,0.036926274,512,128,9.492504536,131618,40704,19242.1875,128
4.873042091,67567,-190487,-13.7382327,0.138473527,1920,128,9.564481922,132616,41344,19261.71875,128
0.590531896,8188,-190709,-13.7542437,0.073419818,1018,128,9.51435739,131921,41984,19281.25,128
-18.46320909,-256001,-190658,-13.7505655,0.073780426,1023,128,9.521425309,132019,42624,19300.78125,128
-18.32466344,-254080,-190135,-13.71284589,0.035123233,487,128,9.50195247,131749,43264,19320.3125,128
-18.35264663,-254468,-190203,-13.71775016,0.005120636,71,128,9.487672387,131551,43904,19339.84375,128
0.590748261,8191,-190259,-13.72178897,0,0,128,9.460843141,131179,44544,19359.375,128
-18.31975917,-254012,-189739,-13.68428572,7.21E-05,1,128,9.471084412,131321,45184,19378.90625,128
-14.1206937,-195790,-188537,-13.59759552,0.004543663,63,128,9.496326983,131671,45824,19398.4375,128
-18.45945876,-255949,-188794,-13.61613078,1.179404995,16353,128,9.541475122,132297,46464,19417.96875,128
0.59067614,8190,-189228,-13.64743157,0.002163649,30,128,9.482984481,131486,47104,19437.5,128
-14.1046827,-195568,-186925,-13.48133546,0.004543663,63,128,9.554384894,132476,47744,19457.03125,128
4.736010997,65667,-188533,-13.59730704,1.166062494,16168,128,9.423772624,130665,48384,19476.5625,128
4.832798223,67009,-188084,-13.56492443,0.001009703,14,128,9.411944677,130501,49024,19496.09375,128
-17.74083885,-245985,-188129,-13.5681699,1.181280158,16379,128,9.367301389,129882,49664,19515.625,128
4.763417216,66047,-187495,-13.52244479,1.172120711,16252,128,9.358430428,129759,50304,19535.15625,128
-14.16115393,-196351,-188079,-13.56456382,2.280125294,31615,128,9.351218265,129659,50944,19554.6875,128
-13.87966321,-192448,-174390,-12.57729084,0.562909313,7805,128,10.38327877,143969,51584,19574.21875,128
-13.93966841,-193280,-182170,-13.13839711,1.126179233,15615,128,9.605879737,133190,52224,19593.75,128
-14.11506821,-195712,-184424,-13.30095927,1.167288562,16185,128,9.401847649,130361,52864,19613.28125,128
5.003510118,69376,-185226,-13.35880081,1.17298617,16264,128,9.371268078,129937,53504,19632.8125,128
5.007548929,69432,-185037,-13.34516982,1.152792114,15984,128,9.358718915,129763,54144,19652.34375,128
-14.10994758,-195641,-184348,-13.29547802,1.168009778,16195,128,9.359800739,129778,54784,19671.875,128
-14.1093706,-195633,-183346,-13.22321215,1.178106806,16335,128,9.403434325,130383,55424,19691.40625,128
-13.84742485,-192001,-181934,-13.12137641,2.321090379,32183,128,9.468415912,131284,56064,19710.9375,128
-13.94688057,-193380,-181099,-13.06115485,0.036998396,513,128,9.500365794,131727,56704,19730.46875,128
4.753103823,65904,-179869,-12.97244525,0.075150737,1042,128,9.55597157,132498,57344,19750,128
4.762335391,66032,-178897,-12.90234302,0.146839636,2036,128,9.606096102,133193,57984,19769.53125,128
-14.00327969,-194162,-177240,-12.78283748,0.009447933,131,128,9.687593542,134323,58624,19789.0625,128
-13.99859178,-194097,-177612,-12.80966673,0.26302758,3647,128,9.643599348,133713,59264,19808.59375,128
4.728870956,65568,-179677,-12.95859789,0.027694705,384,128,9.471949872,131333,59904,19828.125,128
-14.14283504,-196097,-179944,-12.97785437,1.181568644,16383,128,9.387567566,130163,60544,19847.65625,128
-14.17550614,-196550,-179806,-12.96790158,1.180414698,16367,128,9.345737022,129583,61184,19867.1875,128
-14.06436671,-195009,-179139,-12.91979646,1.149258155,15935,128,9.350352806,129647,61824,19886.71875,128
4.763417216,66047,-179249,-12.92772984,1.176880738,16318,128,9.278159055,128646,62464,19906.25,128
4.727572766,65550,-178388,-12.86563311,2.232885627,30960,128,9.315950789,129170,63104,19925.78125,128
-14.16129818,-196353,-177022,-12.76711497,2.07183803,28727,128,9.3686717,129901,63744,19945.3125,128
-14.03652776,-194623,-178227,-12.85402153,2.104725493,29183,128,9.230775145,127989,64384,19964.84375,128
4.965357776,68847,-177007,-12.76603314,1.163466115,16132,128,9.28320757,128716,65024,19984.375,128
4.72908732,65571,-177302,-12.78730903,1.145002978,15876,128,9.232506064,128013,128,20003.90625,128
5.317167081,73725,-176311,-12.71583649,2.227404383,30884,128,9.253637702,128306,768,20023.4375,128
-13.88435112,-192513,-176162,-12.70509037,1.181568644,16383,128,9.22168782,127863,1408,20042.96875,128
-13.6445467,-189188,-175915,-12.68727633,1.176808617,16317,128,9.217504766,127805,2048,20062.5,128
-13.71868774,-190216,-174962,-12.61854441,2.077030787,28799,128,9.263302,128440,2688,20082.03125,128
-13.84756909,-192003,-175731,-12.67400595,1.174067995,16279,128,9.150143164,126871,3328,20101.5625,128
-13.77350018,-190976,-175395,-12.64977308,1.172481319,16257,128,9.132978217,126633,3968,20121.09375,128
-13.62579508,-188928,-173884,-12.5407973,1.179404995,16353,128,9.217793252,127809,4608,20140.625,128
-14.11506821,-195712,-173616,-12.5214687,2.078184733,28815,128,9.203441048,127610,5248,20160.15625,128
4.753680796,65912,-173752,-12.53127724,2.06787134,28672,128,9.199834967,127560,5888,20179.6875,128
5.298920309,73472,-173200,-12.4914661,2.133357779,29580,128,9.225510266,127916,6528,20199.21875,128
4.873042091,67567,-171801,-12.39056795,2.086767207,28934,128,9.206470156,127652,7168,20218.75,128
-13.57970936,-188289,-171909,-12.39835708,1.181135914,16377,128,9.157355327,126971,7808,20238.28125,128
-13.59297974,-188473,-172959,-12.47408479,1.15214302,15975,128,9.026093963,125151,8448,20257.8125,128
-14.10122086,-195520,-170917,-12.32681243,1.77253327,24577,128,9.14639284,126819,9088,20277.34375,128
5.349549693,74174,-171861,-12.39489524,1.779384825,24672,128,9.039292221,125334,9728,20296.875,128
5.390082048,74736,-171214,-12.34823255,1.994884252,27660,128,9.084440361,125960,10368,20316.40625,128
-9.735842912,-134992,-154960,-11.1759676,0.144171136,1999,128,10.18451156,141213,11008,20335.9375,128
5.647628385,78307,-166037,-11.97485888,1.108220948,15366,128,9.163341422,127054,11648,20355.46875,128
5.8334137,80883,-167181,-12.05736602,1.111250056,15408,128,9.165793558,127088,12288,20375,128
-13.91651737,-192959,-168882,-12.18004491,1.052615172,14595,128,9.04809106,125456,12928,20394.53125,128
-13.31192175,-184576,-168108,-12.12422277,1.773110243,24585,128,9.040662532,125353,13568,20414.0625,128
5.907049883,81904,-166631,-12.01769912,1.801886773,24984,128,9.139541285,126724,14208,20433.59375,128
5.616255476,77872,-166687,-12.02173794,1.181352279,16380,128,9.114154472,126372,14848,20453.125,128
-13.16479363,-182536,-165226,-11.91636824,1.790852164,24831,128,9.161394139,127027,15488,20472.65625,128
5.889957057,81667,-164782,-11.88434623,2.071333178,28720,128,9.179713032,127281,16128,20492.1875,128
7.098499191,98424,-162981,-11.75445518,2.084026585,28896,128,9.301093733,128964,16768,20511.71875,128
7.145161884,99071,-162065,-11.68839177,2.218028571,30754,128,9.317104735,129186,17408,20531.25,128
-11.53953273,-160001,-160080,-11.54523033,2.358593626,32703,128,9.420671394,130622,18048,20550.78125,128
-11.65377339,-161585,-161111,-11.61958773,1.177529833,16327,128,9.390308188,130201,18688,20570.3125,128
-10.63296385,-147431,-162469,-11.71752891,1.156181831,16031,128,9.242675214,128154,19328,20589.84375,128
5.871566042,81412,-163777,-11.811864,1.165197035,16156,128,9.075353035,125834,19968,20609.375,128
-12.99934661,-180242,-164114,-11.83616898,1.145796316,15887,128,9.017944219,125038,20608,20628.90625,128
7.103619826,98495,-163663,-11.80364213,1.773326608,24588,128,9.017872097,125037,21248,20648.4375,128
7.090710055,98316,-163256,-11.77428863,1.153369087,15992,128,8.98123431,124529,21888,20667.96875,128
7.096768272,98400,-163602,-11.79924271,1.144714492,15872,128,8.947769874,124065,22528,20687.5,128
-11.66769286,-161778,-162194,-11.69769546,1.809315301,25087,128,8.977628228,124479,23168,20707.03125,128
7.219086554,100096,-162044,-11.68687721,1.773038122,24584,128,8.969262119,124363,23808,20726.5625,128
-11.61374588,-161030,-161611,-11.65564855,1.181568644,16383,128,8.95202505,124124,24448,20746.09375,128
-11.52114171,-159746,-160834,-11.59961004,1.772966,24583,128,9.016718151,125021,25088,20765.625,128
7.092080366,98335,-157834,-11.38324516,1.80881045,25080,128,9.155191678,126941,25728,20785.15625,128
8.280139956,114808,-157462,-11.35641591,1.80837772,25074,128,9.140550988,126738,26368,20804.6875,128
-11.37264328,-157687,-157047,-11.32648543,1.181568644,16383,128,9.143724339,126782,27008,20824.21875,128
8.564010687,118744,-156781,-11.30730108,1.165197035,16156,128,9.182814262,127324,27648,20843.75,128
-10.52168018,-145888,-155990,-11.25025287,1.181568644,16383,128,9.166514774,127098,28288,20863.28125,128
-10.58139689,-146716,-155320,-11.20193138,1.794458246,24881,128,9.177188775,127246,28928,20882.8125,128
-10.6918151,-148247,-153397,-11.06324149,2.097801816,29087,128,9.298425233,128927,29568,20902.34375,128
8.132002131,112754,-153212,-11.04989899,2.074795017,28768,128,9.298425233,128927,30208,20921.875,128
8.862810595,122887,-153772,-11.0902871,1.172409197,16256,128,9.243107944,128160,30848,20941.40625,128
-9.814311244,-136080,-153257,-11.05314446,1.179549239,16355,128,9.270946893,128546,31488,20960.9375,128
-10.00716448,-138754,-152242,-10.97994101,2.215792801,30723,128,9.31025318,129091,32128,20980.46875,128
-9.953505987,-138010,-152154,-10.9735943,2.068231948,28677,128,9.279817853,128669,32768,21000,128
-9.900640833,-137277,-153782,-11.09100832,1.144930857,15875,128,9.121510878,126474,33408,21019.53125,128
8.998471379,124768,-153780,-11.09086407,1.116442813,15480,128,9.107735647,126283,34048,21039.0625,128
-10.01516998,-138865,-153341,-11.05920268,1.790852164,24831,128,9.106798066,126270,34688,21058.59375,128
-9.753152103,-135232,-152944,-11.03057039,1.181568644,16383,128,9.092445861,126071,35328,21078.125,128
-9.905472983,-137344,-144760,-10.44032698,2.002745509,27769,128,9.593330573,133016,35968,21097.65625,128
-9.71052822,-134641,-137619,-9.92530643,0.018391015,255,128,10.44523125,144828,36608,21117.1875,128
-9.453775222,-131081,-148362,-10.70010909,0.890774237,12351,128,9.183246992,127330,37248,21136.71875,128
-10.54281182,-146181,-146278,-10.54980761,2.36320941,32767,128,9.422402313,130646,37888,21156.25,128
8.418613484,116728,-145928,-10.52456504,0.017453434,242,128,9.463655885,131218,38528,21175.78125,128
-10.35760347,-143613,-144524,-10.42330628,0.017381313,241,128,9.513347687,131907,39168,21195.3125,128
-10.33849124,-143348,-142692,-10.29117945,0.029930476,415,128,9.623838022,133439,39808,21214.84375,128
8.876441583,123076,-137330,-9.90446328,0.147416609,2044,128,9.975791571,138319,40448,21234.375,128
9.397664594,130303,-132702,-9.570684382,0.28560165,3960,128,10.29154006,142697,41088,21253.90625,128
0.035772328,496,-129552,-9.343501251,0.15275361,2118,128,10.49211031,145478,41728,21273.4375,128
-1.850713116,-25661,-124142,-8.953323239,1.444668346,20031,128,10.89757811,151100,42368,21292.96875,128
-1.492989837,-20701,-118937,-8.577930162,1.476546106,20473,128,11.22508242,155641,43008,21312.5,128
-1.183948658,-16416,-114742,-8.275379929,1.91865169,26603,128,11.51479501,159658,43648,21332.03125,128
-0.028632287,-397,-110857,-7.995187401,2.362632437,32759,128,11.81114278,163767,44288,21351.5625,128
-0.086473833,-1199,-108140,-7.799232936,0.036854152,511,128,11.9422599,165585,44928,21371.09375,128
-0.583896707,-8096,-105403,-7.601836038,0.29533807,4095,128,12.10676934,167866,45568,21390.625,128
-0.041542058,-576,-103830,-7.488388716,0.036998396,513,128,12.16064419,168613,46208,21410.15625,128
-0.14258446,-1977,-103595,-7.471440133,0.001081824,15,128,12.14174833,168351,46848,21429.6875,128
2.288924132,31737,-103495,-7.46422797,0,0,128,12.11686636,168006,47488,21449.21875,128
-7.21E-05,-1,-102670,-7.404727626,0.007140041,99,128,12.13742103,168291,48128,21468.75,128
2.354266328,32643,-103021,-7.430042318,0.018463137,256,128,12.09349896,167682,48768,21488.28125,128
1.909997095,26483,-103085,-7.434658102,1.44E-04,2,128,12.06205393,167246,49408,21507.8125,128
1.883312092,26113,-102779,-7.412588884,0,0,128,12.02181006,166688,50048,21527.34375,128
-0.4604966,-6385,-105528,-7.610851241,5.05E-04,7,128,11.79570875,163553,50688,21546.875,128
1.780538771,24688,-105742,-7.62628527,2.293756282,31804,128,11.77371165,163248,51328,21566.40625,128
1.792655205,24856,-106214,-7.660326679,1.17298617,16264,128,11.69834455,162203,51968,21585.9375,128
1.236958055,17151,-108803,-7.847049576,1.126251355,15616,128,11.46661776,158990,52608,21605.46875,128
-0.165663381,-2297,-109225,-7.877484903,1.789842461,24817,128,11.4277442,158451,53248,21625,128
1.199815416,16636,-109315,-7.88397585,1.772461149,24576,128,11.40848773,158184,53888,21644.53125,128
-7.21E-05,-1,-110917,-7.999514699,1.177241347,16323,128,11.25840262,156103,54528,21664.0625,128
0.147705096,2048,-112457,-8.110582007,0.517256322,7172,128,11.10853387,154025,55168,21683.59375,128
0.263099702,3648,-111416,-8.035503392,1.200103903,16640,128,11.17640032,154966,55808,21703.125,128
0.036709909,509,-113609,-8.193666124,0.586204599,8128,128,11.0245843,152861,56448,21722.65625,128
0.258700282,3587,-112086,-8.083824883,1.200103903,16640,128,11.10442294,153968,57088,21742.1875,128
-0.147777217,-2049,-113460,-8.182920001,0.586132477,8127,128,10.94337534,151735,57728,21761.71875,128
-1.163249751,-16129,-114223,-8.237948804,0.29533807,4095,128,10.83201955,150191,58368,21781.25,128
0.587286423,8143,-115811,-8.35247795,0.070679196,980,128,10.70544609,148436,59008,21800.78125,128
1.148681182,15927,-116555,-8.406136442,0,0,128,10.61435647,147173,59648,21820.3125,128
0.442538314,6136,-116768,-8.421498349,0.034762625,482,128,10.59654243,146926,60288,21839.84375,128
-1.190655969,-16509,-108285,-7.809690572,1.18358805,16411,128,11.16327419,154784,60928,21859.375,128
-0.525333944,-7284,-105588,-7.615178539,1.172625562,16259,128,11.69654151,162178,61568,21878.90625,128
-1.77606723,-24626,-114866,-8.284323011,0.957847352,13281,128,10.48295086,145351,62208,21898.4375,128
-1.997552752,-27697,-118178,-8.523189845,1.116803422,15485,128,10.36596958,143729,62848,21917.96875,128
0.61591871,8540,-118948,-8.5787235,1.115577354,15468,128,10.29175643,142700,63488,21937.5,128
-2.07804049,-28813,-119482,-8.617236449,1.117524638,15495,128,10.21985116,141703,64128,21957.03125,128
-2.342726868,-32483,-118951,-8.578939865,1.174644968,16287,128,10.19388738,141343,64768,21976.5625,128
-2.141219037,-29689,-119802,-8.640315371,1.108004583,15363,128,10.12429,140378,65408,21996.09375,128
-2.070684084,-28711,-118821,-8.569564053,5.05E-04,7,128,10.17520787,141084,512,22015.625,128
-2.334577123,-32370,-118886,-8.574251959,1.173491022,16271,128,10.14657559,140687,1152,22035.15625,128
0.140709298,1951,-117346,-8.46318465,0.006923676,96,128,10.22489968,141773,1792,22054.6875,128
-1.475031552,-20452,-117092,-8.444865757,0.021997097,305,128,10.25519076,142193,2432,22074.21875,128
0.332120101,4605,-117895,-8.502779425,1.179332874,16352,128,10.18544915,141226,3072,22093.75,128
-2.06787134,-28672,-118580,-8.55218274,1.181568644,16383,128,10.1162845,140267,3712,22113.28125,128
-2.353977842,-32639,-121215,-8.742223232,0.590748261,8191,128,9.8938614,137183,4352,22132.8125,128
-2.327437082,-32271,-122511,-8.835692863,0.534926121,7417,128,9.777024362,135563,4992,22152.34375,128
0.035195355,488,-124031,-8.945317739,0.581877301,8068,128,9.607250048,133209,5632,22171.875,128
-2.318998852,-32154,-123164,-8.882788287,0.073780426,1023,128,9.600759101,133119,6272,22191.40625,128
-2.340779584,-32456,-123526,-8.908896316,0.143305676,1987,128,9.588859032,132954,6912,22210.9375,128
0.459847505,6376,-124182,-8.956208105,0.069236764,960,128,9.519766512,131996,7552,22230.46875,128
0.443115287,6144,-124622,-8.987941621,0.002163649,30,128,9.458895857,131152,8192,22250,128
-2.30565635,-31969,-124334,-8.967170592,1.14594056,15889,128,9.428965381,130737,8832,22269.53125,128
-4.154205817,-57600,-124922,-9.00957811,1.167288562,16185,128,9.365065618,129851,9472,22289.0625,128
0.554110474,7683,-125929,-9.08220459,1.11009611,15392,128,9.266258987,128481,10112,22308.59375,128
-4.297439372,-59586,-125390,-9.043331032,2.068231948,28677,128,9.268278392,128509,10752,22328.125,128
-4.59710474,-63741,-125149,-9.02594972,1.170029184,16223,128,9.256594688,128347,11392,22347.65625,128
-4.200507903,-58242,-126594,-9.130165473,1.110023988,15391,128,9.159951706,127007,12032,22367.1875,128
0.057625181,799,-126441,-9.119130864,1.176015279,16306,128,9.133915798,126646,12672,22386.71875,128
-4.723173347,-65489,-126929,-9.154326219,1.172625562,16259,128,9.075425157,125835,13312,22406.25,128
-4.695334398,-65103,-126687,-9.136872785,1.779312704,24671,128,9.072251805,125791,13952,22425.78125,128
0.002163649,30,-127362,-9.185554884,1.181352279,16380,128,9.004601718,124853,14592,22445.3125,128
0.017164948,238,-126802,-9.145166772,1.172409197,16256,128,9.028762463,125188,15232,22464.84375,128
0.278677974,3864,-127175,-9.17206814,1.173274657,16268,128,8.96442997,124296,15872,22484.375,128
0.586997937,8139,-126502,-9.123530283,1.179332874,16352,128,9.036407356,125294,16512,22503.90625,128
-4.429782561,-61421,-126826,-9.146897691,1.772677514,24579,128,9.015059354,124998,17152,22523.4375,128
-4.703556264,-65217,-126671,-9.135718839,1.808305598,25073,128,8.972146985,124403,17792,22542.96875,128
5.05E-04,7,-126137,-9.097205889,1.158561845,16064,128,8.987581013,124617,18432,22562.5,128
0.157008786,2177,-128377,-9.258758337,0.52605516,7294,128,8.804319954,122076,19072,22582.03125,128
-4.697714412,-65136,-129134,-9.31335441,0.517039957,7169,128,8.732703177,121083,19712,22601.5625,128
-4.468151268,-61953,-127513,-9.19644525,0.589882802,8179,128,8.810594536,122163,20352,22621.09375,128
-4.726563063,-65536,-130192,-9.389659094,0.512424172,7105,128,8.637502627,119763,20992,22640.625,128
-4.33941416,-60168,-125494,-9.050831682,1.846097332,25597,128,8.919209709,123669,21632,22660.15625,128
-1.108437313,-15369,-113977,-8.220206883,0.037431125,519,128,9.800391769,135887,22272,22679.6875,128
0.520429673,7216,-125648,-9.061938412,0.111932768,1552,128,8.688059889,120464,22912,22699.21875,128
-4.476445255,-62068,-128611,-9.275634798,0.481988845,6683,128,8.619544342,119514,23552,22718.75,128
-4.57806463,-63477,-128197,-9.245776444,1.183876536,16415,128,8.646734196,119891,24192,22738.28125,128
0.152104515,2109,-129120,-9.312344708,0.279254947,3872,128,8.53090686,118285,25472,22777.34375,128
0.295121705,4092,-128060,-9.235895781,1.182073496,16390,128,8.608365489,119359,26112,22796.875,128
-4.651628691,-64497,-128048,-9.235030321,0.582093666,8071,128,8.60043211,119249,26752,22816.40625,128
-4.698868358,-65152,-127849,-9.220678117,1.183299563,16407,128,8.606850935,119338,27392,22835.9375,128
-4.690790736,-65040,-127145,-9.169904491,0.572573611,7939,128,8.646806317,119892,28032,22855.46875,128
0.017958286,249,-126065,-9.092013132,1.181640766,16384,128,8.696858728,120586,28672,22875,128
0.302550233,4195,-125314,-9.037849788,1.190728091,16510,128,8.723471609,120955,29312,22894.53125,128
-4.671534261,-64773,-127013,-9.160384436,0.535647337,7427,128,8.619400098,119512,29952,22914.0625,128
-4.579218576,-63493,-130003,-9.376028106,0.149796623,2077,128,8.379595683,116187,30592,22933.59375,128
0.074862251,1038,-131195,-9.461997087,0.009231568,128,128,8.249199778,114379,31232,22953.125,128
-9.473752913,-131358,-131006,-9.448366099,1.172769806,16261,128,8.24573794,114331,31872,22972.65625,128
9.442956977,130931,-130692,-9.425719908,0,0,128,8.243285804,114297,32512,22992.1875,128
0.033320192,462,-130470,-9.409708906,1.177024982,16320,128,8.216168072,113921,33152,23011.71875,128
0.055389411,768,-131454,-9.480676589,1.177024982,16320,128,8.130271212,112730,33792,23031.25,128
0.00353396,49,-130089,-9.382230566,0.006779433,94,128,8.212922598,113876,34432,23050.78125,128
-4.690430127,-65035,-130701,-9.426369003,1.172481319,16257,128,8.133444564,112774,35072,23070.3125,128
0.046013599,638,-130107,-9.383528755,1.179332874,16352,128,8.181910298,113446,35712,23089.84375,128
0.147632974,2047,-130926,-9.442596369,1.073169836,14880,128,8.084401856,112094,36352,23109.375,128
-9.453775222,-131081,-129487,-9.338813345,0.004110933,57,128,8.147941011,112975,36992,23128.90625,128
-4.719639387,-65440,-130719,-9.427667192,1.17652013,16313,128,8.051586515,111639,37632,23148.4375,128
-4.726563063,-65536,-130519,-9.413242866,1.167721292,16191,128,8.028291229,111316,38272,23167.96875,128
-4.708172048,-65281,-130264,-9.394851851,1.163393994,16131,128,8.041850095,111504,38912,23187.5,128
0.001081824,15,-129829,-9.363478942,0,0,128,8.040696149,111488,39552,23207.03125,128
-4.722019401,-65473,-131704,-9.498706996,1.173491022,16271,128,7.891909229,109425,40192,23226.5625,128
-4.689131938,-65017,-129714,-9.355184955,0.036854152,511,128,7.991004347,110799,40832,23246.09375,128
-4.558663912,-63208,-128375,-9.258614094,0.016660096,231,128,8.083464275,112081,41472,23265.625,128
-4.43814867,-61537,-127171,-9.171779653,1.180558941,16369,128,8.160057445,113143,42112,23285.15625,128
-4.710407819,-65312,-126335,-9.111485971,0.036854152,511,128,8.196983719,113655,42752,23304.6875,128
0.002524257,35,-126754,-9.141704934,1.18048682,16368,128,8.2235966,114024,43392,23324.21875,128
-4.611312701,-63938,-125506,-9.051697141,0.072770723,1009,128,8.256195576,114476,44032,23343.75,128
0.00223577,31,-124406,-8.972363349,1.182217739,16392,128,8.297449147,115048,44672,23363.28125,128
5.77E-04,8,-124109,-8.950943226,1.185102604,16432,128,8.312378325,115255,45312,23382.8125,128
-4.66886576,-64736,-124451,-8.975608823,0.004543663,63,128,8.231890587,114139,45952,23402.34375,128
-4.504067839,-62451,-123017,-8.872186407,1.218494918,16895,128,8.34627549,115725,46592,23421.875,128
-4.467862781,-61949,-123284,-8.891442882,0.073780426,1023,128,8.317787447,115330,47232,23441.40625,128
-4.449255401,-61691,-119834,-8.642623263,1.254988462,17401,128,8.532060806,118301,47872,23460.9375,128
0.036637787,508,-107079,-7.722711888,0.126934067,1760,128,9.746228426,135136,48512,23480.46875,128
0.001153946,16,-116770,-8.421642592,0.890557872,12348,128,8.572953769,118868,49152,23500,128
-3.831677894,-53128,-119860,-8.644498425,0.295049583,4091,128,8.473930773,117495,49792,23519.53125,128
-3.544994419,-49153,-120152,-8.665557941,0.112437619,1559,128,8.417171051,116708,50432,23539.0625,128
1.116370692,15479,-119739,-8.635771708,1.183660171,16412,128,8.439889364,117023,51072,23558.59375,128
-3.692338907,-51196,-120180,-8.667577346,0.136670487,1895,128,8.386879967,116288,51712,23578.125,128
1.089541446,15107,-120037,-8.657263953,1.213951256,16832,128,8.378658101,116174,52352,23597.65625,128
0.870003208,12063,-120173,-8.667072495,0.147416609,2044,128,8.37151806,116075,52992,23617.1875,128
-3.573121854,-49543,-119644,-8.628920153,0.147344488,2043,128,8.424888065,116815,53632,23636.71875,128
-3.563385435,-49408,-119175,-8.595095109,1.186184428,16447,128,8.444865757,117092,54272,23656.25,128
-3.835788826,-53185,-117591,-8.480854449,1.246333867,17281,128,8.553625173,118600,54912,23675.78125,128
-3.766840549,-52229,-117797,-8.495711505,0.29533807,4095,128,8.532277171,118304,55552,23695.3125,128
1.108653678,15372,-119007,-8.582978676,0.258339674,3582,128,8.463761623,117354,56192,23714.84375,128
0.886591183,12293,-121083,-8.732703177,0.03231049,448,128,8.303940094,115138,56832,23734.375,128
-3.992581247,-55359,-122331,-8.82271097,1.111466421,15411,128,8.177150271,113380,57472,23753.90625,128
0.895390021,12415,-120987,-8.725779501,1.1167313,15484,128,8.205710436,113776,58112,23773.4375,128
0.600051951,8320,-121632,-8.772297951,0,0,128,8.152917403,113044,58752,23792.96875,128
0.590892505,8193,-122042,-8.801867819,1.144714492,15872,128,8.107264412,112411,59392,23812.5,128
-4.025108102,-55810,-121451,-8.759243936,1.181568644,16383,128,8.122409954,112621,60032,23832.03125,128
-4.069967755,-56432,-121107,-8.734434096,0.009159447,127,128,8.125150576,112659,60672,23851.5625,128
0.88428329,12261,-119134,-8.592138123,0.018318894,254,128,8.236722736,114206,61312,23871.09375,128
-3.824177244,-53024,-118028,-8.512371601,1.190655969,16509,128,8.30466131,115148,61952,23890.625,128
0.969242569,13439,-117692,-8.488138734,1.254339368,17392,128,8.341876071,115664,62592,23910.15625,128
1.034152035,14339,-115554,-8.333942692,1.251887232,17358,128,8.452582771,117199,63232,23929.6875,128
1.163754602,16136,-115499,-8.329976002,0.293390786,4068,128,8.434985093,116955,63872,23949.21875,128
1.143488424,15855,-115810,-8.352405829,0.274927649,3812,128,8.370219871,116057,64512,23968.75,128
-3.54636473,-49172,-114702,-8.272495064,1.226716784,17009,128,8.456910069,117259,65152,23988.28125,128
1.177024982,16320,-115502,-8.330192367,1.18625655,16448,128,8.379956291,116192,256,24007.8125,128
1.098484528,15231,-115872,-8.35687737,1.181640766,16384,128,8.339856665,115636,896,24027.34375,128
1.156758804,16039,-116059,-8.370364114,1.182217739,16392,128,8.313676514,115273,1536,24046.875,128
-2.410521199,-33423,-113999,-8.221793559,1.200031781,16639,128,8.444000297,117080,2176,24066.40625,128
2.216081287,30727,-114571,-8.26304713,0.143233555,1986,128,8.415007402,116678,2816,24085.9375,128
-2.445860797,-33913,-113465,-8.183280609,1.210705782,16787,128,8.519295278,118124,3456,24105.46875,128
2.270965847,31488,-113913,-8.215591099,1.181640766,16384,128,8.414286186,116668,4096,24125,128
2.220120099,30783,-114257,-8.240400939,0.143377798,1988,128,8.37772052,116161,4736,24144.53125,128
-2.65191229,-36770,-115861,-8.356084032,0.036854152,511,128,8.193810367,113611,5376,24164.0625,128
1.106706394,15345,-116357,-8.391856359,1.179765604,16358,128,8.159552593,113136,6016,24183.59375,128
-3.614231183,-50113,-116657,-8.413492848,1.172769806,16261,128,8.116207494,112535,6656,24203.125,128
0.887312399,12303,-117717,-8.489941775,0.085247765,1182,128,8.061178692,111772,7296,24222.65625,128
0.575819084,7984,-101539,-7.323158064,1.696300709,23520,128,9.418796232,130596,7936,24242.1875,128
0.001009703,14,-109032,-7.863565429,0.309834517,4296,128,8.655172426,120008,8576,24261.71875,128
2.082872639,28880,-114900,-8.286775146,1.017347696,14106,128,8.139214294,112854,9216,24281.25,128
-3.549538082,-49216,-114822,-8.281149659,1.115937962,15473,128,8.131280915,112744,9856,24300.78125,128
1.047710901,14527,-116158,-8.377504155,1.126107112,15614,128,8.051658637,111640,10496,24320.3125,128
-3.618774845,-50176,-115199,-8.308339513,0.009159447,127,128,8.070266017,111898,11136,24339.84375,128
1.181352279,16380,-114716,-8.273504767,0,0,128,8.111375345,112468,11776,24359.375,128
2.070107111,28703,-114841,-8.28251997,1.181063793,16376,128,8.080435166,112039,12416,24378.90625,128
2.067943462,28673,-114149,-8.232611803,4.33E-04,6,128,8.106903804,112406,13056,24398.4375,128
2.086118112,28925,-113628,-8.195036435,0,0,128,8.149960417,113003,13696,24417.96875,128
-2.365012451,-32792,-111965,-8.075098166,0.001370311,19,128,8.266148361,114614,14336,24437.5,128
2.36320941,32767,-112681,-8.126737252,1.181352279,16380,128,8.227491167,114078,14976,24457.03125,128
2.362993045,32764,-111664,-8.053389556,0.014135839,196,128,8.279490862,114799,15616,24476.5625,128
-2.54784078,-35327,-114084,-8.227923897,1.107716096,15359,128,8.099258912,112300,16256,24496.09375,128
2.216730382,30736,-113943,-8.217754748,1.179332874,16352,128,8.062909611,111796,16896,24515.625,128
2.069746503,28698,-114446,-8.254031927,0.004615784,64,128,8.037811284,111448,17536,24535.15625,128
2.06787134,28672,-113795,-8.207080747,1.181063793,16376,128,8.027786377,111309,18176,24554.6875,128
2.094484221,29041,-113819,-8.208811666,1.163321872,16130,128,8.001606226,110946,18816,24574.21875,128
2.215287949,30716,-113589,-8.192223691,1.177024982,16320,128,7.99201405,110813,19456,24593.75,128
2.068953165,28687,-114879,-8.285260592,1.163177629,16128,128,7.904602635,109601,20096,24613.28125,128
1.137574451,15773,-114860,-8.283890281,0.015001299,208,128,7.856064779,108928,20736,24632.8125,128
-3.584156464,-49696,-114717,-8.273576888,0.009159447,127,128,7.867387875,109085,21376,24652.34375,128
1.181568644,16383,-115987,-8.365171357,1.172409197,16256,128,7.757113905,107556,22016,24671.875,128
1.149258155,15935,-116384,-8.393803643,1.180631063,16370,128,7.732881037,107220,22656,24691.40625,128
-3.581848572,-49664,-117247,-8.456044609,0.590748261,8191,128,7.622174337,105685,23296,24710.9375,128
1.034945373,14350,-116745,-8.419839551,0.572357246,7936,128,7.629170135,105782,23936,24730.46875,128
1.172625562,16259,-115833,-8.354064626,0.588512491,8160,128,7.678357086,106464,24576,24750,128
-3.821941474,-52993,-117962,-8.507611574,0.534349148,7409,128,7.487306891,103815,25216,24769.53125,128
-3.812637784,-52864,-117882,-8.501841843,0.572140881,7933,128,7.510746421,104140,25856,24789.0625,128
1.18048682,16368,-117937,-8.505808533,0.586204599,8128,128,7.480527458,103721,26496,24808.59375,128
-3.990706085,-55333,-118127,-8.519511642,0.281346474,3901,128,7.403934288,102659,27136,24828.125,128
0.501894415,6959,-118226,-8.526651684,0.002307892,32,128,7.374003813,102244,27776,24847.65625,128
0.923373213,12803,-117674,-8.486840545,0.003461838,48,128,7.466824349,103531,28416,24867.1875,128
-4.162355562,-57713,-118131,-8.519800129,0.512568416,7107,128,7.432494453,103055,29056,24886.71875,128
-3.80052135,-52696,-117192,-8.452077919,0.00223577,31,128,7.406170059,102690,29696,24906.25,128
-4.144902127,-57471,-118825,-8.569852539,0.221774008,3075,128,7.296473062,101169,30336,24925.78125,128
-4.474642214,-62043,-118937,-8.577930162,0.130323783,1807,128,7.227164176,100208,30976,24945.3125,128
-4.154205817,-57600,-119479,-8.617020085,0.127438918,1767,128,7.155547399,99215,31616,24964.84375,128
-4.50500542,-62464,-119526,-8.620409801,0.069453129,963,128,7.154898304,99206,32256,24984.375,128
0.182467721,2530,-119060,-8.586801122,0.035772328,496,128,7.215841081,100051,32896,25003.90625,128
0.110634579,1534,-102952,-7.425065926,1.237030177,17152,128,8.332067529,115528,33536,25023.4375,128
-2.36674337,-32816,-111684,-8.054831988,1.174356481,16283,128,7.439273887,103149,34176,25042.96875,128
1.800155854,24960,-114302,-8.243646412,0.461578424,6400,128,7.403717924,102656,34816,25062.5,128
-3.56316907,-49405,-114412,-8.251579791,0.291299259,4039,128,7.400616694,102613,35456,25082.03125,128
1.838163953,25487,-114059,-8.226120857,0.562981434,7806,128,7.40487187,102672,36096,25101.5625,128
-2.509183587,-34791,-111142,-8.015742065,0.037142639,515,128,7.584887455,105168,36736,25121.09375,128
-2.658691723,-36864,-109266,-7.88044189,0.119938269,1663,128,7.692565047,106661,37376,25140.625,128
2.069602259,28696,-109166,-7.873229727,0.586781572,8136,128,7.677996478,106459,38016,25160.15625,128
-2.395592021,-33216,-108392,-7.817407586,0.036565666,507,128,7.729924051,107179,38656,25179.6875,128
2.360829396,32734,-107814,-7.775721285,0.014857056,206,128,7.769230338,107724,39296,25199.21875,128
2.346982044,32542,-106367,-7.671361288,0.058707006,814,128,7.845102292,108776,39936,25218.75,128
0.009087325,126,-105866,-7.635228352,0.009087325,126,128,7.872364267,109154,40576,25238.28125,128
2.352896017,32624,-107389,-7.745069593,1.162889142,16124,128,7.731871335,107206,41216,25257.8125,128
-2.589815568,-35909,-110137,-7.943259828,0.480546413,6663,128,7.569525548,104955,41856,25277.34375,128
2.287121092,31712,-111644,-8.051947123,0.443548017,6150,128,7.395351815,102540,42496,25296.875,128
2.026040796,28092,-112061,-8.082021842,0.276947054,3840,128,7.360300703,102054,43136,25316.40625,128
2.063688286,28614,-111668,-8.053678042,0.290794407,4032,128,7.359074635,102037,43776,25335.9375,128
-2.792837953,-38724,-111899,-8.070338138,0.008582474,119,128,7.273898992,100856,44416,25355.46875,128
1.809315301,25087,-112352,-8.103009236,0,0,128,7.226298717,100196,45056,25375,128
1.780683014,24690,-112967,-8.147364038,0.143089311,1984,128,7.160812278,99288,45696,25394.53125,128
1.255204827,17404,-112915,-8.143613713,0.115394606,1600,128,7.161749859,99301,46336,25414.0625,128
1.303670562,18076,-113476,-8.184073947,4.33E-04,6,128,7.109894408,98582,46976,25433.59375,128
-2.901020396,-40224,-113101,-8.157028336,0.002091527,29,128,7.094604623,98370,47616,25453.125,128
1.917930474,26593,-113499,-8.185732744,2.289573227,31746,128,7.035176401,97546,48256,25472.65625,128
-2.919483533,-40480,-113437,-8.181261203,1.181568644,16383,128,7.021833899,97361,48896,25492.1875,128
1.217990067,16888,-114184,-8.23513606,1.145147222,15878,128,6.952813501,96404,49536,25511.71875,128
1.792294597,24851,-114352,-8.247252494,1.179332874,16352,128,6.93110489,96103,50176,25531.25,128
1.906823743,26439,-112809,-8.135968821,1.162600656,16120,128,6.991182207,96936,50816,25550.78125,128
1.182073496,16390,-114007,-8.222370532,1.177024982,16320,128,6.862877829,95157,51456,25570.3125,128
1.772461149,24576,-113741,-8.203186179,1.181063793,16376,128,6.894539224,95596,52096,25589.84375,128
-4.144974249,-57472,-114813,-8.280500565,1.181568644,16383,128,6.830711583,94711,52736,25609.375,128
-2.953957671,-40958,-113922,-8.216240193,1.164259453,16143,128,6.862228735,95148,53376,25628.90625,128
-3.544417446,-49145,-113396,-8.178304217,1.108004583,15363,128,6.814844825,94491,54016,25648.4375,128
1.77426419,24601,-115146,-8.304517067,1.127116815,15628,128,6.727361289,93278,54656,25667.96875,128
1.190800213,16511,-114332,-8.245810061,1.177024982,16320,128,6.749069899,93579,55296,25687.5,128
-4.136463897,-57354,-115668,-8.342164557,1.172914049,16263,128,6.5950181,91443,55936,25707.03125,128
0.514659943,7136,-116344,-8.390918778,1.181063793,16376,128,6.571217963,91113,56576,25726.5625,128
0.444341355,6161,-116687,-8.415656497,1.772749635,24580,128,6.555351204,90893,57216,25746.09375,128
-2.656455953,-36833,-100470,-7.246060043,2.36320941,32767,128,7.685425006,106562,57856,25765.625,128
1.808738328,25079,-106123,-7.653763611,0.14655115,2032,128,7.217211392,100070,58496,25785.15625,128
1.18979051,16497,-114567,-8.262758644,0.894308197,12400,128,6.546047514,90764,59136,25804.6875,128
-4.141512411,-57424,-114762,-8.276822362,1.161951561,16111,128,6.553187555,90863,59776,25824.21875,128
0.519492092,7203,-115123,-8.30285827,0.556202001,7712,128,6.47500771,89779,60416,25843.75,128
-2.950063103,-40904,-114629,-8.267230185,1.772677514,24579,128,6.52635831,90491,61056,25863.28125,128
0.558726258,7747,-115412,-8.32370142,0.523891511,7264,128,6.444139653,89351,61696,25882.8125,128
-2.949558252,-40897,-114589,-8.26434532,0.590315532,8185,128,6.477027115,89807,62336,25902.34375,128
-3.535762851,-49025,-113921,-8.216168072,1.773687216,24593,128,6.514097633,90321,62976,25921.875,128
-3.463857587,-48028,-113172,-8.162148972,1.181568644,16383,128,6.573093125,91139,63616,25941.40625,128
1.781909082,24707,-111985,-8.076540598,1.14817633,15920,128,6.650191146,92208,64256,25960.9375,128
-3.322210708,-46064,-111094,-8.012280227,1.80527649,25031,128,6.679400406,92613,64896,25980.46875,128
1.475897011,20464,-112239,-8.094859492,1.775778744,24622,128,6.580810139,91246,0,26000,128
-4.13927664,-57393,-115428,-8.324855366,0.590604018,8189,128,6.383701728,88513,640,26019.53125,128
-4.542364424,-62982,-116470,-8.400006104,0.590748261,8191,128,6.300401247,87358,1280,26039.0625,128
0.295410191,4096,-117543,-8.477392611,0.258195431,3580,128,6.16639926,85500,1920,26058.59375,128
-4.312296428,-59792,-117429,-8.469170746,0.26302758,3647,128,6.163009544,85453,2560,26078.125,128
0.056976087,790,-117898,-8.502995789,0.28603438,3966,128,6.118943229,84842,3200,26097.65625,128
-4.592200469,-63673,-118202,-8.524920765,0.254805714,3533,128,6.044225221,83806,3840,26117.1875,128
-4.658624489,-64594,-118104,-8.517852845,0.147488731,2045,128,6.053384668,83933,4480,26136.71875,128
-4.653864462,-64528,-117846,-8.499245465,0.11113943,1541,128,6.047831303,83856,5120,26156.25,128
5.05E-04,7,-117627,-8.483450828,0.105874551,1468,128,6.013501407,83380,5760,26175.78125,128
1.153873939,15999,-117906,-8.503572762,0.129241959,1792,128,5.997923136,83164,6400,26195.3125,128
-4.652782637,-64513,-118457,-8.54331178,0.088781725,1231,128,5.961068983,82653,7040,26214.84375,128
-4.725481239,-65521,-118257,-8.528887454,0.018391015,255,128,5.923709979,82135,7680,26234.375,128
0.009159447,127,-117216,-8.453808839,1.183660171,16412,128,5.99193704,83081,8320,26253.90625,128
0.290505921,4028,-118852,-8.571799823,1.179332874,16352,128,5.858007176,81224,8960,26273.4375,128
-4.67239972,-64785,-117614,-8.482513247,1.198877835,16623,128,5.926450601,82173,9600,26292.96875,128
1.181063793,16376,-118927,-8.577208945,1.107788218,15360,128,5.869835123,81388,10240,26312.5,128
-4.375691339,-60671,-118224,-8.52650744,0.036565666,507,128,5.91887783,82068,10880,26332.03125,128
7.21E-05,1,-116703,-8.416810443,0.070246466,974,128,5.974699971,82842,11520,26351.5625,128
0.00887096,123,-117406,-8.467511948,1.172409197,16256,128,5.88166307,81552,12160,26371.09375,128
0.295410191,4096,-118822,-8.569636174,1.163466115,16132,128,5.77362487,80054,12800,26390.625,128
-4.463751848,-61892,-119187,-8.595960569,1.146950262,15903,128,5.725087014,79381,13440,26410.15625,128
-4.59667201,-63735,-118934,-8.577713797,3.61E-04,5,128,5.752853841,79766,14080,26429.6875,128
1.111250056,15408,-120396,-8.683155618,1.116442813,15480,128,5.620510652,77931,14720,26449.21875,128
-4.254671246,-58993,-107351,-7.742328971,0.579353044,8033,128,6.446447545,89383,15360,26468.75,128
1.749382228,24256,-106862,-7.707061494,0.720927801,9996,128,6.615284278,91724,16000,26488.28125,128
0.148137826,2054,-117244,-8.455828244,0.893154251,12384,128,5.670995792,78631,16640,26507.8125,128
0.131261364,1820,-118919,-8.576631972,1.179044387,16348,128,5.646618682,78293,17280,26527.34375,128
-4.583473752,-63552,-119166,-8.594446015,1.172337076,16255,128,5.603417826,77694,17920,26546.875,128
1.181568644,16383,-118380,-8.537758414,1.172409197,16256,128,5.6376756,78169,18560,26566.40625,128
7.21E-05,1,-118743,-8.563938566,1.164908548,16152,128,5.6146688,77850,19200,26585.9375,128
0.129169837,1791,-117132,-8.447750622,1.176880738,16318,128,5.693786227,78947,19840,26605.46875,128
-4.655018408,-64544,-116922,-8.43260508,0.013775231,191,128,5.718307581,79287,20480,26625,128
0,0,-115648,-8.340722125,1.174428603,16284,128,5.784443114,80204,21120,26644.53125,128
0.249180227,3455,-115329,-8.317715325,0.036926274,512,128,5.807449914,80523,21760,26664.0625,128
-3.489388643,-48382,-113878,-8.213066842,0.004543663,63,128,5.907987464,81917,22400,26683.59375,128
1.255204827,17404,-113658,-8.197200083,0.004038811,56,128,5.923421493,82131,23040,26703.125,128
0.010385515,144,-116592,-8.408804942,1.172409197,16256,128,5.744920462,79656,23680,26722.65625,128
0.001081824,15,-119323,-8.60576911,1.11586584,15472,128,5.532522265,76711,24320,26742.1875,128
-3.581920693,-49665,-119310,-8.604831529,1.135987775,15751,128,5.496605694,76213,24960,26761.71875,128
-3.572689125,-49537,-119671,-8.630867437,1.179837725,16359,128,5.452683622,75604,25600,26781.25,128
1.032781724,14320,-120991,-8.726067987,0.588512491,8160,128,5.315219798,73698,26240,26800.78125,128
1.179332874,16352,-119619,-8.627117113,0.003461838,48,128,5.381571696,74618,26880,26820.3125,128
-3.60435052,-49976,-119608,-8.626323775,1.145219343,15879,128,5.397871184,74844,27520,26839.84375,128
-3.691545569,-51185,-120561,-8.695055687,0.584401558,8103,128,5.310964621,73639,28160,26859.375,128
-3.676400027,-50975,-121071,-8.731837718,1.126179233,15615,128,5.244396358,72716,28800,26878.90625,128
0.038585071,535,-120265,-8.673707685,0.558509893,7744,128,5.286082659,73294,29440,26898.4375,128
-4.710335697,-65311,-120904,-8.719793406,1.180414698,16367,128,5.2311981,72533,30080,26917.96875,128
-3.849636179,-53377,-120209,-8.669668874,0.589882802,8179,128,5.266754063,73026,30720,26937.5,128
1.033430819,14329,-120524,-8.692387187,0.562981434,7806,128,5.20509007,72171,31360,26957.03125,128
-3.803983188,-52744,-120846,-8.715610351,0.02877653,399,128,5.162321945,71578,32000,26976.5625,128
1.070789822,14847,-120483,-8.6894302,0.534132783,7406,128,5.184535406,71886,32640,26996.09375,128
1.174644968,16287,-121154,-8.737823813,0.582165787,8072,128,5.164557715,71609,33280,27015.625,128
1.031627778,14304,-120860,-8.716620054,0.581300328,8060,128,5.140252726,71272,33920,27035.15625,128
1.163249751,16129,-119810,-8.640892344,0.009231568,128,128,5.181434176,71843,34560,27054.6875,128
-3.90502559,-54145,-120750,-8.708686675,0.58627672,8129,128,5.09171487,70599,35200,27074.21875,128
0.922002902,12784,-121869,-8.789390777,0.521439376,7230,128,5.003870726,69381,35840,27093.75,128
-3.618702724,-50175,-121621,-8.771504613,0.258556039,3585,128,4.992042779,69217,36480,27113.28125,128
-4.016309263,-55688,-121223,-8.742800205,0.510260524,7075,128,5.061423786,70179,37120,27132.8125,128
-4.449976617,-61701,-123237,-8.888053165,0.17532768,2431,128,4.900736797,67951,37760,27152.34375,128
-4.522603097,-62708,-115896,-8.358608289,5.05E-04,7,128,5.317888298,73735,38400,27171.875,128
2.289356862,31743,-112212,-8.092912208,1.312613644,18200,128,5.663278778,78524,39040,27191.40625,128
0.876926884,12159,-119693,-8.632454113,0.036926274,512,128,4.918334474,68195,39680,27210.9375,128
-3.78061578,-52420,-121150,-8.737535326,0.166096111,2303,128,4.958578343,68753,40320,27230.46875,128
0.895390021,12415,-122283,-8.819249132,0.145541447,2018,128,4.87296997,67566,40960,27250,128
0.701094353,9721,-122090,-8.805329657,0.283870731,3936,128,4.880831227,67675,41600,27269.53125,128
-4.078405986,-56549,-121317,-8.749579638,0.293318664,4067,128,4.930162421,68359,42240,27289.0625,128
-3.824105123,-53023,-121207,-8.741646259,0.286250745,3969,128,4.92078661,68229,42880,27308.59375,128
-3.544994419,-49153,-120331,-8.678467712,0.001081824,15,128,4.979133007,69038,43520,27328.125,128
1.151926655,15972,-119572,-8.623727396,0.001153946,16,128,5.025939944,69687,44160,27347.65625,128
1.167721292,16191,-119633,-8.628126815,0.572357246,7936,128,5.040436392,69888,44800,27367.1875,128
1.173058292,16265,-117623,-8.483162341,0.001153946,16,128,5.182443879,71857,45440,27386.71875,128
1.181063793,16376,-118593,-8.553120321,0.588224004,8156,128,5.138449685,71247,46080,27406.25,128
1.031555656,14303,-120929,-8.721596446,0.258483918,3584,128,4.956775303,68728,46720,27425.78125,128
-3.766479941,-52224,-121712,-8.778067682,0.221774008,3075,128,4.877946362,67635,47360,27445.3125,128
-4.135742681,-57344,-122747,-8.852713567,0.001658797,23,128,4.758080215,65973,48000,27464.84375,128
0.281490717,3903,-123596,-8.91394483,1.16764917,16190,128,4.694108331,65086,48640,27484.375,128
0.290722286,4031,-122963,-8.868291839,1.162600656,16120,128,4.706585372,65259,49280,27503.90625,128
-4.435768656,-61504,-123178,-8.883797989,1.170606157,16231,128,4.67860218,64871,49920,27523.4375,128
0.07219375,1001,-123179,-8.883870111,1.163033386,16126,128,4.679684005,64886,50560,27542.96875,128
-4.726563063,-65536,-123194,-8.884951935,1.180991671,16375,128,4.632444338,64231,51200,27562.5,128
0.593488883,8229,-123561,-8.911420573,1.110384597,15396,128,4.589099239,63630,51840,27582.03125,128
0.291299259,4039,-122987,-8.870022758,1.167504927,16188,128,4.638358311,64313,52480,27601.5625,128
0.590820383,8192,-122816,-8.85768996,1.163177629,16128,128,4.616938188,64016,53120,27621.09375,128
-4.59710474,-63741,-123354,-8.896491396,1.181568644,16383,128,4.57806463,63477,53760,27640.625,128
-4.135670559,-57343,-122879,-8.862233622,1.181568644,16383,128,4.578785846,63487,54400,27660.15625,128
-4.467862781,-61949,-122464,-8.832303146,1.177962563,16333,128,4.615207269,63992,55040,27679.6875,128
0.290722286,4031,-123080,-8.87673007,1.107788218,15360,128,4.528372828,62788,55680,27699.21875,128
0.655657727,9091,-122656,-8.846150499,2.231731681,30944,128,4.553326911,63134,56320,27718.75,128
0.904549468,12542,-122664,-8.846727472,2.085324774,28914,128,4.552749938,63126,56960,27738.28125,128
-4.634247379,-64256,-121599,-8.769917938,2.289933835,31751,128,4.671462139,64772,57600,27757.8125,128
0.812305905,11263,-120131,-8.664043386,2.35347299,32632,128,4.716754522,65400,58240,27777.34375,128
-3.987532733,-55289,-120483,-8.6894302,1.143776911,15859,128,4.676005802,64835,58880,27796.875,128
0.590892505,8193,-122191,-8.812613942,1.172409197,16256,128,4.551740235,63112,59520,27816.40625,128
-4.135526316,-57341,-121854,-8.788308953,1.147527235,15911,128,4.544672316,63014,60160,27835.9375,128
-4.127665058,-57232,-123596,-8.91394483,1.162817021,16123,128,4.43194621,61451,60800,27855.46875,128
0.005697609,79,-122802,-8.856680257,1.142118113,15836,128,4.456251199,61788,61440,27875,128
0.959938879,13310,-113063,-8.154287714,2.354049963,32640,128,5.114000453,70908,62080,27894.53125,128
1.300713575,18035,-108973,-7.859310253,1.18048682,16368,128,5.754801125,79793,62720,27914.0625,128
-3.578386733,-49616,-120671,-8.702989066,1.113485827,15439,128,4.436706237,61517,63360,27933.59375,128
0.598032546,8292,-122811,-8.857329352,1.03480113,14348,128,4.436417751,61513,64000,27953.125,128
0.138473527,1920,-123356,-8.896635639,1.181208036,16378,128,4.429566196,61418,64640,27972.65625,128
-4.725697604,-65524,-123547,-8.91041087,1.116947665,15487,128,4.433532886,61473,65280,27992.1875,128
0.553894109,7680,-123710,-8.922166696,1.163177629,16128,128,4.413843681,61200,384,28011.71875,128
-4.138411181,-57381,-123426,-8.901684153,1.180991671,16375,128,4.470891889,61991,1024,28031.25,128
0.286178623,3968,-122998,-8.870816096,1.180198333,16364,128,4.494331419,62316,1664,28050.78125,128
0.886446939,12291,-122465,-8.832375268,1.179332874,16352,128,4.523901287,62726,2304,28070.3125,128
0.655946214,9095,-121961,-8.796025967,1.178178928,16336,128,4.607778741,63889,2944,28089.84375,128
0.608706547,8440,-120630,-8.700032079,2.293900525,31806,128,4.683722816,64942,3584,28109.375,128
-3.762585373,-52170,-121738,-8.779942844,1.177529833,16327,128,4.676871261,64847,4224,28128.90625,128
-4.138050573,-57376,-123164,-8.882788287,1.033286575,14327,128,4.557293601,63189,4864,28148.4375,128
-4.255753071,-59008,-125267,-9.034460072,1.181568644,16383,128,4.390836881,60881,5504,28167.96875,128
-4.281212006,-59361,-126275,-9.107158674,1.043095117,14463,128,4.298953926,59607,6144,28187.5,128
-4.431008629,-61438,-126130,-9.096701037,1.110023988,15391,128,4.24421361,58848,6784,28207.03125,128
0.011611582,161,-126549,-9.12692,1.128559247,15648,128,4.230582622,58659,7424,28226.5625,128
-4.724327293,-65505,-126914,-9.153244394,1.071943768,14863,128,4.175698063,57898,8064,28246.09375,128
-4.247675448,-58896,-126543,-9.12648727,1.144786614,15873,128,4.173029563,57861,8704,28265.625,128
0.557788677,7734,-125900,-9.080113063,1.177024982,16320,128,4.196469092,58186,9344,28285.15625,128
-4.154133696,-57599,-125087,-9.021478179,1.846241575,25599,128,4.20923462,58363,9984,28304.6875,128
0.065125831,903,-127089,-9.165865679,0.5712033,7920,128,4.111509813,57008,10624,28324.21875,128
-4.142738479,-57441,-127506,-9.195940399,1.172481319,16257,128,4.138555424,57383,11264,28343.75,128
-4.465771254,-61920,-127318,-9.182381532,1.153729696,15997,128,4.144757884,57469,11904,28363.28125,128
-4.578425238,-63482,-128362,-9.257676513,0.518049659,7183,128,4.07681931,56527,12544,28382.8125,128
-4.691800438,-65054,-128606,-9.27527419,0.516895713,7167,128,4.0604477,56300,13184,28402.34375,128
0.009159447,127,-128917,-9.297704017,0.553894109,7680,128,4.065496214,56370,13824,28421.875,128
-4.597032618,-63740,-129436,-9.335135142,0.588296126,8157,128,4.073213228,56477,14464,28441.40625,128
-4.671173653,-64768,-130224,-9.391966986,0.5171842,7171,128,3.991427301,55343,15104,28460.9375,128
0.092315685,1280,-130987,-9.446995788,0.558509893,7744,128,3.979599354,55179,15744,28480.46875,128
-4.726563063,-65536,-130554,-9.415767123,0.552523798,7661,128,4.023593548,55789,16384,28500,128
-9.453198249,-131073,-131377,-9.475123224,0.553966231,7681,128,3.96791565,55017,17024,28519.53125,128
9.378119633,130032,-132301,-9.541763609,0.516967835,7168,128,3.990706085,55333,17664,28539.0625,128
9.365354105,129855,-132289,-9.540898149,0.555048055,7696,128,4.035782103,55958,18304,28558.59375,128
9.451972181,131056,-131792,-9.5050537,1.181640766,16384,128,4.058933146,56279,18944,28578.125,128
9.378912971,130043,-132157,-9.531378094,0.586493085,8132,128,3.98428726,55244,19584,28597.65625,128
9.45283764,131068,-133427,-9.622972563,0.589954923,8180,128,3.904160131,54133,20224,28617.1875,128
9.447861248,130999,-133833,-9.652253944,0.551586217,7648,128,3.861247761,53538,20864,28636.71875,128
-14.440481,-200224,-134169,-9.676486811,0.257979066,3577,128,3.835572462,53182,21504,28656.25,128
4.709253873,65296,-135404,-9.765557023,0.212326075,2944,128,3.757536859,52100,22144,28675.78125,128
-9.660692175,-133950,-133998,-9.664154013,1.186472915,16451,128,3.846534949,53334,22784,28695.3125,128
0.977969286,13560,-117270,-8.457703407,0.147128123,2040,128,5.140252726,71272,23424,28714.84375,128
0.065558561,909,-129143,-9.314003505,0.018463137,256,128,3.93733608,54593,24064,28734.375,128
9.31025318,129091,-133049,-9.595710587,0.267715486,3712,128,3.815378405,52902,24704,28753.90625,128
-14.18776681,-196720,-133744,-9.645835119,0.294184124,4079,128,3.797275877,52651,25344,28773.4375,128
-14.17976131,-196609,-133770,-9.647710281,0.277019176,3841,128,3.808094121,52801,25984,28792.96875,128
-9.467045601,-131265,-133841,-9.652830917,0.225668576,3129,128,3.773619982,52323,26624,28812.5,128
9.420743516,130623,-133569,-9.633213834,0.295121705,4092,128,3.83773611,53212,27264,28832.03125,128
-14.17976131,-196609,-132169,-9.532243554,0.590748261,8191,128,3.931999079,54519,27904,28851.5625,128
9.395645189,130275,-131870,-9.510679187,0.580434868,8048,128,3.90278982,54114,28544,28871.09375,128
0.006707311,93,-130467,-9.409492541,1.195343875,16574,128,4.000442505,55468,29184,28890.625,128
0.036854152,511,-129745,-9.357420726,0.589666437,8176,128,4.044869428,56084,29824,28910.15625,128
0.002163649,30,-128738,-9.284794245,1.18625655,16448,128,4.095354568,56784,30464,28929.6875,128
-4.723101225,-65488,-129995,-9.375451133,0.518049659,7183,128,4.022511723,55774,31104,28949.21875,128
9.388433026,130175,-133259,-9.610856129,0.338106196,4688,128,3.805930472,52771,31744,28968.75,128
-9.61929436,-133376,-133367,-9.618645265,0.287116204,3981,128,3.758185954,52109,32384,28988.28125,128
9.388433026,130175,-134035,-9.666822513,0.145397204,2016,128,3.669692715,50882,33024,29007.8125,128
-14.18293466,-196653,-132778,-9.576165626,1.183876536,16415,128,3.7363331,51806,33664,29027.34375,128
9.166875382,127103,-134678,-9.71319672,0.073708305,1022,128,3.59771533,49884,34304,29046.875,128
-14.19360866,-196801,-133257,-9.610711886,0.111283673,1543,128,3.656133849,50694,34944,29066.40625,128
4.655018408,64544,-132638,-9.566068598,1.186112307,16446,128,3.621948197,50220,35584,29085.9375,128
4.698579871,65148,-132892,-9.584387491,0.004038811,56,128,3.54723019,49184,36224,29105.46875,128
9.194570088,127487,-133122,-9.600975466,0.001875162,26,128,3.549105352,49210,36864,29125,128
9.30715195,129048,-132616,-9.564481922,0.014280082,198,128,3.560212083,49364,37504,29144.53125,128
9.44439941,130951,-131562,-9.488465725,1.209335471,16768,128,3.572617003,49536,38144,29164.0625,128
9.439206653,130879,-131777,-9.503971875,1.172409197,16256,128,3.538287108,49060,38784,29183.59375,128
-9.453126127,-131072,-131066,-9.452693397,2.16E-04,3,128,3.569010922,49486,39424,29203.125,128
-9.527122918,-132098,-132130,-9.52943081,1.112331881,15423,128,3.483691035,48303,40064,29222.65625,128
-9.434807233,-130818,-130886,-9.439711504,0.001081824,15,128,3.51802093,48779,40704,29242.1875,128
0.02791107,387,-130793,-9.433004192,1.181063793,16376,128,3.525882188,48888,41344,29261.71875,128
0.036854152,511,-130625,-9.420887759,1.181063793,16376,128,3.527685228,48913,41984,29281.25,128
-4.717836346,-65415,-130693,-9.42579203,0.008582474,119,128,3.478498277,48231,42624,29300.78125,128
-9.452116424,-131058,-131030,-9.450097018,1.149258155,15935,128,3.443014436,47739,43264,29320.3125,128
-4.716826644,-65401,-130937,-9.443389707,1.167721292,16191,128,3.437533192,47663,43904,29339.84375,128
5.05E-04,7,-130409,-9.405309487,0,0,128,3.434720449,47624,44544,29359.375,128
-4.694036209,-65085,-130109,-9.383672998,7.21E-05,1,128,3.397722053,47111,45184,29378.90625,128
-9.405742217,-130415,-130379,-9.403145838,1.164259453,16143,128,3.379547403,46859,45824,29398.4375,128
0.008726717,121,-129922,-9.370186254,1.153369087,15992,128,3.403275419,47188,46464,29417.96875,128
0.140204446,1944,-130348,-9.400910068,1.166927954,16180,128,3.387048052,46963,47104,29437.5,128
-4.689708911,-65025,-128669,-9.279817853,0.00223577,31,128,3.358776374,46571,48384,29476.5625,128
0.004543663,63,-130268,-9.395140337,1.162600656,16120,128,3.232347158,44818,49024,29496.09375,128
-4.659057219,-64600,-129871,-9.366508051,1.180558941,16369,128,3.22354832,44696,49664,29515.625,128
0.016155245,224,-129290,-9.324605384,0.004471541,62,128,3.254849107,45130,50304,29535.15625,128
0.073708305,1022,-124268,-8.962410565,0.017309191,240,128,3.52775735,48914,50944,29554.6875,128
-3.547013825,-49181,-114280,-8.242059736,2.071261057,28719,128,4.625087932,64129,51584,29574.21875,128
-4.469233092,-61968,-127395,-9.187934898,1.038767819,14403,128,3.159143705,43803,52224,29593.75,128
-4.726563063,-65536,-129181,-9.316744127,1.057230956,14659,128,3.142195123,43568,52864,29613.28125,128
0.002812744,39,-127967,-9.22918847,0.002596379,36,128,3.199603939,44364,53504,29632.8125,128
0.009159447,127,-128337,-9.255873472,1.18048682,16368,128,3.162172814,43845,54144,29652.34375,128
-4.722019401,-65473,-128463,-9.264960797,1.179549239,16355,128,3.096253645,42931,54784,29671.875,128
7.21E-05,1,-128076,-9.237049727,1.18048682,16368,128,3.139742987,43534,55424,29691.40625,128
0.295265948,4094,-126556,-9.127424851,0.007933379,110,128,3.253118188,45106,56064,29710.9375,128
0.260431202,3611,-127887,-9.223418739,1.164475818,16146,128,3.210350062,44513,56704,29730.46875,128
-4.281428371,-59364,-123803,-8.928874007,0.011467339,159,128,3.312618531,45931,57344,29750,128
-4.223442581,-58560,-124065,-8.947769874,0.119938269,1663,128,3.375580713,46804,57984,29769.53125,128
-4.449327522,-61692,-124270,-8.962554808,1.177241347,16323,128,3.344784778,46377,58624,29789.0625,128
-4.579434941,-63496,-125481,-9.0498941,1.108004583,15363,128,3.297256624,45718,59264,29808.59375,128
0.065125831,903,-128386,-9.259407432,1.034224157,14340,128,3.149767894,43673,59904,29828.125,128
0.018246772,253,-131106,-9.455578262,1.116442813,15480,128,3.010212542,41738,60544,29847.65625,128
4.710335697,65311,-131692,-9.497841537,1.146878141,15902,128,2.96629047,41129,61184,29867.1875,128
4.562630601,63263,-133499,-9.62816532,0.572357246,7936,128,2.940831535,40776,61824,29886.71875,128
-14.21675971,-197122,-135381,-9.763898225,0.589450072,8173,128,2.892005192,40099,62464,29906.25,128
4.43108075,61439,-136748,-9.862488492,0.491581022,6816,128,2.852338296,39549,63104,29925.78125,128
4.635473446,64273,-135244,-9.754017562,0.017741921,246,128,2.973214146,41225,63744,29945.3125,128
4.413771559,61199,-135162,-9.748103589,0.587935518,8152,128,2.958212847,41017,64384,29964.84375,128
-14.25469568,-197648,-133101,-9.599460912,0.073203453,1015,128,2.995643973,41536,65024,29984.375,128
-14.23313132,-197349,-135728,-9.78892443,0.516895713,7167,128,2.894457328,40133,128,30003.90625,128
4.486470161,62207,-133772,-9.647854525,0,0,128,2.900804031,40221,768,30023.4375,128
4.653575975,64524,-134621,-9.709085787,0.484513102,6718,128,2.856593473,39608,1408,30042.96875,128
4.722235766,65476,-132089,-9.526473823,0.035916571,498,128,2.999971271,41596,2048,30062.5,128
-4.726058212,-65529,-128785,-9.288183962,1.165413399,16159,128,3.052403695,42323,2688,30082.03125,128
-9.435167841,-130823,-128380,-9.258974702,7.21E-05,1,128,3.109235538,43111,3328,30101.5625,128
0.221990373,3078,-130294,-9.3970155,1.144858735,15874,128,3.035310869,42086,3968,30121.09375,128
-9.446202451,-130976,-129171,-9.316022911,1.163105507,16127,128,3.072453507,42601,4608,30140.625,128
0.004255176,59,-126227,-9.103696835,0.129530445,1796,128,3.10223974,43014,5248,30160.15625,128
-4.449039036,-61688,-127389,-9.187502168,1.15171029,15969,128,3.127121702,43359,5888,30179.6875,128
0.036205058,502,-124512,-8.980008242,0.018463137,256,128,3.208907629,44493,6528,30199.21875,128
-4.211903121,-58400,-124088,-8.949428672,0.293030178,4063,128,3.247059971,45022,7168,30218.75,128
0.129241959,1792,-118764,-8.56545312,0.009087325,126,128,3.450515086,47843,7808,30238.28125,128
-3.826413015,-53055,-117088,-8.44457727,1.193685078,16551,128,3.591801356,49802,8448,30257.8125,128
-4.432451061,-61458,-117086,-8.444433027,1.250805408,17343,128,3.712172355,51471,9088,30277.34375,128
0.590459775,8187,-117591,-8.480854449,0.294256245,4080,128,3.708710517,51423,9728,30296.875,128
0.447731071,6208,-120367,-8.681064091,0.036349301,504,128,3.596561384,49868,10368,30316.40625,128
-4.19062724,-58105,-117146,-8.448760325,1.184165023,16419,128,3.687362514,51127,11008,30335.9375,128
-3.808671094,-52809,-118264,-8.529392306,0.00223577,31,128,3.613365723,50101,11648,30355.46875,128
0.147560852,2046,-119239,-8.599710894,0.018463137,256,128,3.572256395,49531,12288,30375,128
0.581588814,8064,-110302,-7.955159897,1.700628007,23580,128,4.013135912,55644,12928,30394.53125,128
-3.553072042,-49265,-108497,-7.824980357,0.147632974,2047,128,4.336385052,60126,13568,30414.0625,128
0.130035297,1803,-110894,-7.997855901,0.293102299,4064,128,3.79121766,52567,14208,30433.59375,128
0.009015204,125,-110430,-7.964391466,0.589666437,8176,128,4.01306379,55643,14848,30453.125,128
0.463814195,6431,-107224,-7.733169524,1.217845824,16886,128,4.061962254,56321,15488,30472.65625,128
-4.138122694,-57377,-108334,-7.813224532,0.58627672,8129,128,4.008664371,55582,16128,30492.1875,128
0.553894109,7680,-106516,-7.682107411,1.254195124,17390,128,4.022872331,55779,16768,30511.71875,128
-4.137834208,-57373,-108825,-7.848636252,0.589882802,8179,128,4.032031778,55906,17408,30531.25,128
-4.214066769,-58430,-106532,-7.683261357,1.24734357,17295,128,4.05071128,56165,18048,30550.78125,128
-3.674380621,-50947,-106359,-7.670784315,1.217485215,16881,128,4.011188628,55617,18688,30570.3125,128
1.181568644,16383,-104466,-7.534258072,1.190295361,16504,128,4.078405986,56549,19328,30589.84375,128
-2.78915975,-38673,-102249,-7.374364421,1.19556024,16577,128,4.12023653,57129,19968,30609.375,128
1.818618991,25216,-102315,-7.379124448,1.185679577,16440,128,4.014938952,55669,20608,30628.90625,128
-3.582137058,-49668,-103854,-7.490119635,0.581660936,8065,128,3.904737104,54141,21248,30648.4375,128
1.165485521,16160,-105267,-7.592027496,0.220980671,3064,128,3.689742528,51160,21888,30667.96875,128
-3.812637784,-52864,-104665,-7.548610276,0.140132325,1943,128,3.735828249,51799,22528,30687.5,128
1.167504927,16188,-104900,-7.565558859,0.137896554,1912,128,3.682314,51057,23168,30707.03125,128
-3.839683394,-53239,-104894,-7.565126129,0.109696997,1521,128,3.643151956,50514,23808,30726.5625,128
-3.675246081,-50959,-104195,-7.51471311,0.132487432,1837,128,3.673226675,50931,24448,30746.09375,128
-3.58134372,-49657,-104458,-7.533681099,0.147056001,2039,128,3.624400332,50254,25088,30765.625,128
-3.694718921,-51229,-103989,-7.499856055,0.036709909,509,128,3.632910685,50372,25728,30785.15625,128
1.034152035,14339,-105657,-7.620154932,0.035628085,494,128,3.570164868,49502,26368,30804.6875,128
0.904693711,12544,-104162,-7.512333097,1.18582382,16442,128,3.619279697,50183,27008,30824.21875,128
1.135482923,15744,-103124,-7.437470846,1.190728091,16510,128,3.699839556,51300,27648,30843.75,128
-3.563385435,-49408,-99450,-7.172495982,1.294222628,17945,128,3.92716693,54452,28288,30863.28125,128
-1.164043088,-16140,-97804,-7.053783781,1.207388187,16741,128,4.013785006,55653,28928,30882.8125,128
-1.030473832,-14288,-94698,-6.829774002,1.260613949,17479,128,4.178943536,57943,29568,30902.34375,128
-0.872960195,-12104,-93586,-6.749574751,1.802680111,24995,128,4.218394067,58490,30208,30921.875,128
0.445351058,6175,-90897,-6.555639691,1.781404231,24700,128,4.356939716,60411,30848,30941.40625,128
-0.002163649,-30,-88264,-6.365743442,2.150883335,29823,128,4.517915191,62643,31488,30960.9375,128
0.885725723,12281,-85172,-6.142743366,2.344818395,32512,128,4.697786534,65137,32128,30980.46875,128
1.177024982,16320,-83272,-6.005712271,0.008510352,118,128,4.815993883,66776,32768,31000,128
-0.036926274,-512,-81389,-5.869907244,0.008149744,113,128,4.91948842,68211,33408,31019.53125,128
-0.004615784,-64,-77606,-5.597071123,0.001658797,23,128,5.146743673,71362,34048,31039.0625,128
-1.179477117,-16354,-75754,-5.463501866,0.036854152,511,128,5.243386655,72702,34688,31058.59375,128
-0.571347543,-7922,-72463,-5.226149586,0.082146535,1139,128,5.455568487,75644,35328,31078.125,128
-0.369118496,-5118,-69772,-5.032070283,0.02791107,387,128,5.672077617,78646,35968,31097.65625,128
4.690718614,65039,-66109,-4.767888757,0,0,128,5.92681121,82178,36608,31117.1875,128
4.723966685,65500,-64610,-4.659778435,1.202123308,16668,128,5.969579335,82771,37248,31136.71875,128
-2.289501105,-31745,-62529,-4.509693326,1.200031781,16639,128,6.104302538,84639,37888,31156.25,128
7.3849663,102396,-60666,-4.375330731,1.25534907,17406,128,6.191858195,85853,38528,31175.78125,128
7.384028719,102383,-58227,-4.199426079,1.255204827,17404,128,6.334875385,87836,39168,31195.3125,128
7.674246153,106407,-56514,-4.075881729,1.247992664,17304,128,6.449116045,89420,39808,31214.84375,128
-0.573655435,-7954,-54470,-3.928465119,1.253257543,17377,128,6.589104127,91361,40448,31234.375,128
-0.440951638,-6114,-36094,-2.603158069,0.036854152,511,128,8.0642078,111814,41088,31253.90625,128
8.85768996,122816,-46124,-3.326538006,0.295410191,4096,128,6.95057773,96373,41728,31273.4375,128
9.451395208,131048,-49189,-3.547590798,1.035666589,14360,128,6.845496517,94916,42368,31292.96875,128
8.271557483,114689,-47202,-3.404285121,2.085469018,28916,128,6.964064475,96560,43008,31312.5,128
8.492970883,117759,-46109,-3.325456181,2.33443288,32368,128,7.032147292,97504,43648,31332.03125,128
-0.60928352,-8448,-43988,-3.172486207,0.039162044,543,128,7.142349141,99032,44288,31351.5625,128
-0.004615784,-64,-41722,-3.009058596,0.039162044,543,128,7.285943304,101023,44928,31371.09375,128
-0.055317289,-767,-40543,-2.924027195,0.018391015,255,128,7.357560081,102016,45568,31390.625,128
-0.590604018,-8189,-38039,-2.743434637,0.001658797,23,128,7.517742219,104237,46208,31410.15625,128
9.193993115,127479,-35151,-2.535147373,0.075583467,1048,128,7.684703789,106552,46848,31429.6875,128
9.371268078,129937,-33024,-2.381744669,0.092027198,1276,128,7.857723577,108951,47488,31449.21875,128
9.434735112,130817,-31679,-2.284741078,0.074429521,1032,128,7.9304943,109960,48128,31468.75,128
16.55213017,229503,-30572,-2.204902435,0.002307892,32,128,7.994754671,110851,48768,31488.28125,128
-2.307964242,-32001,-32007,-2.308396972,1.145219343,15879,128,7.903665054,109588,49408,31507.8125,128
-4.726563063,-65536,-31791,-2.2928187,0.036421423,505,128,7.841640454,108728,50048,31527.34375,128
-7.21E-05,-1,-31377,-2.262960346,0.008293987,115,128,7.852819306,108883,50688,31546.875,128
-0.056543357,-784,-31712,-2.287121092,1.153873939,15999,128,7.794400787,108073,51328,31566.40625,128
-0.008943082,-124,-29752,-2.145762699,0.017525556,243,128,7.872364267,109154,51968,31585.9375,128
16.54405255,229391,-29136,-2.101335776,0.027694705,384,128,7.908208717,109651,52608,31605.46875,128
9.417353799,130576,-27645,-1.993802428,0.059860952,830,128,7.996557712,110876,53248,31625,128
16.54535074,229409,-28637,-2.065347083,0.034618382,480,128,7.900203216,109540,53888,31644.53125,128
-2.360036058,-32723,-28138,-2.02935839,1.181568644,16383,128,7.903592933,109587,54528,31664.0625,128
-2.294044768,-31808,-26688,-1.924782029,1.179260752,16351,128,7.968790885,110491,55168,31683.59375,128
-2.354987544,-32653,-26598,-1.918291082,0.01637161,227,128,7.943259828,110137,55808,31703.125,128
16.67329451,231183,-27594,-1.990124224,1.172409197,16256,128,7.86183451,109008,56448,31722.65625,128
-2.362199707,-32753,-26206,-1.890019404,0.001081824,15,128,7.92162334,109837,57088,31742.1875,128
-2.345683854,-32524,-27085,-1.953414315,1.172337076,16255,128,7.850511414,108851,57728,31761.71875,128
16.6349258,230651,-27214,-1.962718006,0,0,128,7.814811208,108356,58368,31781.25,128
-2.345251125,-32518,-26496,-1.910934676,0.018679502,259,128,7.834139804,108624,59008,31800.78125,128
16.56258781,229648,-25836,-1.863334401,1.145147222,15878,128,7.866306051,109070,59648,31820.3125,128
16.61509235,230376,-27810,-2.005702496,1.124231949,15588,128,7.693069898,106668,60288,31839.84375,128
-0.029497746,-409,-30009,-2.164297958,0.582093666,8071,128,7.505625785,104069,60928,31859.375,128
-0.00706792,-98,-31207,-2.250699669,0.516030254,7155,128,7.389509963,102459,61568,31878.90625,128
-0.556202001,-7712,-32229,-2.324407974,0.291010772,4035,128,7.314214982,101415,62208,31898.4375,128
-0.082867751,-1149,-34026,-2.454010541,0.073780426,1023,128,7.213677432,100021,62848,31917.96875,128
-0.006851555,-95,-35261,-2.543080752,0.008149744,113,128,7.106937421,98541,63488,31937.5,128
-0.224803117,-3117,-34989,-2.523463669,1.179549239,16355,128,7.076429972,98118,64128,31957.03125,128
9.231496362,127999,-37611,-2.71256658,1.069852241,14834,128,6.864103897,95174,64768,31976.5625,128
9.166803261,127102,-36652,-2.643401938,2.06830407,28678,128,6.890067683,95534,65408,31996.09375,128
9.443894558,130944,-35080,-2.530026737,2.085180531,28912,128,6.979282138,96771,512,32015.625,128
-0.175471923,-2433,-35125,-2.533272211,1.181568644,16383,128,6.968896624,96627,1152,32035.15625,128
9.448438221,131007,-26118,-1.8836727,0.008943082,124,128,7.574501941,105024,1792,32054.6875,128
17.04601908,236351,-17509,-1.262777598,1.324441591,18364,128,8.64118083,119814,2432,32074.21875,128
9.41958957,130607,-27090,-1.953774924,0.143089311,1984,128,7.357560081,102016,3072,32093.75,128
-0.112870349,-1565,-27409,-1.976781723,0.239083199,3315,128,7.420233777,102885,3712,32113.28125,128
9.314580478,129151,-27834,-2.007433415,0.554326839,7686,128,7.386841462,102422,4352,32132.8125,128
-2.36097364,-32736,-25529,-1.841193061,0.004543663,63,128,7.521925273,104295,4992,32152.34375,128
-0.064909466,-900,-24455,-1.763734432,0.071761021,995,128,7.600321484,105382,5632,32171.875,128
16.68858429,231395,-23343,-1.683535181,0.588512491,8160,128,7.647705394,106039,6272,32191.40625,128
16.57982487,229887,-22323,-1.609971119,0.034618382,480,128,7.712903346,106943,6912,32210.9375,128
-2.288347159,-31729,-21379,-1.541888302,0.014352204,199,128,7.770023676,107735,7552,32230.46875,128
-2.06563557,-28641,-19843,-1.43110948,0.009159447,127,128,7.899337757,109528,8192,32250,128
16.99502909,235644,-17811,-1.28455833,0.009808542,136,128,8.062188394,111786,8832,32269.53125,128
17.13285352,237555,-17982,-1.296891129,1.160292764,16088,128,8.071780571,111919,9472,32289.0625,128
-1.892471539,-26240,-18129,-1.307493008,1.14464237,15871,128,8.084113369,112090,10112,32308.59375,128
16.85237251,233666,-19582,-1.412285735,1.114856138,15458,128,7.970016953,110508,10752,32328.125,128
-2.049985176,-28424,-19464,-1.403775382,0.00223577,31,128,7.941312545,110110,11392,32347.65625,128
16.87537931,233985,-19779,-1.426493696,1.158561845,16064,128,7.916935434,109772,12032,32367.1875,128
16.54361982,229385,-18322,-1.321412482,0.055822141,774,128,7.986316441,110734,12672,32386.71875,128
-2.109341277,-29247,-18175,-1.310810603,0.036854152,511,128,7.971387264,110527,13312,32406.25,128
16.82020626,233220,-17195,-1.240131407,1.44E-04,2,128,8.003337145,110970,13952,32425.78125,128
17.01385284,235905,-17493,-1.261623652,1.18048682,16368,128,7.988768576,110768,14592,32445.3125,128
16.83607302,233440,-16454,-1.18668928,0,0,128,8.043653136,111529,15232,32464.84375,128
-2.141435402,-29692,-17364,-1.252319962,1.17781832,16331,128,7.972180602,110538,15872,32484.375,128
-1.16411521,-16141,-16739,-1.207243944,1.181424401,16381,128,7.981628535,110669,16512,32503.90625,128
-2.102778209,-29156,-17041,-1.229024676,1.116947665,15487,128,7.970593926,110516,17152,32523.4375,128
17.72489997,245764,-16252,-1.172120711,0.004615784,64,128,8.000380158,110929,17792,32542.96875,128
-1.809171058,-25085,-15761,-1.136708991,0.001081824,15,128,7.994466185,110847,18432,32562.5,128
17.76146564,246271,-15881,-1.145363587,1.166639467,16176,128,7.961218114,110386,19072,32582.03125,128
-1.103244555,-15297,-15717,-1.133535639,1.16411521,16141,128,7.968430277,110486,19712,32601.5625,128
17.75684986,246207,-15049,-1.085358391,0,0,128,8.013939025,111117,20352,32621.09375,128
-0.590387653,-8186,-14116,-1.018068912,5.05E-04,7,128,8.025550607,111278,20992,32640.625,128
17.76146564,246271,-14852,-1.071150431,1.181352279,16380,128,7.97520971,110580,21632,32660.15625,128
-0.889476048,-12333,-14302,-1.031483535,1.181568644,16383,128,8.004058362,110980,22272,32679.6875,128
-1.17298617,-16264,-12986,-0.936571471,0.036854152,511,128,8.079786072,112030,22912,32699.21875,128
-0.886302696,-12289,-12678,-0.91435801,0.004687906,65,128,8.07307876,111937,23552,32718.75,128
18.20068636,252361,-12299,-0.887023912,0.009087325,126,128,8.119380846,112579,24192,32738.28125,128
-0.295410191,-4096,-11368,-0.819878676,0.065702804,911,128,8.189483069,113551,24832,32757.8125,128
18.19542148,252288,-10037,-0.723884788,0.073708305,1022,128,8.254753143,114456,25472,32777.34375,128
18.17212619,251965,-9923,-0.715662922,1.18048682,16368,128,8.230448154,114119,26112,32796.875,128
-5.77E-04,-8,-9751,-0.703258002,0.018391015,255,128,8.196767354,113652,26752,32816.40625,128
-0.626664832,-8689,-10230,-0.737804262,0.010457636,145,128,8.155297417,113077,27392,32835.9375,128
-0.111932768,-1552,-9884,-0.712850179,1.181568644,16383,128,8.188257001,113534,28032,32855.46875,128
-0.600051951,-8320,-9932,-0.716312017,1.181135914,16377,128,8.166259905,113229,28672,32875,128
-0.313801207,-4351,-6031,-0.434965543,1.250805408,17343,128,8.403467942,116518,29312,32894.53125,128
0.073852548,1024,5577,0.402222324,0.035988693,499,128,9.28320757,128716,29952,32914.0625,128
18.59288378,257799,-4249,-0.306444801,0.043994194,610,128,8.315768041,115302,30592,32933.59375,128
-0.515597524,-7149,-7306,-0.52692062,1.181280158,16379,128,8.255618603,114468,31232,32953.125,128
18.77643332,260344,-5912,-0.426383069,1.186112307,16446,128,8.31749896,115326,31872,32972.65625,128
-0.472685155,-6554,-5852,-0.422055772,0.001081824,15,128,8.305310405,115157,32512,32992.1875,128
18.33382289,254207,-4854,-0.350078386,1.19289174,16540,128,8.381759331,116217,33152,33011.71875,128
-0.299953854,-4159,-4525,-0.32635037,0.147056001,2039,128,8.370003506,116054,33792,33031.25,128
18.90567528,262136,-2507,-0.180808923,1.255204827,17404,128,8.512515844,118030,34432,33050.78125,128
-7.21E-05,-1,-3097,-0.223360684,1.188492321,16479,128,8.481431422,117599,35072,33070.3125,128
18.90170859,262081,-506,-0.036493544,1.220874932,16928,128,8.636492924,119749,35712,33089.84375,128
0.073924669,1025,1085,0.078251967,1.201041484,16653,128,8.73371288,121097,36352,33109.375,128
0,0,1299,0.093685996,1.248786002,17315,128,8.745324462,121258,36992,33128.90625,128
0.018246772,253,953,0.068731912,0.46092933,6391,128,8.746189922,121270,37632,33148.4375,128
-0.003606081,-50,-2162,-0.155926961,0.258988769,3591,128,8.495278775,117791,38272,33167.96875,128
18.90618013,262143,-2642,-0.190545343,0.267138513,3704,128,8.419190457,116736,38912,33187.5,128
-0.147993582,-2052,-2476,-0.178573153,0.281779204,3907,128,8.424022606,116803,39552,33207.03125,128
18.76143202,260136,-1773,-0.127871648,1.185679577,16440,128,8.404044915,116526,40192,33226.5625,128
-0.259637864,-3600,-3084,-0.222423103,0.065125831,903,128,8.327379623,115463,40832,33246.09375,128
18.86009441,261504,-1727,-0.124554053,1.195632362,16578,128,8.379162953,116181,41472,33265.625,128
-0.073852548,-1024,-2037,-0.146911758,1.183876536,16415,128,8.347573679,115743,42112,33285.15625,128
-0.002596379,-36,-1306,-0.094190847,1.183876536,16415,128,8.343679111,115689,42752,33304.6875,128
-0.055966384,-776,-1863,-0.134362594,0.072914967,1011,128,8.343462747,115686,43392,33324.21875,128
18.90596377,262140,-1544,-0.111355795,1.253473908,17380,128,8.341082733,115653,44032,33343.75,128
-0.111788525,-1550,-901,-0.064981588,0.059500344,825,128,8.343679111,115689,44672,33363.28125,128
-0.004255176,-59,-2171,-0.156576056,1.177097103,16321,128,8.249199778,114379,45312,33382.8125,128
18.87963937,261775,-1402,-0.101114524,0.027838949,386,128,8.282303605,114838,45952,33402.34375,128
-0.001226068,-17,-918,-0.066207655,1.186184428,16447,128,8.279490862,114799,46592,33421.875,128
18.7677066,260223,-1308,-0.09433509,1.181496523,16382,128,8.245449453,114327,47232,33441.40625,128
-0.147560852,-2046,-1382,-0.099672091,0.001226068,17,128,8.228861478,114097,47872,33460.9375,128
-0.046085721,-639,-639,-0.046085721,0.056038506,777,128,8.258287103,114505,48512,33480.46875,128
18.842064,261254,-2286,-0.164870043,1.153801817,15998,128,8.129622117,112721,49152,33500,128
18.75760958,260083,-2062,-0.148714799,1.174428603,16284,128,8.107408656,112413,49792,33519.53125,128
-0.18376591,-2548,-2235,-0.16119184,1.172481319,16257,128,8.064568408,111819,50432,33539.0625,128
-0.06685675,-927,-3607,-0.260142715,1.172914049,16263,128,7.967781182,110477,51072,33558.59375,128
-0.001081824,-15,-4730,-0.341135304,1.145796316,15887,128,7.9021505,109567,51712,33578.125,128
-0.512640537,-7108,-6748,-0.486676751,1.089397203,15105,128,7.737280457,107281,52352,33597.65625,128
-0.036277179,-503,-6487,-0.467853006,1.168298265,16199,128,7.742328971,107351,52992,33617.1875,128
-0.894957291,-12409,-9338,-0.67347177,0.590748261,8191,128,7.530291382,104411,53632,33636.71875,128
-0.808844067,-11215,-10973,-0.791390633,0.259565742,3599,128,7.349266094,101901,54272,33656.25,128
17.72915515,245823,-13604,-0.981142638,0.18376591,2548,128,7.151292223,99156,54912,33675.78125,128
-1.171543738,-16244,-13635,-0.983378408,0.04118145,571,128,7.139608519,98994,55552,33695.3125,128
-1.180558941,-16369,-15442,-1.113702192,1.0627122,14735,128,6.999476194,97051,56192,33714.84375,128
-0.009015204,-125,-3062,-0.220836427,0.237063794,3287,128,7.913112988,109719,56832,33734.375,128
-0.258483918,-3584,-12087,-0.871734127,0.737443654,10225,128,7.09979738,98442,57472,33753.90625,128
-0.294328367,-4081,-15841,-1.142478721,0.921930781,12783,128,6.829846123,94699,58112,33773.4375,128
9.43112903,130767,-17186,-1.239482312,1.034945373,14350,128,6.797751999,94254,58752,33792.96875,128
-0.009231568,-128,-16767,-1.20926335,1.16368248,16135,128,6.820181825,94565,59392,33812.5,128
9.424854448,130680,-16295,-1.175221941,1.177890441,16332,128,6.813474514,94472,60032,33832.03125,128
-0.066784628,-926,-18054,-1.302083886,1.181568644,16383,128,6.670313081,92487,60672,33851.5625,128
9.297199165,128910,-19186,-1.38372557,1.181063793,16376,128,6.604610277,91576,61312,33871.09375,128
9.232722429,128016,-19927,-1.437167697,1.107788218,15360,128,6.514241876,90323,61952,33890.625,128
-0.444052868,-6157,-20941,-1.510299028,0.556129879,7711,128,6.435989909,89238,62592,33910.15625,128
-0.443187409,-6145,-21478,-1.549028343,0.583968828,8097,128,6.409377028,88869,63232,33929.6875,128
-0.325412789,-4512,-21906,-1.5798964,0.563053556,7807,128,6.332783858,87807,63872,33949.21875,128
9.388216661,130172,-22404,-1.615812971,0.59024341,8184,128,6.329971114,87768,64512,33968.75,128
8.807276941,122117,-27561,-1.987744211,0.013847353,192,128,5.966333862,82726,65152,33988.28125,128
8.558529444,118668,-29780,-2.147782105,1.049946672,14558,128,5.775788519,80084,256,34007.8125,128
8.271701726,114691,-32270,-2.327364961,1.138944762,15792,128,5.56375093,77144,896,34027.34375,128
9.453054005,131071,-33441,-2.411819388,1.179332874,16352,128,5.44684177,75523,1536,34046.875,128
-0.014424326,-200,-34781,-2.50846237,1.112331881,15423,128,5.337144773,74002,2176,34066.40625,128
9.303185261,128993,-34879,-2.51553029,0.589089464,8168,128,5.30425731,73546,2816,34085.9375,128
-0.004110933,-57,-36001,-2.596450758,0.569977232,7903,128,5.222038653,72406,3456,34105.46875,128
9.158869881,126992,-36784,-2.652921993,0.552740163,7664,128,5.124674454,71056,4096,34125,128
9.418435623,130591,-37251,-2.686602794,0.001730919,24,128,5.102316749,70746,4736,34144.53125,128
-0.002307892,-32,-39570,-2.853852851,0.444197112,6159,128,4.92655634,68309,5376,34164.0625,128
9.011092664,124943,-38102,-2.7479783,0,0,128,4.994567036,69252,6016,34183.59375,128
-2.88E-04,-4,-38012,-2.741487353,5.05E-04,7,128,4.98987913,69187,6656,34203.125,128
-0.415204217,-5757,-38526,-2.77855787,0.275144014,3815,128,4.92612361,68303,7296,34222.65625,128
9.308161653,129062,-38362,-2.766729923,0.295121705,4092,128,4.943504923,68544,7936,34242.1875,128
9.43466299,130816,-39167,-2.824787834,0.129241959,1792,128,4.858257158,67362,8576,34261.71875,128
9.28811184,128784,-39152,-2.82370601,0.147416609,2044,128,4.82118664,66848,9216,34281.25,128
-0.259133012,-3593,-39563,-2.853347999,0.113591565,1575,128,4.808421112,66671,9856,34300.78125,128
-0.660057147,-9152,-41664,-3.004875541,1.089252959,15103,128,4.626458243,64148,10496,34320.3125,128
9.401487041,130356,-41587,-2.999322176,1.144570249,15870,128,4.604677511,63846,11136,34339.84375,128
-0.669216593,-9279,-42407,-3.058461911,1.179549239,16355,128,4.539840167,62947,11776,34359.375,128
-0.591974329,-8208,-43349,-3.126400486,1.116514935,15481,128,4.490653216,62265,12416,34378.90625,128
-0.071616777,-993,-42852,-3.090556036,1.180991671,16375,128,4.514525475,62596,13056,34398.4375,128
9.194425844,127485,-44691,-3.223187712,1.144570249,15870,128,4.392207192,60900,13696,34417.96875,128
-0.738236992,-10236,-44156,-3.18460264,1.14464237,15871,128,4.385788367,60811,14336,34437.5,128
8.271557483,114689,-45235,-3.262421878,1.107788218,15360,128,4.283519898,59393,14976,34457.03125,128
8.41890197,116732,-46235,-3.334543506,1.107788218,15360,128,4.183342956,58004,15616,34476.5625,128
8.41709893,116707,-45405,-3.274682555,1.172553441,16258,128,4.237434177,58754,16256,34496.09375,128
-0.89091848,-12353,-45821,-3.304685152,1.164259453,16143,128,4.191781186,58121,16896,34515.625,128
-0.327720681,-4544,-37287,-2.689199172,0.073780426,1023,128,4.777264568,66239,17536,34535.15625,128
8.562928863,118729,-29109,-2.099388492,0.087699901,1216,128,5.700493538,79040,18176,34554.6875,128
-0.58627672,-8129,-40321,-2.908016194,1.172337076,16255,128,4.41954129,61279,18816,34574.21875,128
-2.88E-04,-4,-41480,-2.991605162,1.112620367,15427,128,4.437138967,61523,19456,34593.75,128
9.230342416,127983,-39985,-2.883783327,1.144714492,15872,128,4.550874776,63100,20096,34613.28125,128
9.01801634,125039,-38802,-2.79846344,2.282505307,31648,128,4.627900675,64168,20736,34632.8125,128
9.123025432,126495,-35561,-2.564717241,0,0,128,4.84109221,67124,21376,34652.34375,128
9.240872173,128129,-35711,-2.575535485,0.031156544,432,128,4.822629073,66868,22016,34671.875,128
-0.079117427,-1097,-32309,-2.330177704,0.005697609,79,128,5.055077083,70091,22656,34691.40625,128
8.271701726,114691,-30641,-2.209878827,0.013414623,186,128,5.199825191,72098,23296,34710.9375,128
-1.773038122,-24584,-28456,-2.052293068,0.057048208,791,128,5.355968518,74263,23936,34730.46875,128
8.787010764,121836,-25875,-1.866147145,0.018318894,254,128,5.5012936,76278,24576,34750,128
-0.635030941,-8805,-25197,-1.81724868,0.004687906,65,128,5.600172353,77649,25216,34769.53125,128
-0.620822981,-8608,-25166,-1.81501291,1.180414698,16367,128,5.605942083,77729,25856,34789.0625,128
8.289876376,114943,-25951,-1.871628388,1.143993276,15862,128,5.496677816,76214,26496,34808.59375,128
-0.738525479,-10240,-25769,-1.858502252,1.180414698,16367,128,5.482902584,76023,27136,34828.125,128
8.787227128,121839,-25684,-1.852371913,1.144714492,15872,128,5.477349219,75946,27776,34847.65625,128
9.452693397,131066,-23758,-1.713465656,0.073564061,1020,128,5.603273583,77692,28416,34867.1875,128
9.444327288,130950,-23156,-1.670048436,0.017164948,238,128,5.622890666,77964,29056,34886.71875,128
-0.071544656,-992,-21342,-1.539219801,0.018102529,251,128,5.739871948,79586,29696,34906.25,128
-0.03231049,-448,-20904,-1.507630528,0.001081824,15,128,5.764898153,79933,30336,34925.78125,128
-0.245285659,-3401,-19785,-1.426926425,0.002380014,33,128,5.809902049,80557,30976,34945.3125,128
9.450890356,131041,-18001,-1.29826144,0.035772328,496,128,5.922339669,82116,31616,34964.84375,128
9.452044302,131057,-18559,-1.338505308,1.162023683,16112,128,5.888586746,81648,32256,34984.375,128
9.430047206,130752,-16751,-1.208109404,1.195488119,16576,128,5.974267241,82836,32896,35003.90625,128
-0.292020475,-4049,-15826,-1.141396897,1.186184428,16447,128,6.031603936,83631,33536,35023.4375,128
-0.278317365,-3859,-15155,-1.093003284,1.18892505,16485,128,6.060885317,84037,34176,35042.96875,128
9.007775069,124897,-15325,-1.105263961,0.146983879,2038,128,6.029800895,83606,34816,35062.5,128
8.937240116,123919,-13238,-0.954746122,0.276947054,3840,128,6.133223311,85040,35456,35082.03125,128
9.157571692,126974,-12482,-0.90022217,1.188708685,16482,128,6.180679343,85698,36096,35101.5625,128
9.15879776,126991,-12147,-0.876061425,0.294544732,4084,128,6.186665438,85781,36736,35121.09375,128
17.75930199,246241,-11024,-0.795068836,1.217990067,16888,128,6.24566093,86599,37376,35140.625,128
-0.139411108,-1933,-9881,-0.712633814,1.18272259,16399,128,6.303718842,87404,38016,35160.15625,128
9.338308494,129480,-9847,-0.710181679,1.181640766,16384,128,6.292467867,87248,38656,35179.6875,128
9.417353799,130576,-8624,-0.621976927,1.181640766,16384,128,6.357377333,88148,39296,35199.21875,128
-7.21E-05,-1,-9057,-0.653205592,1.199166322,16627,128,6.312301315,87523,39936,35218.75,128
18.33432774,254214,-6874,-0.495764076,1.246261745,17280,128,6.489792644,89984,40576,35238.28125,128
-0.072842845,-1010,-6996,-0.504562915,0.589305829,8171,128,6.483590184,89898,41216,35257.8125,128
-0.023223164,-322,-5251,-0.378710673,1.844799142,25579,128,6.555928177,90901,41856,35277.34375,128
9.323595682,129276,-5896,-0.425229123,0.589666437,8176,128,6.486402927,89937,42496,35296.875,128
18.83182273,261112,-5279,-0.380730078,0.585194896,8114,128,6.484455643,89910,43136,35316.40625,128
18.43537014,255615,-4513,-0.325484911,1.774480554,24604,128,6.524122539,90460,43776,35335.9375,128
-0.386716173,-5362,-5350,-0.385850714,0.572573611,7939,128,6.469742831,89706,44416,35355.46875,128
18.62923308,258303,-2313,-0.166817327,1.921031704,26636,128,6.657763917,92313,45056,35375,128
1.033358697,14328,13912,1.0033561,0.279182825,3871,128,7.889961945,109398,45696,35394.53125,128
0.032526855,451,466,0.033608679,0.71999022,9983,128,6.628049806,91901,46336,35414.0625,128
-0.147416609,-2044,-1636,-0.117990985,1.181568644,16383,128,6.609442426,91643,46976,35433.59375,128
-0.129818932,-1800,-1582,-0.114096417,1.177529833,16327,128,6.609298183,91641,47616,35453.125,128
-0.147632974,-2047,-1723,-0.124265566,1.172625562,16259,128,6.583406518,91282,48256,35472.65625,128
0.004038811,56,163,0.011755825,1.838236074,25488,128,6.703416908,92946,48896,35492.1875,128
-0.009231568,-128,-216,-0.015578272,1.775850865,24623,128,6.649614173,92200,49536,35511.71875,128
0.147416609,2044,1341,0.096715104,1.837298493,25475,128,6.760537238,93738,50176,35531.25,128
0.004399419,61,1853,0.133641378,1.807368017,25060,128,6.79248712,94181,50816,35550.78125,128
0.470882114,6529,4511,0.325340667,2.293900525,31806,128,6.969689962,96638,51456,35570.3125,128
0.31170968,4322,4294,0.309690274,2.217307355,30744,128,6.968680259,96624,52096,35589.84375,128
0.58627672,8129,5589,0.403087783,2.308973945,32015,128,7.035537009,97551,52736,35609.375,128
0.530670945,7358,5300,0.382244633,1.163754602,16136,128,7.039720063,97609,53376,35628.90625,128
0.018102529,251,3226,0.232664374,1.177024982,16320,128,6.895981657,95616,54016,35648.4375,128
0.018391015,255,1277,0.09209932,1.116514935,15481,128,6.727000681,93273,54656,35667.96875,128
0.074068913,1027,1235,0.089070212,1.173491022,16271,128,6.685747109,92701,55296,35687.5,128
0.147128123,2040,1624,0.117125525,1.153873939,15999,128,6.691949569,92787,55936,35707.03125,128
0.147921461,2051,2403,0.173308274,1.772461149,24576,128,6.744454115,93515,56576,35726.5625,128
0.001153946,16,1937,0.139699595,1.181568644,16383,128,6.689858042,92758,57216,35746.09375,128
0.055894262,775,2161,0.15585484,1.773110243,24585,128,6.691588961,92782,57856,35765.625,128
0.009159447,127,2911,0.209946061,1.780755136,24691,128,6.72916433,93303,58496,35785.15625,128
0.14878692,2063,2874,0.207277561,1.18091955,16374,128,6.718706693,93158,59136,35804.6875,128
0.277019176,3841,3585,0.258556039,1.772461149,24576,128,6.74070379,93463,59776,35824.21875,128
0.291587745,4043,2779,0.200426006,1.145724195,15886,128,6.688992582,92746,60416,35843.75,128
0.292958056,4062,4054,0.292381083,1.774696919,24607,128,6.741280763,93471,61056,35863.28125,128
0.258483918,3584,3140,0.226461914,1.172409197,16256,128,6.675650081,92561,61696,35882.8125,128
0.071544656,992,3052,0.220115211,1.179260752,16351,128,6.643772321,92119,62336,35902.34375,128
0.009159447,127,3919,0.282644663,1.774047825,24598,128,6.68755015,92726,62976,35921.875,128
0.350727481,4863,4858,0.350366873,1.781620596,24703,128,6.726640073,93268,63616,35941.40625,128
0.589594315,8175,4749,0.342505615,1.181568644,16383,128,6.710989679,93051,64256,35960.9375,128
0.443187409,6145,4613,0.332697074,1.163610359,16134,128,6.702407205,92932,64896,35980.46875,128
0.016083123,223,5586,0.402871418,1.788616394,24800,128,6.736737101,93408,0,36000,128
0.535286729,7422,4284,0.308969058,1.181135914,16377,128,6.646224457,92153,640,36019.53125,128
0.073347696,1017,5849,0.421839407,1.775273892,24615,128,6.72786614,93285,1280,36039.0625,128
0.299737489,4156,5476,0.394938039,1.177097103,16321,128,6.675505838,92559,1920,36058.59375,128
0.131405608,1822,5916,0.426671556,1.77253327,24577,128,6.76104209,93745,2560,36078.125,128
0.526127282,7295,6356,0.458405072,1.773687216,24593,128,6.786573146,94099,3200,36097.65625,128
0.563125677,7808,7589,0.547331041,1.779889677,24679,128,6.820686677,94572,3840,36117.1875,128
0.588728856,8163,6498,0.468646344,1.165557643,16161,128,6.727721897,93283,4480,36136.71875,128
0,0,6498,0.468646344,0.005192757,72,128,6.727721897,93283,5120,36156.25,128
0.297141111,4120,6499,0.468718465,1.809315301,25087,128,6.694545948,92823,5760,36175.78125,128
0.452058369,6268,6181,0.445783787,1.181568644,16383,128,6.65877362,92327,6400,36195.3125,128
0.069236764,960,12529,0.903611887,2.219615247,30776,128,7.048302537,97728,7040,36214.84375,128
0.450038964,6240,21573,1.555879898,0.111211552,1542,128,8.150681633,113013,7680,36234.375,128
1.116947665,15487,10794,0.778480861,0.145469325,2017,128,6.812320568,94456,8320,36253.90625,128
0.60928352,8448,8229,0.593488883,1.164043088,16140,128,6.72563037,93254,8960,36273.4375,128
0.516967835,7168,7126,0.513938727,1.108076705,15364,128,6.655888755,92287,9600,36292.96875,128
0.594282221,8240,8100,0.584185193,1.172337076,16255,128,6.706301773,92986,10240,36312.5,128
0.588512491,8160,8961,0.646281915,1.814003207,25152,128,6.752459616,93626,10880,36332.03125,128
7.21E-05,1,9426,0.679818473,1.820854762,25247,128,6.763494225,93779,11520,36351.5625,128
0.065774925,912,9219,0.664889296,1.164908548,16152,128,6.769552442,93863,12160,36371.09375,128
0.592984032,8222,11260,0.81208954,1.172409197,16256,128,6.896414387,95622,12800,36390.625,128
0.61505325,8528,11658,0.840793948,2.141435402,29692,128,6.938894026,96211,13440,36410.15625,128
0.885653601,12280,12283,0.885869966,2.232813505,30959,128,7.000774384,97069,14080,36429.6875,128
1.149258155,15935,13021,0.939095728,1.174644968,16287,128,7.065178998,97962,14720,36449.21875,128
0.886230574,12288,11337,0.817642905,1.177241347,16323,128,6.969329353,96633,15360,36468.75,128
0.590820383,8192,9289,0.66993781,1.172409197,16256,128,6.808786608,94407,16000,36488.28125,128
0.08279563,1148,9069,0.654071051,1.111394299,15410,128,6.771716091,93893,16640,36507.8125,128
0.064837344,899,9377,0.676284513,1.776427838,24631,128,6.744886845,93521,17280,36527.34375,128
0.004471541,62,7752,0.559086866,1.121996179,15557,128,6.647450524,92170,17920,36546.875,128
0.013919474,193,8055,0.58093972,1.165990372,16167,128,6.642329889,92099,18560,36566.40625,128
0.005625487,78,7988,0.576107571,1.181135914,16377,128,6.655744512,92285,19200,36585.9375,128
0.004543663,63,8059,0.581228206,1.15567698,16024,128,6.646585065,92158,19840,36605.46875,128
0.073203453,1015,9111,0.65710016,1.772461149,24576,128,6.703993881,92954,20480,36625,128
0.002380014,33,8391,0.605172587,1.175871036,16304,128,6.631583766,91950,21120,36644.53125,128
0.145397204,2016,8804,0.63495882,1.181568644,16383,128,6.649325687,92196,21760,36664.0625,128
0.017309191,240,8736,0.630054549,1.181063793,16376,128,6.634901361,91996,22400,36683.59375,128
0.145397204,2016,9228,0.66553839,1.777004811,24639,128,6.66894277,92468,23040,36703.125,128
8.65E-04,12,8923,0.643541294,1.170029184,16223,128,6.637930469,92038,23680,36722.65625,128
0.020482543,284,9096,0.656018335,1.18048682,16368,128,6.597398114,91476,24320,36742.1875,128
0.041253572,572,8838,0.637410955,1.166855832,16179,128,6.60785575,91621,24960,36761.71875,128
0.064620979,896,9559,0.689410649,1.181496523,16382,128,6.647522646,92171,25600,36781.25,128
0.035700206,495,8676,0.625727251,1.146950262,15903,128,6.566385814,91046,26240,36800.78125,128
0.001081824,15,9578,0.69078096,1.79200611,24847,128,6.612904264,91691,26880,36820.3125,128
0.001226068,17,10203,0.735856978,1.772677514,24579,128,6.644060808,92123,27520,36839.84375,128
0.027117732,376,8759,0.631713346,1.109735502,15387,128,6.565736719,91037,28160,36859.375,128
0.004327298,60,9384,0.676789364,1.166639467,16176,128,6.576338598,91184,28800,36878.90625,128
0.041469937,575,9169,0.661283214,1.173491022,16271,128,6.597614479,91479,29440,36898.4375,128
0.035051112,486,9930,0.716167774,1.781332109,24699,128,6.642474132,92101,30080,36917.96875,128
0.276802811,3838,10094,0.727995721,1.179404995,16353,128,6.612327291,91683,30720,36937.5,128
0.145541447,2018,9855,0.710758652,1.181568644,16383,128,6.594513249,91436,31360,36957.03125,128
0.029930476,415,8710,0.628179387,0.589594315,8175,128,6.464189466,89629,32000,36976.5625,128
0.073780426,1023,8901,0.641954618,0.59067614,8190,128,6.475151953,89781,32640,36996.09375,128
0.014857056,206,8926,0.643757658,1.109158529,15379,128,6.500322402,90130,33280,37015.625,128
0.590820383,8192,15880,1.145291465,2.081718693,28864,128,6.919060578,95936,33920,37035.15625,128
1.181785009,16386,25306,1.825109938,0.471314844,6535,128,7.896308648,109486,34560,37054.6875,128
0.891711818,12364,11807,0.851540071,0.900077927,12480,128,6.50291878,90166,35200,37074.21875,128
0.189102911,2622,9901,0.714076247,0.58714218,8141,128,6.45553487,89509,35840,37093.75,128
0.035772328,496,8635,0.622770264,0.586204599,8128,128,6.371368929,88342,36480,37113.28125,128
0.29533807,4095,7279,0.524973336,0.572429368,7937,128,6.282731448,87113,37120,37132.8125,128
0.332624952,4612,5211,0.375825808,0.285962258,3965,128,6.114183201,84776,37760,37152.34375,128
0.073708305,1022,4673,0.337024371,0.249252349,3456,128,6.044225221,83806,38400,37171.875,128
0.221557644,3072,3168,0.22848132,0.009159447,127,128,5.963232632,82683,39040,37191.40625,128
0.292020475,4049,2719,0.196098709,0.009159447,127,128,5.898323166,81783,39680,37210.9375,128
0.267931851,3715,2115,0.152537245,1.172697684,16260,128,5.877840624,81499,40320,37230.46875,128
2.16E-04,3,598,0.043128734,1.172553441,16258,128,5.775211546,80076,40960,37250,128
0.017958286,249,-690,-0.049763924,1.172409197,16256,128,5.673736414,78669,41600,37269.53125,128
-0.005337001,-74,-4549,-0.328081289,1.172481319,16257,128,5.417560389,75117,42240,37289.0625,128
8.862305744,122880,-7693,-0.55483169,0.574376652,7964,128,5.152224916,71438,42880,37308.59375,128
8.854156,122767,-10337,-0.745521277,0.259349377,3596,128,4.964059587,68829,43520,37328.125,128
8.63851233,119777,-12715,-0.91702651,0.147560852,2046,128,4.776831839,66233,44160,37347.65625,128
-1.116514935,-15481,-13419,-0.967800137,1.174644968,16287,128,4.700815642,65179,44800,37367.1875,128
8.419046214,116734,-15616,-1.126251355,1.051821834,14584,128,4.533060733,62853,45440,37386.71875,128
-1.163466115,-16132,-16496,-1.189718388,1.107716096,15359,128,4.453149969,61745,46080,37406.25,128
-1.190872334,-16512,-18132,-1.307709373,1.177674076,16329,128,4.345328134,60250,46720,37425.78125,128
8.234559087,114176,-19052,-1.374061271,1.043022995,14462,128,4.265633734,59145,47360,37445.3125,128
-1.192314767,-16532,-21347,-1.539580409,1.041075711,14435,128,4.084680567,56636,48000,37464.84375,128
8.269177469,114656,-21684,-1.563885398,0.516967835,7168,128,4.041551833,56038,48640,37484.375,128
-1.297107494,-17985,-22106,-1.594320726,0.452418977,6273,128,3.999360681,55453,49280,37503.90625,128
7.810700275,108299,-24204,-1.745631903,0.479753075,6652,128,3.842063408,53272,49920,37523.4375,128
7.350564283,101919,-24966,-1.800588584,0.294400489,4082,128,3.787755822,52519,50560,37542.96875,128
-2.357800288,-32692,-26527,-1.913170447,0.005120636,71,128,3.649210173,50598,51200,37562.5,128
-2.326427379,-32257,-27775,-2.003178239,0.011900069,165,128,3.553504771,49271,51840,37582.03125,128
7.155691642,99217,-28825,-2.078905949,1.160437007,16090,128,3.455058748,47906,52480,37601.5625,128
-2.070467719,-28708,-29754,-2.145906943,1.043095117,14463,128,3.389644431,46999,53120,37621.09375,128
7.107875002,98554,-31014,-2.236780195,1.14860906,15926,128,3.290188705,45620,53760,37640.625,128
-2.215648558,-30721,-31750,-2.289861714,1.176375887,16311,128,3.202777291,44408,54400,37660.15625,128
-2.334360759,-32367,-32329,-2.331620137,1.098773014,15235,128,3.170394679,43959,55040,37679.6875,128
9.388433026,130175,-33292,-2.401073265,1.125674382,15608,128,3.076203832,42653,55680,37699.21875,128
-0.036854152,-511,-34717,-2.503846586,1.070789822,14847,128,2.954029793,40959,56320,37718.75,128
9.418435623,130591,-34761,-2.507019938,1.107788218,15360,128,2.967011686,41139,56960,37738.28125,128
9.453054005,131071,-36102,-2.603735042,1.03393567,14336,128,2.883350597,39979,57600,37757.8125,128
9.214836265,127768,-35509,-2.560966916,0.589666437,8176,128,2.89943372,40202,58240,37777.34375,128
9.162259598,127039,-37046,-2.67181786,0.59067614,8190,128,2.765359612,38343,58880,37796.875,128
6.94437527,96287,-38243,-2.758147449,0.461578424,6400,128,2.678813658,37143,59520,37816.40625,128
-2.434898309,-33761,-39911,-2.878446326,0.286106501,3967,128,2.534354035,35140,60160,37835.9375,128
6.958078379,96477,-40739,-2.938163035,0.009808542,136,128,2.466631826,34201,60800,37855.46875,128
-2.372440979,-32895,-41836,-3.017280461,0.069308885,961,128,2.394726562,33204,61440,37875,128
7.050538307,97759,-38676,-2.789376115,2.359819694,32720,128,2.55007655,35358,62080,37894.53125,128
-1.773326608,-24588,-30199,-2.178001067,1.18272259,16399,128,3.271725568,45364,62720,37914.0625,128
7.081117878,98183,-40997,-2.956770415,0.147705096,2048,128,2.245723277,31138,63360,37933.59375,128
-2.36364214,-32773,-43150,-3.112048282,1.032998089,14323,128,2.210023071,30643,64000,37953.125,128
-2.367680951,-32829,-44789,-3.230255631,1.071366795,14855,128,2.08424295,28899,64640,37972.65625,128
7.017145993,97296,-44624,-3.218355562,1.047783023,14528,128,2.078617463,28821,65280,37992.1875,128
-2.815339901,-39036,-45242,-3.262926729,1.163249751,16129,128,2.006856442,27826,384,38011.71875,128
6.630501942,91935,-45417,-3.275548014,1.112259759,15422,128,2.004837037,27798,1024,38031.25,128
6.79205439,94175,-45659,-3.293001448,1.137646572,15774,128,1.970939871,27328,1664,38050.78125,128
6.554485745,90881,-45320,-3.268552216,1.144714492,15872,128,1.99257636,27628,2304,38070.3125,128
6.978344557,96758,-44570,-3.214460995,1.172409197,16256,128,2.050850636,28436,2944,38089.84375,128
-2.657609899,-36849,-45130,-3.254849107,1.126179233,15615,128,2.011039497,27884,3584,38109.375,128
6.796670174,94239,-44867,-3.235881118,1.181496523,16382,128,2.044359689,28346,4224,38128.90625,128
6.794362282,94207,-47403,-3.418781569,1.034079913,14338,128,1.874296889,25988,4864,38148.4375,128
5.316445865,73715,-49726,-3.586320113,0.590099167,8182,128,1.679280004,23284,5504,38167.96875,128
5.252401859,72827,-52351,-3.775639388,0.442971044,6142,128,1.463059361,20286,6144,38187.5,128
-4.598475051,-63760,-51761,-3.733087627,0.586132477,8127,128,1.496956527,20756,6784,38207.03125,128
5.026012066,69688,-53356,-3.848121625,0.221557644,3072,128,1.359781189,18854,7424,38226.5625,128
4.731034604,65598,-53770,-3.877979979,0.239732294,3324,128,1.325884023,18384,8064,38246.09375,128
4.804454423,66616,-54094,-3.901347387,0.110778822,1536,128,1.294799601,17953,8704,38265.625,128
4.728798834,65567,-54409,-3.9240657,5.77E-04,8,128,1.254988462,17401,9344,38285.15625,128
-4.5519566,-63115,-54459,-3.927671782,0.002812744,39,128,1.235155014,17126,9984,38304.6875,128
4.743872254,65776,-55642,-4.012991668,1.107788218,15360,128,1.150700587,15955,10624,38324.21875,128
-4.650330502,-64479,-56567,-4.079704175,1.163393994,16131,128,1.064659484,14762,11264,38343.75,128
-4.726563063,-65536,-56112,-4.046888834,1.181568644,16383,128,1.076992283,14933,11904,38363.28125,128
-4.661942084,-64640,-56956,-4.107759489,1.047422415,14523,128,0.989580868,13721,12544,38382.8125,128
-4.718485441,-65424,-56768,-4.094200622,1.108870042,15375,128,0.995494842,13803,13184,38402.34375,128
4.855155928,67319,-57303,-4.132785694,1.107788218,15360,128,0.974435326,13511,13824,38421.875,128
5.297766363,73456,-57661,-4.158605237,1.18048682,16368,128,0.948687905,13154,14464,38441.40625,128
-4.69894048,-65153,-58270,-4.202527309,1.108581556,15371,128,0.872888073,12103,15104,38460.9375,128
5.315291919,73699,-58109,-4.190915727,1.181063793,16376,128,0.868921383,12048,15744,38480.46875,128
5.312984027,73667,-58062,-4.18752601,1.18048682,16368,128,0.869714721,12059,16384,38500,128
5.170183202,71687,-59405,-4.284385357,1.167793413,16192,128,0.762181373,10568,17024,38519.53125,128
5.250454575,72800,-59226,-4.271475586,1.144714492,15872,128,0.775163266,10748,17664,38539.0625,128
5.309305824,73616,-59573,-4.296501791,1.164043088,16140,128,0.727707234,10090,18304,38558.59375,128
-4.393289017,-60915,-59831,-4.315109171,1.164259453,16143,128,0.720711436,9993,18944,38578.125,128
-4.58116586,-63520,-60197,-4.341505687,1.163105507,16127,128,0.720783558,9994,19584,38597.65625,128
-4.174760482,-57885,-59997,-4.327081362,1.181568644,16383,128,0.733549086,10171,20224,38617.1875,128
-4.348140877,-60289,-60917,-4.39343326,1.17695286,16319,128,0.654359538,9073,20864,38636.71875,128
-4.449543887,-61695,-61681,-4.448534185,0.590171288,8183,128,0.569256016,7893,21504,38656.25,128
-4.435768656,-61504,-62564,-4.512217583,0.586853693,8137,128,0.471026358,6531,22144,38675.78125,128
4.737597673,65689,-62784,-4.528084341,0.534709756,7414,128,0.462011154,6406,22784,38695.3125,128
-4.717403617,-65409,-63382,-4.571213075,0.589017342,8167,128,0.411886622,5711,23424,38714.84375,128
-4.522386732,-62705,-54747,-3.948442811,0.267643364,3711,128,1.028887156,14266,24064,38734.375,128
5.838967066,80960,-52032,-3.752632588,0.42465215,5888,128,1.607158376,22284,24704,38753.90625,128
-4.654513556,-64537,-62701,-4.522098246,0.324186721,4495,128,0.317407288,4401,25344,38773.4375,128
4.855949265,67330,-63986,-4.614774539,0.524756971,7276,128,0.303199327,4204,25984,38792.96875,128
4.754329891,65921,-64654,-4.662951787,0.295121705,4092,128,0.264037283,3661,26624,38812.5,128
4.735217659,65656,-64778,-4.671894869,0.263965161,3660,128,0.23821774,3303,27264,38832.03125,128
-4.724255171,-65504,-64562,-4.656316597,0.254949958,3535,128,0.248314768,3443,27904,38851.5625,128
4.727644888,65551,-64437,-4.647301393,0.278677974,3864,128,0.250839025,3478,28544,38871.09375,128
-4.593859267,-63696,-64207,-4.630713419,0.27629796,3831,128,0.273773703,3796,29184,38890.625,128
-4.596383524,-63731,-64383,-4.643406825,0.519203606,7199,128,0.262955459,3646,29824,38910.15625,128
-4.477310714,-62080,-63069,-4.548639005,0.556706853,7719,128,0.344236534,4773,30464,38929.6875,128
4.80034349,66559,-61851,-4.460794861,0.017453434,242,128,0.441961341,6128,31104,38949.21875,128
-4.652782637,-64513,-62690,-4.521304908,0.54949469,7619,128,0.401789594,5571,31744,38968.75,128
-4.65292688,-64515,-66035,-4.762551756,0.277019176,3841,128,0.187371992,2598,32384,38988.28125,128
-0.069381007,-962,-67510,-4.868931159,0.036854152,511,128,0.052143938,723,33024,39007.8125,128
-0.231005577,-3203,-67747,-4.886023985,0.021852854,303,128,0.021852854,303,33664,39027.34375,128
-0.223360684,-3097,-69051,-4.980070589,1.173491022,16271,128,-0.105802429,-1467,34304,39046.875,128
-0.10847093,-1504,-69087,-4.982666967,1.181568644,16383,128,-0.092676293,-1285,34944,39066.40625,128
0.452274734,6271,-70367,-5.074982652,1.181352279,16380,128,-0.219105508,-3038,35584,39085.9375,128
0.26302758,3647,-70404,-5.077651152,1.18048682,16368,128,-0.222639468,-3087,36224,39105.46875,128
0.111932768,1552,-70733,-5.101379168,1.109807624,15388,128,-0.249468714,-3459,36864,39125,128
0.046085721,639,-70919,-5.114793791,1.144858735,15874,128,-0.253435404,-3514,37504,39144.53125,128
0.184054397,2552,-71599,-5.163836499,1.180198333,16364,128,-0.331759492,-4600,38144,39164.0625,128
0.064693101,897,-71330,-5.144435781,1.167793413,16192,128,-0.31704668,-4396,38784,39183.59375,128
0.036782031,510,-71376,-5.147753376,1.154234547,16004,128,-0.32281641,-4476,39424,39203.125,128
0.133569256,1852,-72219,-5.208551909,1.14817633,15920,128,-0.380297349,-5273,40064,39222.65625,128
-0.502831996,-6972,-72492,-5.228241113,1.122284665,15561,128,-0.414771487,-5751,40704,39242.1875,128
-0.461434181,-6398,-73672,-5.313344635,1.181568644,16383,128,-0.501750171,-6957,41344,39261.71875,128
0.143377798,1988,-72172,-5.205162192,1.052398807,14592,128,-0.41931515,-5814,41984,39281.25,128
-0.600268316,-8323,-73386,-5.292717849,1.172337076,16255,128,-0.501750171,-6957,42624,39300.78125,128
0.004543663,63,-73454,-5.29762212,1.166639467,16176,128,-0.527641836,-7316,43264,39320.3125,128
-0.893226372,-12385,-73833,-5.324956217,1.050595766,14567,128,-0.574232408,-7962,43904,39339.84375,128
0.032887463,456,-74288,-5.357771558,1.108220948,15366,128,-0.608345939,-8435,44544,39359.375,128
-0.895390021,-12415,-74863,-5.399241495,0.581660936,8065,128,-0.642243104,-8905,45184,39378.90625,128
-1.071150431,-14852,-74293,-5.358132167,0.550360149,7631,128,-0.620029643,-8597,45824,39398.4375,128
0.253579647,3516,-74451,-5.369527384,0.586781572,8136,128,-0.604018641,-8375,46464,39417.96875,128
0.018391015,255,-74627,-5.382220791,0.519708457,7206,128,-0.620822981,-8608,47104,39437.5,128
-0.586781572,-8136,-73544,-5.304113067,0.575169989,7975,128,-0.606470776,-8409,47744,39457.03125,128
-4.726779428,-65539,-75271,-5.42866712,0.47823852,6631,128,-0.70801803,-9817,48384,39476.5625,128
