Device,Device,Device,Device,Device,Device,Device,Device,Device,Device,Device,Device
ECG Vx-RL,ECG Vx-RL,ECG LA-RA,ECG LA-RA,ExG2 CH1,ExG2 CH1,EXG1 Status,ECG LL-RA,ECG LL-RA,Timestamp,Timestamp,EXG2 Status
RAW,CAL,CAL,RAW,RAW,CAL,RAW,CAL,RAW,RAW,CAL,RAW
No Units,mV,mV,No Units,No Units,mV,No Units,mV,No Units,No Units,mSecs,No Units
-8388608,-605.0000721,-15.78518877,-218869,14176,1.02239621,128,-7.080685148,-98177,1920,58.59375,128
-8388608,-605.0000721,-15.79744945,-219039,14131,1.019150736,128,-7.093883406,-98360,2560,78.125,128
-8388608,-605.0000721,-15.78771303,-218904,14311,1.032132629,128,-7.069362053,-98020,3200,97.65625,128
-8388608,-605.0000721,-15.77934692,-218788,14271,1.029247764,128,-7.080613027,-98176,3840,117.1875,128
-8388608,-605.0000721,-15.75381586,-218434,14502,1.045907861,128,-7.064962633,-97959,4480,136.71875,128
-8388608,-605.0000721,-15.74552187,-218319,14345,1.034584765,128,-7.060635336,-97899,5120,156.25,128
-8388608,-605.0000721,-15.75439283,-218442,14098,1.016770722,128,-7.094316136,-98366,5760,175.78125,128
-8388608,-605.0000721,-15.7519407,-218408,14244,1.02730048,128,-7.08609427,-98252,6400,195.3125,128
-8388608,-605.0000721,-15.75799891,-218492,14036,1.012299181,128,-7.101239813,-98462,7040,214.84375,128
-8388608,-605.0000721,-15.73124179,-218121,14158,1.02109802,128,-7.048951632,-97737,7680,234.375,128
-8388608,-605.0000721,-15.68703123,-217508,14440,1.04143632,128,-7.02587271,-97417,8320,253.90625,128
-8388608,-605.0000721,-15.68753608,-217515,14199,1.024055007,128,-7.083930622,-98222,8960,273.4375,128
-8388608,-605.0000721,-15.73015997,-218106,13873,1.000543356,128,-7.120856896,-98734,9600,292.96875,128
-8388608,-605.0000721,-15.77545235,-218734,14093,1.016410114,128,-7.152229804,-99169,10240,312.5,128
-8388608,-605.0000721,-15.82052837,-219359,13767,0.992898463,128,-7.157638926,-99244,10880,332.03125,128
-8388608,-605.0000721,-15.87772082,-220152,13764,0.992682098,128,-7.166005035,-99360,11520,351.5625,128
-8388608,-605.0000721,-15.87086926,-220057,14346,1.034656886,128,-7.180140874,-99556,12160,371.09375,128
-8388608,-605.0000721,-15.73419878,-218162,15276,1.101730001,128,-7.133838789,-98914,12800,390.625,128
-8388608,-605.0000721,-15.09823025,-209344,16324,1.177313468,128,-6.17260172,-85586,13440,410.15625,128
-8388608,-605.0000721,-15.9273405,-220840,9204,0.663807471,128,-6.686107717,-92706,14080,429.6875,128
-8388608,-605.0000721,-15.72929451,-218094,14559,1.050018793,128,-7.193555497,-99742,14720,449.21875,128
-8388608,-605.0000721,-15.77307233,-218701,14124,1.018645885,128,-7.172568103,-99451,15360,468.75,128
-8388608,-605.0000721,-15.81439803,-219274,14005,1.010063411,128,-7.152518291,-99173,16000,488.28125,128
-8388608,-605.0000721,-15.81273923,-219251,14340,1.034224157,128,-7.14761402,-99105,16640,507.8125,128
-8388608,-605.0000721,-15.80047855,-219081,14506,1.046196347,128,-7.118476882,-98701,17280,527.34375,128
-8388608,-605.0000721,-15.79326639,-218981,14531,1.047999388,128,-7.110327138,-98588,17920,546.875,128
-8388608,-605.0000721,-15.77624569,-218745,14600,1.05297578,128,-7.082055459,-98196,18560,566.40625,128
-8388608,-605.0000721,-15.75432071,-218441,14444,1.041724806,128,-7.029478792,-97467,19200,585.9375,128
-8388608,-605.0000721,-15.73015997,-218106,14621,1.054490334,128,-6.973368165,-96689,19840,605.46875,128
-8388608,-605.0000721,-15.72316417,-218009,14257,1.028238061,128,-6.92576789,-96029,20480,625,128
-8388608,-605.0000721,-15.77292809,-218699,14134,1.019367101,128,-6.930816404,-96099,21120,644.53125,128
-8388608,-605.0000721,-15.78446755,-218859,14446,1.041869049,128,-6.95764565,-96471,21760,664.0625,128
-8388608,-605.0000721,-15.8026422,-219111,14533,1.048143631,128,-7.060058362,-97891,22400,683.59375,128
-8388608,-605.0000721,-15.81959079,-219346,14358,1.035522346,128,-7.1068653,-98540,23040,703.125,128
-8388608,-605.0000721,-15.83726058,-219591,14352,1.035089616,128,-7.174587509,-99479,23680,722.65625,128
-8388608,-605.0000721,-15.83855877,-219609,14508,1.04634059,128,-7.195358538,-99767,24320,742.1875,128
-8388608,-605.0000721,-15.85226188,-219799,14388,1.037685995,128,-7.200984025,-99845,24960,761.71875,128
-8388608,-605.0000721,-15.84216486,-219659,14428,1.04057086,128,-7.1918967,-99719,25600,781.25,128
-8388608,-605.0000721,-15.83105812,-219505,14363,1.035882954,128,-7.189949416,-99692,26240,800.78125,128
-8388608,-605.0000721,-15.82637022,-219440,14559,1.050018793,128,-7.196368241,-99781,26880,820.3125,128
-8388608,-605.0000721,-15.79961309,-219069,14741,1.06314493,128,-7.193194889,-99737,27520,839.84375,128
-8388608,-605.0000721,-15.80033431,-219079,14519,1.047133928,128,-7.210287715,-99974,28160,859.375,128
-8388608,-605.0000721,-15.78302512,-218839,14607,1.053480632,128,-7.196440363,-99782,28800,878.90625,128
-8388608,-605.0000721,-15.78598211,-218880,14456,1.042590266,128,-7.196368241,-99781,29440,898.4375,128
-8388608,-605.0000721,-15.77545235,-218734,14565,1.050451523,128,-7.173433563,-99463,30080,917.96875,128
-8388608,-605.0000721,-15.76333592,-218566,14594,1.05254305,128,-7.15605225,-99222,30720,937.5,128
-8388608,-605.0000721,-15.70722529,-217788,14641,1.055932767,128,-7.133622424,-98911,31360,957.03125,128
-8388608,-605.0000721,-15.72309205,-218008,14308,1.031916265,128,-7.176679036,-99508,32000,976.5625,128
-8388608,-605.0000721,-15.75648436,-218471,14139,1.019727709,128,-7.226082352,-100193,32640,996.09375,128
-8388608,-605.0000721,-15.79593489,-219018,14071,1.014823439,128,-7.238198786,-100361,33280,1015.625,128
-8388608,-605.0000721,-15.80495009,-219143,14426,1.040426617,128,-7.248367935,-100502,33920,1035.15625,128
-8388608,-605.0000721,-15.81980715,-219349,14262,1.02859867,128,-7.271014127,-100816,34560,1054.6875,128
-8388608,-605.0000721,-15.82074473,-219362,14599,1.052903658,128,-7.267768653,-100771,35200,1074.21875,128
-8388608,-605.0000721,-15.58238275,-216057,15808,1.140098708,128,-7.116890206,-98679,35840,1093.75,128
-8388608,-605.0000721,-14.92838382,-206989,13798,0.995134234,128,-6.418031623,-88989,36480,1113.28125,128
-8388608,-605.0000721,-15.88413964,-220241,10314,0.743862479,128,-7.038349752,-97590,37120,1132.8125,128
-8388608,-605.0000721,-15.6909258,-217562,14568,1.050667888,128,-7.281471763,-100961,37760,1152.34375,128
-8388608,-605.0000721,-15.75771043,-218488,13908,1.003067613,128,-7.245338827,-100460,38400,1171.875,128
-8388608,-605.0000721,-15.78158269,-218819,13959,1.006745816,128,-7.237982421,-100358,39040,1191.40625,128
-8388608,-605.0000721,-15.77747175,-218762,14091,1.016265871,128,-7.222332027,-100141,39680,1210.9375,128
-8388608,-605.0000721,-15.77884207,-218781,14198,1.023982885,128,-7.206321026,-99919,40320,1230.46875,128
-8388608,-605.0000721,-15.76780746,-218628,14478,1.044176941,128,-7.198748255,-99814,40960,1250,128
-8388608,-605.0000721,-15.74790189,-218352,14467,1.043383603,128,-7.160668035,-99286,41600,1269.53125,128
-8388608,-605.0000721,-15.74090609,-218255,14348,1.03480113,128,-7.114510192,-98646,42240,1289.0625,128
-8388608,-605.0000721,-15.70138344,-217707,14430,1.040715103,128,-7.020824196,-97347,42880,1308.59375,128
-8388608,-605.0000721,-15.67866512,-217392,14368,1.036243562,128,-6.985268233,-96854,43520,1328.125,128
-8388608,-605.0000721,-15.6952531,-217622,14154,1.020809534,128,-6.97625303,-96729,44160,1347.65625,128
-8388608,-605.0000721,-15.71991869,-217964,13959,1.006745816,128,-7.022194507,-97366,44800,1367.1875,128
-8388608,-605.0000721,-15.73924729,-218232,14020,1.011145235,128,-7.093955528,-98361,45440,1386.71875,128
-8388608,-605.0000721,-15.77444265,-218720,13989,1.008909465,128,-7.188506983,-99672,46080,1406.25,128
-8388608,-605.0000721,-15.7999737,-219074,14316,1.032493238,128,-7.241804867,-100411,46720,1425.78125,128
-8388608,-605.0000721,-15.81122468,-219230,14112,1.017780425,128,-7.249738246,-100521,47360,1445.3125,128
-8388608,-605.0000721,-15.8069695,-219171,14221,1.025641683,128,-7.243463664,-100434,48000,1464.84375,128
-8388608,-605.0000721,-15.81706653,-219311,14249,1.027661088,128,-7.251036435,-100539,48640,1484.375,128
-8388608,-605.0000721,-15.82824538,-219466,14154,1.020809534,128,-7.25211826,-100554,49280,1503.90625,128
-8388608,-605.0000721,-15.87757657,-220150,13907,1.002995491,128,-7.249954611,-100524,49920,1523.4375,128
-8388608,-605.0000721,-15.89524637,-220395,14119,1.018285277,128,-7.22997692,-100247,50560,1542.96875,128
-8388608,-605.0000721,-15.86336861,-219953,14354,1.035233859,128,-7.240218191,-100389,51200,1562.5,128
-8388608,-605.0000721,-15.86271952,-219944,14223,1.025785926,128,-7.243607908,-100436,51840,1582.03125,128
-8388608,-605.0000721,-15.85283886,-219807,14105,1.017275574,128,-7.249089152,-100512,52480,1601.5625,128
-8388608,-605.0000721,-15.84519396,-219701,14244,1.02730048,128,-7.249954611,-100524,53120,1621.09375,128
-8388608,-605.0000721,-15.83762119,-219596,14331,1.033575062,128,-7.254426152,-100586,53760,1640.625,128
-8388608,-605.0000721,-15.81944654,-219344,14102,1.017059209,128,-7.201705241,-99855,54400,1660.15625,128
-8388608,-605.0000721,-15.75619587,-218467,14604,1.053264267,128,-7.16665413,-99369,55040,1679.6875,128
-8388608,-605.0000721,-15.75388798,-218435,14186,1.023117426,128,-7.194637322,-99757,55680,1699.21875,128
-8388608,-605.0000721,-15.78865061,-218917,14061,1.014102222,128,-7.247646719,-100492,56320,1718.75,128
-8388608,-605.0000721,-15.84310244,-219672,13817,0.996504545,128,-7.262431653,-100697,56960,1738.28125,128
-8388608,-605.0000721,-15.88421176,-220242,14174,1.022251966,128,-7.26228741,-100695,57600,1757.8125,128
-8388608,-605.0000721,-15.89358758,-220372,14289,1.030545954,128,-7.274980816,-100871,58240,1777.34375,128
-8388608,-605.0000721,-15.88990937,-220321,14269,1.029103521,128,-7.268850478,-100786,58880,1796.875,128
-8388608,-605.0000721,-15.79290578,-218976,14970,1.079660783,128,-7.267119559,-100762,59520,1816.40625,128
-8388608,-605.0000721,-14.98514354,-207776,19488,1.405506302,128,-6.427984408,-89127,60160,1835.9375,128
-8388608,-605.0000721,-15.84829519,-219744,9181,0.662148674,128,-6.69952234,-92892,60800,1855.46875,128
-8388608,-605.0000721,-15.78987667,-218934,14726,1.062063105,128,-7.197305822,-99794,61440,1875,128
-8388608,-605.0000721,-15.79773793,-219043,14134,1.019367101,128,-7.240939407,-100399,62080,1894.53125,128
-8388608,-605.0000721,-15.8112968,-219231,14023,1.0113616,128,-7.228462366,-100226,62720,1914.0625,128
-8388608,-605.0000721,-15.82153807,-219373,14225,1.025930169,128,-7.199541593,-99825,63360,1933.59375,128
-8388608,-605.0000721,-15.81475864,-219279,14301,1.031411413,128,-7.177977226,-99526,64000,1953.125,128
-8388608,-605.0000721,-15.80805132,-219186,14436,1.041147833,128,-7.152734655,-99176,64640,1972.65625,128
-8388608,-605.0000721,-15.78987667,-218934,14442,1.041580563,128,-7.127924815,-98832,65280,1992.1875,128
-8388608,-605.0000721,-15.78857849,-218916,14444,1.041724806,128,-7.091070663,-98321,384,2011.71875,128
-8388608,-605.0000721,-15.75215706,-218411,14530,1.047927266,128,-7.006760479,-97152,1024,2031.25,128
-8388608,-605.0000721,-15.72821268,-218079,14414,1.039561157,128,-6.969762083,-96639,1664,2050.78125,128
-8388608,-605.0000721,-15.72366902,-218016,14191,1.023478034,128,-6.93507158,-96158,2304,2070.3125,128
-8388608,-605.0000721,-15.75331101,-218427,13994,1.009270073,128,-6.964352961,-96564,2944,2089.84375,128
-8388608,-605.0000721,-15.78627059,-218884,14020,1.011145235,128,-7.059553511,-97884,3584,2109.375,128
-8388608,-605.0000721,-15.80119977,-219091,14141,1.019871953,128,-7.115231409,-98656,4224,2128.90625,128
-8388608,-605.0000721,-15.82572112,-219431,14186,1.023117426,128,-7.164274116,-99336,4864,2148.4375,128
-8388608,-605.0000721,-15.83834241,-219606,14138,1.019655588,128,-7.182376645,-99587,5504,2167.96875,128
-8388608,-605.0000721,-15.85118006,-219784,14299,1.03126717,128,-7.203364039,-99878,6144,2187.5,128
-8388608,-605.0000721,-15.84418426,-219687,14270,1.029175643,128,-7.191680335,-99716,6784,2207.03125,128
-8388608,-605.0000721,-15.84829519,-219744,14169,1.021891358,128,-7.192906403,-99733,7424,2226.5625,128
-8388608,-605.0000721,-15.8176435,-219319,14310,1.032060508,128,-7.166293522,-99364,8064,2246.09375,128
-8388608,-605.0000721,-15.81670592,-219306,14144,1.020088317,128,-7.164634724,-99341,8704,2265.625,128
-8388608,-605.0000721,-15.79672823,-219029,14159,1.021170142,128,-7.16665413,-99369,9344,2285.15625,128
-8388608,-605.0000721,-15.79579065,-219016,14044,1.012876155,128,-7.17509236,-99486,9984,2304.6875,128
-8388608,-605.0000721,-15.79557428,-219013,14179,1.022612574,128,-7.182881496,-99594,10624,2324.21875,128
-8388608,-605.0000721,-15.78886697,-218920,14252,1.027877453,128,-7.177328131,-99517,11264,2343.75,128
-8388608,-605.0000721,-15.78590998,-218879,14323,1.032998089,128,-7.161028643,-99291,11904,2363.28125,128
-8388608,-605.0000721,-15.76326379,-218565,14208,1.024704102,128,-7.135569708,-98938,12544,2382.8125,128
-8388608,-605.0000721,-15.73275634,-218142,14454,1.042446022,128,-7.114582314,-98647,13184,2402.34375,128
-8388608,-605.0000721,-15.73787698,-218213,14045,1.012948276,128,-7.168529292,-99395,13824,2421.875,128
-8388608,-605.0000721,-15.76881716,-218642,13965,1.007178546,128,-7.202498579,-99866,14464,2441.40625,128
-8388608,-605.0000721,-15.81252287,-219248,14095,1.016554358,128,-7.211225296,-99987,15104,2460.9375,128
-8388608,-605.0000721,-15.81194589,-219240,14173,1.022179845,128,-7.222620514,-100145,15744,2480.46875,128
-8388608,-605.0000721,-15.82168231,-219375,14306,1.031772021,128,-7.220528987,-100116,16384,2500,128
-8388608,-605.0000721,-15.77090869,-218671,14530,1.047927266,128,-7.237693934,-100354,17024,2519.53125,128
-8388608,-605.0000721,-15.55461592,-215672,18265,1.31730155,128,-7.067198404,-97990,17664,2539.0625,128
-8388608,-605.0000721,-15.32216791,-212449,14588,1.052110321,128,-6.273644122,-86987,18304,2558.59375,128
-8388608,-605.0000721,-15.90656947,-220552,9829,0.708883489,128,-6.914877524,-95878,18944,2578.125,128
-8388608,-605.0000721,-15.71883687,-217949,14401,1.038623576,128,-7.209710742,-99966,19584,2597.65625,128
-8388608,-605.0000721,-15.74169943,-218266,14215,1.025208953,128,-7.196079754,-99777,20224,2617.1875,128
-8388608,-605.0000721,-15.74718067,-218342,14206,1.024559858,128,-7.184323929,-99614,20864,2636.71875,128
-8388608,-605.0000721,-15.74790189,-218352,14206,1.024559858,128,-7.157134075,-99237,21504,2656.25,128
-8388608,-605.0000721,-15.74775764,-218350,14321,1.032853846,128,-7.146099466,-99084,22144,2675.78125,128
-8388608,-605.0000721,-15.73686728,-218199,14243,1.027228359,128,-7.127492085,-98826,22784,2695.3125,128
-8388608,-605.0000721,-15.71890899,-217950,14364,1.035955076,128,-7.083714257,-98219,23424,2714.84375,128
-8388608,-605.0000721,-15.70246526,-217722,14464,1.043167239,128,-7.036690955,-97567,24064,2734.375,128
-8388608,-605.0000721,-15.73888668,-218227,14177,1.022468331,128,-6.97892153,-96766,24704,2753.90625,128
-8388608,-605.0000721,-15.74335822,-218289,14198,1.023982885,128,-6.940047972,-96227,25344,2773.4375,128
-8388608,-605.0000721,-15.75619587,-218467,14366,1.036099319,128,-6.959015961,-96490,25984,2792.96875,128
-8388608,-605.0000721,-15.77848146,-218776,14260,1.028454426,128,-6.988369463,-96897,26624,2812.5,128
-8388608,-605.0000721,-15.81923018,-219341,14032,1.012010695,128,-7.085445176,-98243,27264,2832.03125,128
-8388608,-605.0000721,-15.84266971,-219666,13972,1.007683397,128,-7.155980129,-99221,27904,2851.5625,128
-8388608,-605.0000721,-15.86452256,-219969,14083,1.015688898,128,-7.21447077,-100032,28544,2871.09375,128
-8388608,-605.0000721,-15.88118266,-220200,14021,1.011217357,128,-7.215624716,-100048,29184,2890.625,128
-8388608,-605.0000721,-15.88796209,-220294,14116,1.018068912,128,-7.214759256,-100036,29824,2910.15625,128
-8388608,-605.0000721,-15.89344333,-220370,14203,1.024343494,128,-7.203003431,-99873,30464,2929.6875,128
-8388608,-605.0000721,-15.8946694,-220387,14146,1.020232561,128,-7.218798067,-100092,31104,2949.21875,128
-8388608,-605.0000721,-15.88644754,-220273,14341,1.034296278,128,-7.210359837,-99975,31744,2968.75,128
-8388608,-605.0000721,-15.8679844,-220017,14271,1.029247764,128,-7.19766643,-99799,32384,2988.28125,128
-8388608,-605.0000721,-15.87555717,-220122,14258,1.028310183,128,-7.223053244,-100151,33024,3007.8125,128
-8388608,-605.0000721,-15.88046144,-220190,14104,1.017203452,128,-7.211513783,-99991,33664,3027.34375,128
-8388608,-605.0000721,-15.90289127,-220501,14104,1.017203452,128,-7.215768959,-100050,34304,3046.875,128
-8388608,-605.0000721,-15.90779554,-220569,14059,1.013957979,128,-7.20697012,-99928,34944,3066.40625,128
-8388608,-605.0000721,-15.9106804,-220609,14168,1.021819236,128,-7.237333326,-100349,35584,3085.9375,128
-8388608,-605.0000721,-15.91024767,-220603,14161,1.021314385,128,-7.180357239,-99559,36224,3105.46875,128
-8388608,-605.0000721,-15.8706529,-220054,14356,1.035378103,128,-7.158937116,-99262,36864,3125,128
-8388608,-605.0000721,-15.89481364,-220389,13946,1.005808235,128,-7.199613714,-99826,37504,3144.53125,128
-8388608,-605.0000721,-15.91702711,-220697,13866,1.000038505,128,-7.23661211,-100339,38144,3164.0625,128
-8388608,-605.0000721,-15.9930433,-221751,13928,1.004510046,128,-7.272384438,-100835,38784,3183.59375,128
-8388608,-605.0000721,-16.01251614,-222021,14181,1.022756818,128,-7.277721438,-100909,39424,3203.125,128
-8388608,-605.0000721,-16.02780593,-222233,14322,1.032925967,128,-7.28399602,-100996,40064,3222.65625,128
-8388608,-605.0000721,-16.03689325,-222359,14296,1.031050805,128,-7.290847575,-101091,40704,3242.1875,128
-8388608,-605.0000721,-15.93851935,-220995,15906,1.147166627,128,-7.259330423,-100654,41344,3261.71875,128
-8388608,-605.0000721,-15.20085933,-210767,19599,1.413511802,128,-6.365599199,-88262,41984,3281.25,128
-8388608,-605.0000721,-16.08362807,-223007,10369,0.747829169,128,-6.81772969,-94531,42624,3300.78125,128
-8388608,-605.0000721,-15.9503473,-221159,14809,1.068049201,128,-7.293443953,-101127,43264,3320.3125,128
-8388608,-605.0000721,-16.02117074,-222141,14030,1.011866452,128,-7.268201383,-100777,43904,3339.84375,128
-8388608,-605.0000721,-16.04792786,-222512,14219,1.02549744,128,-7.247213989,-100486,44544,3359.375,128
-8388608,-605.0000721,-16.05752004,-222645,14238,1.026867751,128,-7.230553893,-100255,45184,3378.90625,128
-8388608,-605.0000721,-16.07994987,-222956,14263,1.028670791,128,-7.233150272,-100291,45824,3398.4375,128
-8388608,-605.0000721,-16.07187224,-222844,14248,1.027588967,128,-7.20430162,-99891,46464,3417.96875,128
-8388608,-605.0000721,-16.07980562,-222954,14329,1.033430819,128,-7.190237902,-99696,47104,3437.5,128
-8388608,-605.0000721,-16.06617463,-222765,14115,1.01799679,128,-7.118476882,-98701,47744,3457.03125,128
-8388608,-605.0000721,-16.04208601,-222431,14323,1.032998089,128,-7.061572917,-97912,48384,3476.5625,128
-8388608,-605.0000721,-16.01489616,-222054,14324,1.033070211,128,-7.012097479,-97226,49024,3496.09375,128
-8388608,-605.0000721,-16.03559506,-222341,14200,1.024127129,128,-6.992336153,-96952,49664,3515.625,128
-8388608,-605.0000721,-16.05283213,-222580,13961,1.006890059,128,-7.004668952,-97123,50304,3535.15625,128
-8388608,-605.0000721,-16.08896507,-223081,13928,1.004510046,128,-7.129655734,-98856,50944,3554.6875,128
-8388608,-605.0000721,-16.11103429,-223387,14014,1.010712506,128,-7.191103362,-99708,51584,3574.21875,128
-8388608,-605.0000721,-16.11961676,-223506,13939,1.005303384,128,-7.247863084,-100495,52224,3593.75,128
-8388608,-605.0000721,-16.1347623,-223716,14121,1.01842952,128,-7.268345626,-100779,52864,3613.28125,128
-8388608,-605.0000721,-16.14384963,-223842,13900,1.00249064,128,-7.278298411,-100917,53504,3632.8125,128
-8388608,-605.0000721,-16.1320938,-223679,14188,1.023261669,128,-7.259546788,-100657,54144,3652.34375,128
-8388608,-605.0000721,-16.13418533,-223708,14173,1.022179845,128,-7.25918618,-100652,54784,3671.875,128
-8388608,-605.0000721,-16.13223805,-223681,14331,1.033575062,128,-7.258609207,-100644,55424,3691.40625,128
-8388608,-605.0000721,-16.11110641,-223388,14282,1.030041102,128,-7.261277707,-100681,56064,3710.9375,128
-8388608,-605.0000721,-16.09689845,-223191,14355,1.035305981,128,-7.254426152,-100586,56704,3730.46875,128
-8388608,-605.0000721,-16.08752264,-223061,14358,1.035522346,128,-7.266398342,-100752,57344,3750,128
-8388608,-605.0000721,-16.08853234,-223075,14258,1.028310183,128,-7.290342723,-101084,57984,3769.53125,128
-8388608,-605.0000721,-16.08247412,-222991,14329,1.033430819,128,-7.284645114,-101005,58624,3789.0625,128
-8388608,-605.0000721,-16.0653813,-222754,14361,1.035738711,128,-7.239569097,-100380,59264,3808.59375,128
-8388608,-605.0000721,-16.04922605,-222530,14640,1.055860645,128,-7.221538689,-100130,59904,3828.125,128
-8388608,-605.0000721,-15.98640811,-221659,14394,1.038118725,128,-7.206537391,-99922,60544,3847.65625,128
-8388608,-605.0000721,-16.01677132,-222080,14205,1.024487737,128,-7.271302613,-100820,61184,3867.1875,128
-8388608,-605.0000721,-16.03285444,-222303,14084,1.01576102,128,-7.302314914,-101250,61824,3886.71875,128
-8388608,-605.0000721,-16.08651293,-223047,14203,1.024343494,128,-7.319551983,-101489,62464,3906.25,128
-8388608,-605.0000721,-16.08384443,-223010,14118,1.018213155,128,-7.32517747,-101567,63104,3925.78125,128
-8388608,-605.0000721,-16.09098447,-223109,14275,1.029536251,128,-7.312916793,-101397,63744,3945.3125,128
-8388608,-605.0000721,-16.05146182,-222561,14667,1.057807929,128,-7.339746039,-101769,64384,3964.84375,128
-8388608,-605.0000721,-15.87447534,-220107,16870,1.216691877,128,-7.186992429,-99651,65024,3984.375,128
-8388608,-605.0000721,-15.4351825,-214016,11114,0.801559782,128,-6.350020927,-88046,128,4003.90625,128
-8388608,-605.0000721,-16.16714491,-224165,11653,0.84043334,128,-6.944231027,-96285,768,4023.4375,128
-8388608,-605.0000721,-15.98172021,-221594,14381,1.037181143,128,-7.313782253,-101409,1408,4042.96875,128
-8388608,-605.0000721,-16.00061607,-221856,13984,1.008548857,128,-7.266109856,-100748,2048,4062.5,128
-8388608,-605.0000721,-16.01258826,-222022,14323,1.032998089,128,-7.241804867,-100411,2688,4082.03125,128
-8388608,-605.0000721,-16.00595307,-221930,14379,1.0370369,128,-7.238631515,-100367,3328,4101.5625,128
-8388608,-605.0000721,-15.99845242,-221826,14523,1.047422415,128,-7.208340431,-99947,3968,4121.09375,128
-8388608,-605.0000721,-15.98712933,-221669,14358,1.035522346,128,-7.196151876,-99778,4608,4140.625,128
-8388608,-605.0000721,-15.97494077,-221500,14398,1.038407211,128,-7.160956521,-99290,5248,4160.15625,128
-8388608,-605.0000721,-15.94421696,-221074,14563,1.05030728,128,-7.078160891,-98142,5888,4179.6875,128
-8388608,-605.0000721,-15.91450285,-220662,14659,1.057230956,128,-7.029767278,-97471,6528,4199.21875,128
-8388608,-605.0000721,-15.89654456,-220413,14493,1.045258766,128,-6.97892153,-96766,7168,4218.75,128
-8388608,-605.0000721,-15.91983985,-220736,14164,1.02153075,128,-6.985412477,-96856,7808,4238.28125,128
-8388608,-605.0000721,-15.95215034,-221184,14261,1.028526548,128,-7.038277631,-97589,8448,4257.8125,128
-8388608,-605.0000721,-15.97883534,-221554,14261,1.028526548,128,-7.120424166,-98728,9088,4277.34375,128
-8388608,-605.0000721,-15.99462998,-221773,14310,1.032060508,128,-7.167158981,-99376,9728,4296.875,128
-8388608,-605.0000721,-16.0080446,-221959,14353,1.035161738,128,-7.212307121,-100002,10368,4316.40625,128
-8388608,-605.0000721,-16.02441621,-222186,14369,1.036315684,128,-7.222187784,-100139,11008,4335.9375,128
-8388608,-605.0000721,-16.03162837,-222286,14330,1.03350294,128,-7.217644121,-100076,11648,4355.46875,128
-8388608,-605.0000721,-16.03956175,-222396,14481,1.044393306,128,-7.215696837,-100049,12288,4375,128
-8388608,-605.0000721,-16.02463258,-222189,14523,1.047422415,128,-7.213749553,-100022,12928,4394.53125,128
-8388608,-605.0000721,-16.01453555,-222049,14647,1.056365497,128,-7.198748255,-99814,13568,4414.0625,128
-8388608,-605.0000721,-15.9860475,-221654,14583,1.051749712,128,-7.183097861,-99597,14208,4433.59375,128
-8388608,-605.0000721,-15.97256076,-221467,14428,1.04057086,128,-7.185910605,-99636,14848,4453.125,128
-8388608,-605.0000721,-15.98698509,-221667,14304,1.031627778,128,-7.185766361,-99634,15488,4472.65625,128
-8388608,-605.0000721,-15.9743638,-221492,14454,1.042446022,128,-7.178914807,-99539,16128,4492.1875,128
-8388608,-605.0000721,-15.96780073,-221401,14589,1.052182442,128,-7.164706846,-99342,16768,4511.71875,128
-8388608,-605.0000721,-15.93657207,-220968,14509,1.046412712,128,-7.123597517,-98772,17408,4531.25,128
-8388608,-605.0000721,-15.91911863,-220726,14508,1.04634059,128,-7.139608519,-98994,18048,4550.78125,128
-8388608,-605.0000721,-15.9370048,-220974,14249,1.027661088,128,-7.188651227,-99674,18688,4570.3125,128
-8388608,-605.0000721,-15.98539841,-221645,13966,1.007250667,128,-7.218725946,-100091,19328,4589.84375,128
-8388608,-605.0000721,-16.01857436,-222105,14178,1.022540453,128,-7.228534487,-100227,19968,4609.375,128
-8388608,-605.0000721,-16.01907921,-222112,14539,1.048576361,128,-7.228967217,-100233,20608,4628.90625,128
-8388608,-605.0000721,-16.03018594,-222266,14414,1.039561157,128,-7.229039339,-100234,21248,4648.4375,128
-8388608,-605.0000721,-15.95517945,-221226,14812,1.068265565,128,-7.254209787,-100583,21888,4667.96875,128
-8388608,-605.0000721,-15.58526761,-216097,19011,1.371104285,128,-6.920791497,-95960,22528,4687.5,128
-8388608,-605.0000721,-15.82341323,-219399,13544,0.97681534,128,-6.412694623,-88915,23168,4707.03125,128
-8388608,-605.0000721,-16.03934539,-222393,14081,1.015544655,128,-7.056235916,-97838,23808,4726.5625,128
-8388608,-605.0000721,-15.93476903,-220943,14313,1.032276873,128,-7.233366636,-100294,24448,4746.09375,128
-8388608,-605.0000721,-15.96188676,-221319,14399,1.038479333,128,-7.193916105,-99747,25088,4765.625,128
-8388608,-605.0000721,-15.96780073,-221401,14319,1.032709602,128,-7.180934212,-99567,25728,4785.15625,128
-8388608,-605.0000721,-15.97472441,-221497,14448,1.042013293,128,-7.161028643,-99291,26368,4804.6875,128
-8388608,-605.0000721,-15.98222506,-221601,14246,1.027444724,128,-7.155691642,-99217,27008,4824.21875,128
-8388608,-605.0000721,-15.96924317,-221421,14443,1.041652684,128,-7.126482383,-98812,27648,4843.75,128
-8388608,-605.0000721,-15.96347343,-221341,14426,1.040426617,128,-7.098643434,-98426,28288,4863.28125,128
-8388608,-605.0000721,-15.93678843,-220971,14386,1.037541752,128,-7.028396967,-97452,28928,4882.8125,128
-8388608,-605.0000721,-15.90887736,-220584,14552,1.049513942,128,-6.946034067,-96310,29568,4902.34375,128
-8388608,-605.0000721,-15.89661668,-220414,14357,1.035450224,128,-6.91603147,-95894,30208,4921.875,128
-8388608,-605.0000721,-15.93303811,-220919,14223,1.025785926,128,-6.934783093,-96154,30848,4941.40625,128
-8388608,-605.0000721,-15.956694,-221247,14089,1.016121628,128,-6.992119788,-96949,31488,4960.9375,128
-8388608,-605.0000721,-15.99931788,-221838,14273,1.029392008,128,-7.111336841,-98602,32128,4980.46875,128
-8388608,-605.0000721,-16.02210832,-222154,14226,1.026002291,128,-7.159441967,-99269,32768,5000,128
-8388608,-605.0000721,-16.05023575,-222544,14367,1.036171441,128,-7.204590107,-99895,33408,5019.53125,128
-8388608,-605.0000721,-16.0657419,-222759,14187,1.023189547,128,-7.202570701,-99867,34048,5039.0625,128
-8388608,-605.0000721,-16.0700692,-222819,14381,1.037181143,128,-7.214254405,-100029,34688,5058.59375,128
-8388608,-605.0000721,-16.08153654,-222978,14526,1.04763878,128,-7.203291917,-99877,35328,5078.125,128
-8388608,-605.0000721,-16.06098188,-222693,14667,1.057807929,128,-7.204445863,-99893,35968,5097.65625,128
-8388608,-605.0000721,-16.06018854,-222682,14498,1.045619374,128,-7.201993728,-99859,36608,5117.1875,128
-8388608,-605.0000721,-16.04540361,-222477,14606,1.05340851,128,-7.198604011,-99812,37248,5136.71875,128
-8388608,-605.0000721,-16.04028297,-222406,14671,1.058096416,128,-7.211874391,-99996,37888,5156.25,128
-8388608,-605.0000721,-16.05340911,-222588,14391,1.03790236,128,-7.207042242,-99929,38528,5175.78125,128
-8388608,-605.0000721,-16.05975581,-222676,14474,1.043888455,128,-7.225865987,-100190,39168,5195.3125,128
-8388608,-605.0000721,-16.06653524,-222770,14498,1.045619374,128,-7.228678731,-100229,39808,5214.84375,128
-8388608,-605.0000721,-16.04280723,-222441,14630,1.055139429,128,-7.179780266,-99551,40448,5234.375,128
-8388608,-605.0000721,-15.99628878,-221796,14758,1.064370997,128,-7.144729155,-99065,41088,5253.90625,128
-8388608,-605.0000721,-15.99592817,-221791,14433,1.040931468,128,-7.184396051,-99615,41728,5273.4375,128
-8388608,-605.0000721,-16.03408051,-222320,14176,1.02239621,128,-7.237910299,-100357,42368,5292.96875,128
-8388608,-605.0000721,-16.08593596,-223039,13931,1.00472641,128,-7.258897693,-100648,43008,5312.5,128
-8388608,-605.0000721,-16.10829367,-223349,14096,1.016626479,128,-7.28313056,-100984,43648,5332.03125,128
-8388608,-605.0000721,-16.11478461,-223439,14184,1.022973183,128,-7.285654817,-101019,44288,5351.5625,128
-8388608,-605.0000721,-16.12668468,-223604,14206,1.024559858,128,-7.273538384,-100851,44928,5371.09375,128
-8388608,-605.0000721,-16.02859927,-222244,15148,1.092498433,128,-7.286808763,-101035,45568,5390.625,128
-8388608,-605.0000721,-15.46201175,-214388,19693,1.420291235,128,-6.825302461,-94636,46208,5410.15625,128
-8388608,-605.0000721,-16.08023835,-222960,8846,0.637987928,128,-6.758445711,-93709,46848,5429.6875,128
-8388608,-605.0000721,-16.03415263,-222321,14559,1.050018793,128,-7.244040637,-100442,47488,5449.21875,128
-8388608,-605.0000721,-16.06141461,-222699,13928,1.004510046,128,-7.273177776,-100846,48128,5468.75,128
-8388608,-605.0000721,-16.07569469,-222897,14261,1.028526548,128,-7.246853381,-100481,48768,5488.28125,128
-8388608,-605.0000721,-16.08124805,-222974,14278,1.029752616,128,-7.232140569,-100277,49408,5507.8125,128
-8388608,-605.0000721,-16.0860802,-223041,14405,1.038912063,128,-7.216562297,-100061,50048,5527.34375,128
-8388608,-605.0000721,-16.09495116,-223164,14348,1.03480113,128,-7.213316824,-100016,50688,5546.875,128
-8388608,-605.0000721,-16.08629657,-223044,14380,1.037109022,128,-7.187353037,-99656,51328,5566.40625,128
-8388608,-605.0000721,-16.07569469,-222897,14551,1.04944182,128,-7.161100764,-99292,51968,5585.9375,128
-8388608,-605.0000721,-16.03227747,-222295,14659,1.057230956,128,-7.071814188,-98054,52608,5605.46875,128
-8388608,-605.0000721,-16.01828587,-222101,14593,1.052470929,128,-7.014189007,-97255,53248,5625,128
-8388608,-605.0000721,-16.02232468,-222157,14425,1.040354495,128,-6.99219191,-96950,53888,5644.53125,128
-8388608,-605.0000721,-16.04100419,-222416,14391,1.03790236,128,-7.010005952,-97197,54528,5664.0625,128
-8388608,-605.0000721,-16.06559766,-222757,14302,1.031483535,128,-7.073472985,-98077,55168,5683.59375,128
-8388608,-605.0000721,-16.10670699,-223327,14359,1.035594468,128,-7.18302574,-99596,55808,5703.125,128
-8388608,-605.0000721,-16.12343921,-223559,14328,1.033358697,128,-7.250675827,-100534,56448,5722.65625,128
-8388608,-605.0000721,-16.13988294,-223787,14491,1.045114523,128,-7.273682627,-100853,57088,5742.1875,128
-8388608,-605.0000721,-16.15373029,-223979,14505,1.046124225,128,-7.272095951,-100831,57728,5761.71875,128
-8388608,-605.0000721,-16.14500357,-223858,14477,1.04410482,128,-7.285943304,-101023,58368,5781.25,128
-8388608,-605.0000721,-16.16058185,-224074,14417,1.039777522,128,-7.290775453,-101090,59008,5800.78125,128
-8388608,-605.0000721,-16.17248192,-224239,14426,1.040426617,128,-7.280966911,-100954,59648,5820.3125,128
-8388608,-605.0000721,-16.16296186,-224107,14684,1.059033997,128,-7.273754749,-100854,60288,5839.84375,128
-8388608,-605.0000721,-16.15315332,-223971,14719,1.061558254,128,-7.281255398,-100958,60928,5859.375,128
-8388608,-605.0000721,-16.15358605,-223977,14654,1.056870348,128,-7.288611804,-101060,61568,5878.90625,128
-8388608,-605.0000721,-16.15098967,-223941,14613,1.053913361,128,-7.29596821,-101162,62208,5898.4375,128
-8388608,-605.0000721,-16.1497636,-223924,14616,1.054129726,128,-7.293588196,-101129,62848,5917.96875,128
-8388608,-605.0000721,-16.13995506,-223788,14572,1.050956375,128,-7.266614707,-100755,63488,5937.5,128
-8388608,-605.0000721,-16.11622704,-223459,14537,1.048432118,128,-7.246997624,-100483,64128,5957.03125,128
-8388608,-605.0000721,-16.08103169,-222971,14581,1.051605469,128,-7.229904798,-100246,64768,5976.5625,128
-8388608,-605.0000721,-16.10800518,-223345,14296,1.031050805,128,-7.28132752,-100959,65408,5996.09375,128
-8388608,-605.0000721,-16.17760255,-224310,13989,1.008909465,128,-7.309887685,-101355,512,6015.625,128
-8388608,-605.0000721,-16.20053723,-224628,14294,1.030906562,128,-7.321931997,-101522,1152,6035.15625,128
-8388608,-605.0000721,-16.21921673,-224887,14462,1.043022995,128,-7.320489564,-101502,1792,6054.6875,128
-8388608,-605.0000721,-16.23364106,-225087,14214,1.025136831,128,-7.340827863,-101784,2432,6074.21875,128
-8388608,-605.0000721,-16.18863716,-224463,14932,1.076920161,128,-7.363113447,-102093,3072,6093.75,128
-8388608,-605.0000721,-15.85557948,-219845,17652,1.273090991,128,-7.099725258,-98441,3712,6113.28125,128
-8388608,-605.0000721,-15.3861398,-213336,16222,1.169957062,128,-6.385793255,-88542,4352,6132.8125,128
-8388608,-605.0000721,-16.28643409,-225819,12644,0.911905874,128,-7.118693247,-98704,4992,6152.34375,128
-8388608,-605.0000721,-16.12827136,-223626,14643,1.05607701,128,-7.335562984,-101711,5632,6171.875,128
-8388608,-605.0000721,-16.18993535,-224481,14096,1.016626479,128,-7.310176171,-101359,6272,6191.40625,128
-8388608,-605.0000721,-16.17248192,-224239,14367,1.036171441,128,-7.275774154,-100882,6912,6210.9375,128
-8388608,-605.0000721,-16.18870928,-224464,14381,1.037181143,128,-7.260268004,-100667,7552,6230.46875,128
-8388608,-605.0000721,-16.18806019,-224455,14389,1.037758116,128,-7.254065544,-100581,8192,6250,128
-8388608,-605.0000721,-16.18019893,-224346,14617,1.054201848,128,-7.220168378,-100111,8832,6269.53125,128
-8388608,-605.0000721,-16.17096736,-224218,14379,1.0370369,128,-7.202714944,-99869,9472,6289.0625,128
-8388608,-605.0000721,-16.15062906,-223936,14512,1.046629077,128,-7.144296425,-99059,10112,6308.59375,128
-8388608,-605.0000721,-16.10786094,-223343,14559,1.050018793,128,-7.051908618,-97778,10752,6328.125,128
-8388608,-605.0000721,-16.09242691,-223129,14506,1.046196347,128,-7.01346779,-97245,11392,6347.65625,128
-8388608,-605.0000721,-16.13065137,-223659,14113,1.017852547,128,-7.038854604,-97597,12032,6367.1875,128
-8388608,-605.0000721,-16.16252913,-224101,14144,1.020088317,128,-7.092224609,-98337,12672,6386.71875,128
-8388608,-605.0000721,-16.20169117,-224644,14194,1.023694399,128,-7.182809375,-99593,13312,6406.25,128
-8388608,-605.0000721,-16.2224622,-224932,14186,1.023117426,128,-7.231563596,-100269,13952,6425.78125,128
-8388608,-605.0000721,-16.24691144,-225271,14384,1.037397508,128,-7.249377638,-100516,14592,6445.3125,128
-8388608,-605.0000721,-16.2611194,-225468,14538,1.048504239,128,-7.257166774,-100624,15232,6464.84375,128
-8388608,-605.0000721,-16.27922193,-225719,14389,1.037758116,128,-7.264667423,-100728,15872,6484.375,128
-8388608,-605.0000721,-16.2781401,-225704,14401,1.038623576,128,-7.272456559,-100836,16512,6503.90625,128
-8388608,-605.0000721,-16.27922193,-225719,14513,1.046701198,128,-7.249954611,-100524,17152,6523.4375,128
-8388608,-605.0000721,-16.24640658,-225264,14628,1.054995186,128,-7.230770258,-100258,17792,6542.96875,128
-8388608,-605.0000721,-16.23551622,-225113,14690,1.059466727,128,-7.233438758,-100295,18432,6562.5,128
-8388608,-605.0000721,-16.24431506,-225235,14489,1.044970279,128,-7.229688433,-100243,19072,6582.03125,128
-8388608,-605.0000721,-16.25181571,-225339,14369,1.036315684,128,-7.243824273,-100439,19712,6601.5625,128
-8388608,-605.0000721,-16.24950781,-225307,14446,1.041869049,128,-7.242309718,-100418,20352,6621.09375,128
-8388608,-605.0000721,-16.23594895,-225119,14516,1.046917563,128,-7.229904798,-100246,20992,6640.625,128
-8388608,-605.0000721,-16.25369087,-225365,14264,1.028742913,128,-7.198459768,-99810,21632,6660.15625,128
-8388608,-605.0000721,-16.19534447,-224556,14624,1.054706699,128,-7.184179686,-99612,22272,6679.6875,128
-8388608,-605.0000721,-16.21474519,-224825,14374,1.036676292,128,-7.220384743,-100114,22912,6699.21875,128
-8388608,-605.0000721,-16.26191273,-225479,14059,1.013957979,128,-7.267552288,-100768,23552,6718.75,128
-8388608,-605.0000721,-16.29400686,-225924,14153,1.020737412,128,-7.28623179,-101027,24192,6738.28125,128
-8388608,-605.0000721,-16.31023423,-226149,14246,1.027444724,128,-7.299213684,-101207,24832,6757.8125,128
-8388608,-605.0000721,-16.31622032,-226232,14349,1.034873251,128,-7.290847575,-101091,25472,6777.34375,128
-8388608,-605.0000721,-16.31650881,-226236,14527,1.047710901,128,-7.298492467,-101197,26112,6796.875,128
-8388608,-605.0000721,-15.95453035,-221217,17264,1.245107799,128,-7.027892116,-97445,26752,6816.40625,128
-8388608,-605.0000721,-15.57019419,-215888,16230,1.170534035,128,-6.320811668,-87641,27392,6835.9375,128
-8388608,-605.0000721,-16.39627533,-227342,12450,0.897914278,128,-7.075059661,-98099,28032,6855.46875,128
-8388608,-605.0000721,-16.24597385,-225258,14626,1.054850942,128,-7.304190076,-101276,28672,6875,128
-8388608,-605.0000721,-16.2584509,-225431,14396,1.038262968,128,-7.25478676,-100591,29312,6894.53125,128
-8388608,-605.0000721,-16.27338007,-225638,14389,1.037758116,128,-7.230842379,-100259,29952,6914.0625,128
-8388608,-605.0000721,-16.2867947,-225824,14342,1.0343684,128,-7.210864688,-99982,30592,6933.59375,128
-8388608,-605.0000721,-16.26876429,-225574,14525,1.047566658,128,-7.191824578,-99718,31232,6953.125,128
-8388608,-605.0000721,-16.25722483,-225414,14398,1.038407211,128,-7.168024441,-99388,31872,6972.65625,128
-8388608,-605.0000721,-16.23775199,-225144,14365,1.036027197,128,-7.113428368,-98631,32512,6992.1875,128
-8388608,-605.0000721,-16.22484222,-224965,14456,1.042590266,128,-7.08299304,-98209,33152,7011.71875,128
-8388608,-605.0000721,-16.17753043,-224309,14444,1.041724806,128,-6.97358453,-96692,33792,7031.25,128
-8388608,-605.0000721,-16.1737801,-224257,14352,1.035089616,128,-6.970627543,-96651,34432,7050.78125,128
-8388608,-605.0000721,-16.1894305,-224474,14187,1.023189547,128,-6.969762083,-96639,35072,7070.3125,128
-8388608,-605.0000721,-16.22960225,-225031,13955,1.00645733,128,-7.024718764,-97401,35712,7089.84375,128
-8388608,-605.0000721,-16.25859514,-225433,13994,1.009270073,128,-7.09359492,-98356,36352,7109.375,128
-8388608,-605.0000721,-16.29984871,-226005,14061,1.014102222,128,-7.181943915,-99581,36992,7128.90625,128
-8388608,-605.0000721,-16.31708578,-226244,14177,1.022468331,128,-7.208845283,-99954,37632,7148.4375,128
-8388608,-605.0000721,-16.34290532,-226602,14267,1.028959278,128,-7.240434556,-100392,38272,7167.96875,128
-8388608,-605.0000721,-16.34730474,-226663,14441,1.041508441,128,-7.242526083,-100421,38912,7187.5,128
-8388608,-605.0000721,-16.34773747,-226669,14394,1.038118725,128,-7.244112759,-100443,39552,7207.03125,128
-8388608,-605.0000721,-16.34788172,-226671,14349,1.034873251,128,-7.243319421,-100432,40192,7226.5625,128
-8388608,-605.0000721,-16.31823973,-226260,14498,1.045619374,128,-7.223990825,-100164,40832,7246.09375,128
-8388608,-605.0000721,-16.3161482,-226231,14368,1.036243562,128,-7.221322324,-100127,41472,7265.625,128
-8388608,-605.0000721,-16.30150751,-226028,14532,1.048071509,128,-7.245194584,-100458,42112,7285.15625,128
-8388608,-605.0000721,-16.30359904,-226057,14446,1.041869049,128,-7.236251502,-100334,42752,7304.6875,128
-8388608,-605.0000721,-16.31174878,-226170,14383,1.037325387,128,-7.247646719,-100492,43392,7324.21875,128
-8388608,-605.0000721,-16.32018701,-226287,14360,1.035666589,128,-7.254498274,-100587,44032,7343.75,128
-8388608,-605.0000721,-16.30251721,-226042,14374,1.036676292,128,-7.214254405,-100029,44672,7363.28125,128
-8388608,-605.0000721,-16.26566306,-225531,14601,1.053047902,128,-7.211730148,-99994,45312,7382.8125,128
-8388608,-605.0000721,-16.26854792,-225571,14223,1.025785926,128,-7.227380541,-100211,45952,7402.34375,128
-8388608,-605.0000721,-16.28116921,-225746,14228,1.026146534,128,-7.28132752,-100959,46592,7421.875,128
-8388608,-605.0000721,-16.34968476,-226696,13929,1.004582167,128,-7.317965307,-101467,47232,7441.40625,128
-8388608,-605.0000721,-16.35855572,-226819,14220,1.025569561,128,-7.328062335,-101607,47872,7460.9375,128
-8388608,-605.0000721,-16.37110488,-226993,14353,1.035161738,128,-7.338303606,-101749,48512,7480.46875,128
-8388608,-605.0000721,-16.376514,-227068,14266,1.028887156,128,-7.342053931,-101801,49152,7500,128
-8388608,-605.0000721,-16.30626754,-226094,15349,1.10699488,128,-7.36325769,-102095,49792,7519.53125,128
-8388608,-605.0000721,-15.49944288,-214907,19669,1.418560316,128,-6.571794936,-91121,50432,7539.0625,128
-8388608,-605.0000721,-16.22051492,-224905,9833,0.709171976,128,-6.653076011,-92248,51072,7558.59375,128
-8388608,-605.0000721,-16.23688653,-225132,14706,1.060620673,128,-7.366070433,-102134,51712,7578.125,128
-8388608,-605.0000721,-16.31153242,-226167,13889,1.001697302,128,-7.345155161,-101844,52352,7597.65625,128
-8388608,-605.0000721,-16.33872227,-226544,14138,1.019655588,128,-7.323590794,-101545,52992,7617.1875,128
-8388608,-605.0000721,-16.34723262,-226662,14221,1.025641683,128,-7.306497968,-101308,53632,7636.71875,128
-8388608,-605.0000721,-16.35098295,-226714,14253,1.027949575,128,-7.312916793,-101397,54272,7656.25,128
-8388608,-605.0000721,-16.33843378,-226540,14234,1.026579264,128,-7.288179074,-101054,54912,7675.78125,128
-8388608,-605.0000721,-16.34391503,-226616,14197,1.023910764,128,-7.288323318,-101056,55552,7695.3125,128
-8388608,-605.0000721,-16.32054762,-226292,14311,1.032132629,128,-7.235169677,-100319,56192,7714.84375,128
-8388608,-605.0000721,-16.31059483,-226154,14304,1.031627778,128,-7.187353037,-99656,56832,7734.375,128
-8388608,-605.0000721,-16.25974909,-225449,14501,1.045835739,128,-7.093234312,-98351,57472,7753.90625,128
-8388608,-605.0000721,-16.26104728,-225467,14397,1.038335089,128,-7.100302231,-98449,58112,7773.4375,128
-8388608,-605.0000721,-16.29516081,-225940,14238,1.026867751,128,-7.141988533,-99027,58752,7792.96875,128
-8388608,-605.0000721,-16.32437007,-226345,14064,1.014318587,128,-7.209782864,-99967,59392,7812.5,128
-8388608,-605.0000721,-16.35235326,-226733,14197,1.023910764,128,-7.293804561,-101132,60032,7832.03125,128
-8388608,-605.0000721,-16.37168185,-227001,14158,1.02109802,128,-7.365854069,-102131,60672,7851.5625,128
-8388608,-605.0000721,-16.3861783,-227202,14199,1.024055007,128,-7.38539903,-102402,61312,7871.09375,128
-8388608,-605.0000721,-16.37997584,-227116,14321,1.032853846,128,-7.387706922,-102434,61952,7890.625,128
-8388608,-605.0000721,-16.39425592,-227314,14259,1.028382305,128,-7.398885774,-102589,62592,7910.15625,128
-8388608,-605.0000721,-16.37961523,-227111,14426,1.040426617,128,-7.392250585,-102497,63232,7929.6875,128
-8388608,-605.0000721,-16.38365404,-227167,14311,1.032132629,128,-7.393476652,-102514,63872,7949.21875,128
-8388608,-605.0000721,-16.3825001,-227151,14269,1.029103521,128,-7.397154855,-102565,64512,7968.75,128
-8388608,-605.0000721,-16.36007027,-226840,14370,1.036387806,128,-7.395856666,-102547,65152,7988.28125,128
-8388608,-605.0000721,-16.35184841,-226726,14604,1.053264267,128,-7.39426999,-102525,256,8007.8125,128
-8388608,-605.0000721,-16.35192053,-226727,14348,1.03480113,128,-7.403790045,-102657,896,8027.34375,128
-8388608,-605.0000721,-16.35466115,-226765,14332,1.033647184,128,-7.408189465,-102718,1536,8046.875,128
-8388608,-605.0000721,-16.3321592,-226453,14586,1.051966077,128,-7.372921988,-102229,2176,8066.40625,128
-8388608,-605.0000721,-16.32263915,-226321,14527,1.047710901,128,-7.363113447,-102093,2816,8085.9375,128
-8388608,-605.0000721,-16.26955763,-225585,14556,1.049802428,128,-7.340539377,-101780,3456,8105.46875,128
-8388608,-605.0000721,-16.29588202,-225950,14278,1.029752616,128,-7.395351815,-102540,4096,8125,128
-8388608,-605.0000721,-16.3171579,-226245,14062,1.014174344,128,-7.416627695,-102835,4736,8144.53125,128
-8388608,-605.0000721,-16.3718261,-227003,14276,1.029608372,128,-7.444683009,-103224,5376,8164.0625,128
-8388608,-605.0000721,-16.37485521,-227045,14343,1.034440522,128,-7.457809145,-103406,6016,8183.59375,128
-8388608,-605.0000721,-16.38509648,-227187,14308,1.031916265,128,-7.451678807,-103321,6656,8203.125,128
-8388608,-605.0000721,-16.36338787,-226886,14567,1.050595766,128,-7.474541363,-103638,7296,8222.65625,128
-8388608,-605.0000721,-15.88074993,-220194,17479,1.260613949,128,-7.125328437,-98796,7936,8242.1875,128
-8388608,-605.0000721,-15.63863762,-216837,16633,1.199599051,128,-6.512510957,-90299,8576,8261.71875,128
-8388608,-605.0000721,-16.43933194,-227939,12454,0.898202765,128,-7.103114975,-98488,9216,8281.25,128
-8388608,-605.0000721,-16.26833156,-225568,14342,1.0343684,128,-7.452111537,-103327,9856,8300.78125,128
-8388608,-605.0000721,-16.30633966,-226095,14241,1.027084115,128,-7.43545144,-103096,10496,8320.3125,128
-8388608,-605.0000721,-16.31665305,-226238,14314,1.032348994,128,-7.407035519,-102702,11136,8339.84375,128
-8388608,-605.0000721,-16.30951301,-226139,14464,1.043167239,128,-7.386769341,-102421,11776,8359.375,128
-8388608,-605.0000721,-16.31867246,-226266,14453,1.042373901,128,-7.383812354,-102380,12416,8378.90625,128
-8388608,-605.0000721,-16.30468086,-226072,14632,1.055283672,128,-7.359867973,-102048,13056,8398.4375,128
-8388608,-605.0000721,-16.28650621,-225820,14594,1.05254305,128,-7.323807159,-101548,13696,8417.96875,128
-8388608,-605.0000721,-16.26559094,-225530,14759,1.064443119,128,-7.260195882,-100666,14336,8437.5,128
-8388608,-605.0000721,-16.22852042,-225016,14868,1.072304377,128,-7.196512484,-99783,14976,8457.03125,128
-8388608,-605.0000721,-16.197436,-224585,14854,1.071294674,128,-7.156196494,-99224,15616,8476.5625,128
-8388608,-605.0000721,-16.21157184,-224781,14384,1.037397508,128,-7.161100764,-99292,16256,8496.09375,128
-8388608,-605.0000721,-16.24049261,-225182,14205,1.024487737,128,-7.212162878,-100000,16896,8515.625,128
-8388608,-605.0000721,-16.26761034,-225558,14078,1.01532829,128,-7.298203981,-101193,17536,8535.15625,128
-8388608,-605.0000721,-16.30107478,-226022,14200,1.024127129,128,-7.378835962,-102311,18176,8554.6875,128
-8388608,-605.0000721,-16.32069186,-226294,14233,1.026507142,128,-7.409127046,-102731,18816,8574.21875,128
-8388608,-605.0000721,-16.32235066,-226317,14410,1.039272671,128,-7.412949492,-102784,19456,8593.75,128
-8388608,-605.0000721,-16.33432285,-226483,14438,1.041292076,128,-7.416988303,-102840,20096,8613.28125,128
-8388608,-605.0000721,-16.33785681,-226532,14401,1.038623576,128,-7.423551372,-102931,20736,8632.8125,128
-8388608,-605.0000721,-16.33064465,-226432,14415,1.039633279,128,-7.402924586,-102645,21376,8652.34375,128
-8388608,-605.0000721,-16.32537977,-226359,14333,1.033719305,128,-7.413165857,-102787,22016,8671.875,128
-8388608,-605.0000721,-16.30244509,-226041,14521,1.047278171,128,-7.393693017,-102517,22656,8691.40625,128
-8388608,-605.0000721,-16.29263655,-225905,14500,1.045763617,128,-7.383235381,-102372,23296,8710.9375,128
-8388608,-605.0000721,-16.28917471,-225857,14649,1.05650974,128,-7.404294897,-102664,23936,8730.46875,128
-8388608,-605.0000721,-16.28650621,-225820,14566,1.050523645,128,-7.405809451,-102685,24576,8750,128
-8388608,-605.0000721,-16.28535226,-225804,14609,1.053624875,128,-7.383884476,-102381,25216,8769.53125,128
-8388608,-605.0000721,-16.2621291,-225482,14503,1.045979982,128,-7.368306204,-102165,25856,8789.0625,128
-8388608,-605.0000721,-16.22924164,-225026,14446,1.041869049,128,-7.33051447,-101641,26496,8808.59375,128
-8388608,-605.0000721,-16.25087813,-225326,14321,1.032853846,128,-7.392394828,-102499,27136,8828.125,128
-8388608,-605.0000721,-16.28982381,-225866,14001,1.009774924,128,-7.438336305,-103136,27776,8847.65625,128
-8388608,-605.0000721,-16.31759063,-226251,14136,1.019511344,128,-7.424056223,-102938,28416,8867.1875,128
-8388608,-605.0000721,-16.33691923,-226519,14086,1.015905263,128,-7.463074024,-103479,29056,8886.71875,128
-8388608,-605.0000721,-16.34968476,-226696,14338,1.034079913,128,-7.450741226,-103308,29696,8906.25,128
-8388608,-605.0000721,-16.3091524,-226134,14623,1.054634578,128,-7.480238972,-103717,30336,8925.78125,128
-8388608,-605.0000721,-16.09415783,-223153,18580,1.340019863,128,-7.294886386,-101147,30976,8945.3125,128
-8388608,-605.0000721,-15.903324,-220507,14204,1.024415615,128,-6.538474743,-90659,31616,8964.84375,128
-8388608,-605.0000721,-16.46277147,-228264,13896,1.002202153,128,-7.174299022,-99475,32256,8984.375,128
-8388608,-605.0000721,-16.27576009,-225671,14479,1.044249063,128,-7.452400023,-103331,32896,9003.90625,128
-8388608,-605.0000721,-16.28737167,-225832,14218,1.025425318,128,-7.430907778,-103033,33536,9023.4375,128
-8388608,-605.0000721,-16.30071417,-226017,14182,1.022828939,128,-7.415257384,-102816,34176,9042.96875,128
-8388608,-605.0000721,-16.31117181,-226162,14004,1.009991289,128,-7.396577882,-102557,34816,9062.5,128
-8388608,-605.0000721,-16.30720512,-226107,14314,1.032348994,128,-7.376672313,-102281,35456,9082.03125,128
-8388608,-605.0000721,-16.30085841,-226019,14224,1.025858048,128,-7.36282496,-102089,36096,9101.5625,128
-8388608,-605.0000721,-16.28866986,-225850,14412,1.039416914,128,-7.329937497,-101633,36736,9121.09375,128
-8388608,-605.0000721,-16.26739398,-225555,14333,1.033719305,128,-7.265821369,-100744,37376,9140.625,128
-8388608,-605.0000721,-16.23472288,-225102,14386,1.037541752,128,-7.203003431,-99873,38016,9160.15625,128
-8388608,-605.0000721,-16.22686162,-224993,14215,1.025208953,128,-7.162110467,-99306,38656,9179.6875,128
-8388608,-605.0000721,-16.24842599,-225292,14034,1.012154938,128,-7.187353037,-99656,39296,9199.21875,128
-8388608,-605.0000721,-16.27734676,-225693,13966,1.007250667,128,-7.230986623,-100261,39936,9218.75,128
-8388608,-605.0000721,-16.32718281,-226384,13939,1.005303384,128,-7.327773849,-101603,40576,9238.28125,128
-8388608,-605.0000721,-16.35329084,-226746,13986,1.0086931,128,-7.379917786,-102326,41216,9257.8125,128
-8388608,-605.0000721,-16.3781728,-227091,13956,1.006529451,128,-7.429753832,-103017,41856,9277.34375,128
-8388608,-605.0000721,-16.39194803,-227282,14022,1.011289479,128,-7.449731523,-103294,42496,9296.875,128
-8388608,-605.0000721,-16.41293543,-227573,14012,1.010568262,128,-7.445909076,-103241,43136,9316.40625,128
-8388608,-605.0000721,-16.41206997,-227561,14176,1.02239621,128,-7.452832753,-103337,43776,9335.9375,128
-8388608,-605.0000721,-16.39656382,-227346,14180,1.022684696,128,-7.453265483,-103343,44416,9355.46875,128
-8388608,-605.0000721,-16.3888468,-227239,14336,1.03393567,128,-7.446630293,-103251,45056,9375,128
-8388608,-605.0000721,-16.36901335,-226964,14336,1.03393567,128,-7.426724723,-102975,45696,9394.53125,128
-8388608,-605.0000721,-16.3771631,-227077,14199,1.024055007,128,-7.443384819,-103206,46336,9414.0625,128
-8388608,-605.0000721,-16.38538496,-227191,14148,1.020376804,128,-7.430475048,-103027,46976,9433.59375,128
-8388608,-605.0000721,-16.38992863,-227254,14274,1.029464129,128,-7.463506754,-103485,47616,9453.125,128
-8388608,-605.0000721,-16.38899104,-227241,14318,1.032637481,128,-7.464300092,-103496,48256,9472.65625,128
-8388608,-605.0000721,-16.381851,-227142,14273,1.029392008,128,-7.433287791,-103066,48896,9492.1875,128
-8388608,-605.0000721,-16.38228373,-227148,14178,1.022540453,128,-7.436100535,-103105,49536,9511.71875,128
-8388608,-605.0000721,-16.32920221,-226412,14369,1.036315684,128,-7.412011911,-102771,50176,9531.25,128
-8388608,-605.0000721,-16.37211458,-227007,14179,1.022612574,128,-7.480815945,-103725,50816,9550.78125,128
-8388608,-605.0000721,-16.38221161,-227147,13934,1.004942775,128,-7.507573069,-104096,51456,9570.3125,128
-8388608,-605.0000721,-16.45483809,-228154,14031,1.011938573,128,-7.545941776,-104628,52096,9589.84375,128
-8388608,-605.0000721,-16.4551987,-228159,14173,1.022179845,128,-7.545076316,-104616,52736,9609.375,128
-8388608,-605.0000721,-16.46983939,-228362,14304,1.031627778,128,-7.551999992,-104712,53376,9628.90625,128
-8388608,-605.0000721,-16.44524592,-228021,14509,1.046412712,128,-7.570679494,-104971,54016,9648.4375,128
-8388608,-605.0000721,-16.26696125,-225549,17270,1.245540529,128,-7.423335007,-102928,54656,9667.96875,128
-8388608,-605.0000721,-15.85875283,-219889,16623,1.198877835,128,-6.595955681,-91456,55296,9687.5,128
-8388608,-605.0000721,-16.56215508,-229642,12598,0.908588279,128,-7.26409045,-100720,55936,9707.03125,128
-8388608,-605.0000721,-16.38134615,-227135,14533,1.048143631,128,-7.554019398,-104740,56576,9726.5625,128
-8388608,-605.0000721,-16.40795903,-227504,14306,1.031772021,128,-7.534690801,-104472,57216,9746.09375,128
-8388608,-605.0000721,-16.42656641,-227762,14428,1.04057086,128,-7.523295584,-104314,57856,9765.625,128
-8388608,-605.0000721,-16.41848879,-227650,14541,1.048720604,128,-7.514496745,-104192,58496,9785.15625,128
-8388608,-605.0000721,-16.43334585,-227856,14408,1.039128427,128,-7.512333097,-104162,59136,9804.6875,128
-8388608,-605.0000721,-16.42036395,-227676,14372,1.036532049,128,-7.475983796,-103658,59776,9824.21875,128
-8388608,-605.0000721,-16.41344028,-227580,14401,1.038623576,128,-7.46776193,-103544,60416,9843.75,128
-8388608,-605.0000721,-16.38055281,-227124,14521,1.047278171,128,-7.396577882,-102557,61056,9863.28125,128
-8388608,-605.0000721,-16.36208968,-226868,14630,1.055139429,128,-7.334841768,-101701,61696,9882.8125,128
-8388608,-605.0000721,-16.3354768,-226499,14503,1.045979982,128,-7.288611804,-101060,62336,9902.34375,128
-8388608,-605.0000721,-16.35624783,-226787,14312,1.032204751,128,-7.291785156,-101104,62976,9921.875,128
-8388608,-605.0000721,-16.37636976,-227066,14314,1.032348994,128,-7.348544878,-101891,63616,9941.40625,128
-8388608,-605.0000721,-16.40666084,-227486,14152,1.02066529,128,-7.445259982,-103232,64256,9960.9375,128
-8388608,-605.0000721,-16.42909067,-227797,14238,1.026867751,128,-7.517670097,-104236,64896,9980.46875,128
-8388608,-605.0000721,-16.44329863,-227994,14226,1.026002291,128,-7.549475735,-104677,0,10000,128
-8388608,-605.0000721,-16.45880478,-228209,14364,1.035955076,128,-7.550485438,-104691,640,10019.53125,128
-8388608,-605.0000721,-16.45209747,-228116,14385,1.03746963,128,-7.559572763,-104817,1280,10039.0625,128
-8388608,-605.0000721,-16.47301274,-228406,14409,1.039200549,128,-7.552649087,-104721,1920,10058.59375,128
-8388608,-605.0000721,-16.4605357,-228233,14419,1.039921765,128,-7.558418817,-104801,2560,10078.125,128
-8388608,-605.0000721,-16.46803635,-228337,14429,1.040642982,128,-7.568948575,-104947,3200,10097.65625,128
-8388608,-605.0000721,-16.45440536,-228148,14365,1.036027197,128,-7.565558859,-104900,3840,10117.1875,128
-8388608,-605.0000721,-16.43507677,-227880,14402,1.038695698,128,-7.560077615,-104824,4480,10136.71875,128
-8388608,-605.0000721,-16.44163983,-227971,14434,1.04100359,128,-7.569309183,-104952,5120,10156.25,128
-8388608,-605.0000721,-16.43392282,-227864,14362,1.035810832,128,-7.566207953,-104909,5760,10175.78125,128
-8388608,-605.0000721,-16.43082159,-227821,14508,1.04634059,128,-7.581281374,-105118,6400,10195.3125,128
-8388608,-605.0000721,-16.41834455,-227648,14334,1.033791427,128,-7.556110925,-104769,7040,10214.84375,128
-8388608,-605.0000721,-16.41697424,-227629,14447,1.041941171,128,-7.533536855,-104456,7680,10234.375,128
-8388608,-605.0000721,-16.35401205,-226756,14741,1.06314493,128,-7.506347001,-104079,8320,10253.90625,128
-8388608,-605.0000721,-16.38329344,-227162,14191,1.023478034,128,-7.554019398,-104740,8960,10273.4375,128
-8388608,-605.0000721,-16.3851686,-227188,14090,1.016193749,128,-7.579189846,-105089,9600,10292.96875,128
-8388608,-605.0000721,-16.46471875,-228291,13872,1.000471234,128,-7.608399106,-105494,10240,10312.5,128
-8388608,-605.0000721,-16.46731513,-228327,14184,1.022973183,128,-7.618424012,-105633,10880,10332.03125,128
-8388608,-605.0000721,-16.47207516,-228393,14252,1.027877453,128,-7.64179142,-105957,11520,10351.5625,128
-8388608,-605.0000721,-16.464863,-228293,14413,1.039489036,128,-7.613591863,-105566,12160,10371.09375,128
-8388608,-605.0000721,-16.27676979,-225685,15176,1.094517838,128,-7.509592475,-104124,12800,10390.625,128
-8388608,-605.0000721,-15.55706806,-215706,17139,1.236092596,128,-6.839221935,-94829,13440,10410.15625,128
-8388608,-605.0000721,-16.33475558,-226489,8972,0.647075253,128,-7.006760479,-97152,14080,10429.6875,128
-8388608,-605.0000721,-16.34377078,-226614,14552,1.049513942,128,-7.655206043,-106143,14720,10449.21875,128
-8388608,-605.0000721,-16.3841589,-227174,13986,1.0086931,128,-7.61431308,-105576,15360,10468.75,128
-8388608,-605.0000721,-16.40420871,-227452,14223,1.025785926,128,-7.597364497,-105341,16000,10488.28125,128
-8388608,-605.0000721,-16.41106026,-227547,14244,1.02730048,128,-7.577891657,-105071,16640,10507.8125,128
-8388608,-605.0000721,-16.41935425,-227662,14411,1.039344792,128,-7.56209702,-104852,17280,10527.34375,128
-8388608,-605.0000721,-16.40428083,-227453,14473,1.043816333,128,-7.547312087,-104647,17920,10546.875,128
-8388608,-605.0000721,-16.38552921,-227193,14469,1.043527847,128,-7.537359302,-104509,18560,10566.40625,128
-8388608,-605.0000721,-16.37701885,-227075,14375,1.036748414,128,-7.477281985,-103676,19200,10585.9375,128
-8388608,-605.0000721,-16.33475558,-226489,14479,1.044249063,128,-7.421099236,-102897,19840,10605.46875,128
-8388608,-605.0000721,-16.31073908,-226156,14570,1.050812131,128,-7.350275797,-101915,20480,10625,128
-8388608,-605.0000721,-16.30987362,-226144,14179,1.022612574,128,-7.34775154,-101880,21120,10644.53125,128
-8388608,-605.0000721,-16.34780959,-226670,14269,1.029103521,128,-7.396217274,-102552,21760,10664.0625,128
-8388608,-605.0000721,-16.3695182,-226971,14066,1.01446283,128,-7.457520659,-103402,22400,10683.59375,128
-8388608,-605.0000721,-16.40125172,-227411,14088,1.016049506,128,-7.549331492,-104675,23040,10703.125,128
-8388608,-605.0000721,-16.40622811,-227480,14038,1.012443425,128,-7.582218955,-105131,23680,10722.65625,128
-8388608,-605.0000721,-16.42476337,-227737,14231,1.026362899,128,-7.602413011,-105411,24320,10742.1875,128
-8388608,-605.0000721,-16.42815309,-227784,14218,1.025425318,128,-7.614745809,-105582,24960,10761.71875,128
-8388608,-605.0000721,-16.42692702,-227767,14210,1.024848345,128,-7.609769417,-105513,25600,10781.25,128
-8388608,-605.0000721,-16.44106286,-227963,14219,1.02549744,128,-7.615467026,-105592,26240,10800.78125,128
-8388608,-605.0000721,-16.42844158,-227788,14364,1.035955076,128,-7.600826335,-105389,26880,10820.3125,128
-8388608,-605.0000721,-16.39620321,-227341,14690,1.059466727,128,-7.588565658,-105219,27520,10839.84375,128
-8388608,-605.0000721,-16.38213949,-227146,14491,1.045114523,128,-7.590080212,-105240,28160,10859.375,128
-8388608,-605.0000721,-16.38596194,-227199,14422,1.04013813,128,-7.583084414,-105143,28800,10878.90625,128
-8388608,-605.0000721,-16.3841589,-227174,14381,1.037181143,128,-7.596066308,-105323,29440,10898.4375,128
-8388608,-605.0000721,-16.40002565,-227394,14492,1.045186644,128,-7.602989984,-105419,30080,10917.96875,128
-8388608,-605.0000721,-16.36922972,-226967,14554,1.049658185,128,-7.567289778,-104924,30720,10937.5,128
-8388608,-605.0000721,-16.3641812,-226897,14594,1.05254305,128,-7.55899579,-104809,31360,10957.03125,128
-8388608,-605.0000721,-16.3098015,-226143,14681,1.058817632,128,-7.535412018,-104482,32000,10976.5625,128
-8388608,-605.0000721,-16.33879439,-226545,14397,1.038335089,128,-7.602485133,-105412,32640,10996.09375,128
-8388608,-605.0000721,-16.38437526,-227177,14076,1.015184047,128,-7.622967675,-105696,33280,11015.625,128
-8388608,-605.0000721,-16.40601175,-227477,14006,1.010135533,128,-7.633136825,-105837,33920,11035.15625,128
-8388608,-605.0000721,-16.41921001,-227660,14191,1.023478034,128,-7.655999381,-106154,34560,11054.6875,128
-8388608,-605.0000721,-16.41243057,-227566,14353,1.035161738,128,-7.645613867,-106010,35200,11074.21875,128
-8388608,-605.0000721,-16.40492992,-227462,14651,1.056653983,128,-7.672370991,-106381,35840,11093.75,128
-8388608,-605.0000721,-15.95590066,-221236,15964,1.151349682,128,-7.335635106,-101712,36480,11113.28125,128
-8388608,-605.0000721,-15.71205744,-217855,13028,0.93960058,128,-6.681708298,-92645,37120,11132.8125,128
-8388608,-605.0000721,-16.43868285,-227930,10667,0.769321414,128,-7.487090526,-103812,37760,11152.34375,128
-8388608,-605.0000721,-16.34377078,-226614,14493,1.045258766,128,-7.673164329,-106392,38400,11171.875,128
-8388608,-605.0000721,-16.35451691,-226763,14314,1.032348994,128,-7.632631973,-105830,39040,11191.40625,128
-8388608,-605.0000721,-16.36071937,-226849,14346,1.034656886,128,-7.599095416,-105365,39680,11210.9375,128
-8388608,-605.0000721,-16.37319641,-227022,14326,1.033214454,128,-7.590512942,-105246,40320,11230.46875,128
-8388608,-605.0000721,-16.35567085,-226779,14254,1.028021697,128,-7.578829238,-105084,40960,11250,128
-8388608,-605.0000721,-16.360503,-226846,14216,1.025281075,128,-7.558779425,-104806,41600,11269.53125,128
-8388608,-605.0000721,-16.32920221,-226412,14316,1.032493238,128,-7.519905868,-104267,42240,11289.0625,128
-8388608,-605.0000721,-16.31557123,-226223,14488,1.044898158,128,-7.473675904,-103626,42880,11308.59375,128
-8388608,-605.0000721,-16.26602367,-225536,14558,1.049946672,128,-7.389149355,-102454,43520,11328.125,128
-8388608,-605.0000721,-16.2621291,-225482,14384,1.037397508,128,-7.373498961,-102237,44160,11347.65625,128
-8388608,-605.0000721,-16.27633706,-225679,13999,1.009630681,128,-7.370469853,-102195,44800,11367.1875,128
-8388608,-605.0000721,-16.32732705,-226386,13933,1.004870654,128,-7.425210169,-102954,45440,11386.71875,128
-8388608,-605.0000721,-16.34802596,-226673,13894,1.00205791,128,-7.477786836,-103683,46080,11406.25,128
-8388608,-605.0000721,-16.37896614,-227102,13854,0.999173045,128,-7.578180144,-105075,46720,11425.78125,128
-8388608,-605.0000721,-16.39815049,-227368,13926,1.004365802,128,-7.600249362,-105381,47360,11445.3125,128
-8388608,-605.0000721,-16.41668575,-227625,14099,1.016842844,128,-7.620010688,-105655,48000,11464.84375,128
-8388608,-605.0000721,-16.44329863,-227994,14152,1.02066529,128,-7.637680487,-105900,48640,11484.375,128
-8388608,-605.0000721,-16.42368155,-227722,14352,1.035089616,128,-7.619722202,-105651,49280,11503.90625,128
-8388608,-605.0000721,-16.42382579,-227724,14401,1.038623576,128,-7.61034639,-105521,49920,11523.4375,128
-8388608,-605.0000721,-16.40370386,-227445,14461,1.042950874,128,-7.607317282,-105479,50560,11542.96875,128
-8388608,-605.0000721,-16.38978438,-227252,14509,1.046412712,128,-7.598518443,-105357,51200,11562.5,128
-8388608,-605.0000721,-16.36836426,-226955,14401,1.038623576,128,-7.598157835,-105352,51840,11582.03125,128
-8388608,-605.0000721,-16.37997584,-227116,14365,1.036027197,128,-7.604504538,-105440,52480,11601.5625,128
-8388608,-605.0000721,-16.37600915,-227061,14231,1.026362899,128,-7.601114822,-105393,53120,11621.09375,128
-8388608,-605.0000721,-16.36865275,-226959,14428,1.04057086,128,-7.610706998,-105526,53760,11640.625,128
-8388608,-605.0000721,-16.36057512,-226847,14244,1.02730048,128,-7.570174643,-104964,54400,11660.15625,128
-8388608,-605.0000721,-16.32465855,-226349,14656,1.057014591,128,-7.537215058,-104507,55040,11679.6875,128
-8388608,-605.0000721,-16.3224949,-226319,14098,1.016770722,128,-7.58243532,-105134,55680,11699.21875,128
-8388608,-605.0000721,-16.32667796,-226377,14161,1.021314385,128,-7.608543349,-105496,56320,11718.75,128
-8388608,-605.0000721,-16.40197294,-227421,14030,1.011866452,128,-7.65419634,-106129,56960,11738.28125,128
-8388608,-605.0000721,-16.40161233,-227416,14212,1.024992588,128,-7.645902353,-106014,57600,11757.8125,128
-8388608,-605.0000721,-16.41747909,-227636,14194,1.023694399,128,-7.668837031,-106332,58240,11777.34375,128
-8388608,-605.0000721,-16.41675787,-227626,14189,1.023333791,128,-7.6523933,-106104,58880,11796.875,128
-8388608,-605.0000721,-16.33619801,-226509,14978,1.080237756,128,-7.672370991,-106381,59520,11816.40625,128
-8388608,-605.0000721,-15.52692122,-215288,18544,1.337423484,128,-6.86821483,-95231,60160,11835.9375,128
-8388608,-605.0000721,-16.25772968,-225421,8959,0.646137672,128,-6.928220025,-96063,60800,11855.46875,128
-8388608,-605.0000721,-16.2764813,-225681,14527,1.047710901,128,-7.673308572,-106394,61440,11875,128
-8388608,-605.0000721,-16.34557382,-226639,13941,1.005447627,128,-7.640493231,-105939,62080,11894.53125,128
-8388608,-605.0000721,-16.36576788,-226919,14109,1.01756406,128,-7.636526541,-105884,62720,11914.0625,128
-8388608,-605.0000721,-16.36028664,-226843,14241,1.027084115,128,-7.609480931,-105509,63360,11933.59375,128
-8388608,-605.0000721,-16.36843638,-226956,14273,1.029392008,128,-7.600898457,-105390,64000,11953.125,128
-8388608,-605.0000721,-16.35841147,-226817,14399,1.038479333,128,-7.578396509,-105078,64640,11972.65625,128
-8388608,-605.0000721,-16.35675268,-226794,14381,1.037181143,128,-7.566784926,-104917,65280,11992.1875,128
-8388608,-605.0000721,-16.32999555,-226423,14523,1.047422415,128,-7.511395515,-104149,384,12011.71875,128
-8388608,-605.0000721,-16.31773488,-226253,14581,1.051605469,128,-7.463074024,-103479,1024,12031.25,128
-8388608,-605.0000721,-16.27186552,-225617,14496,1.045475131,128,-7.380855367,-102339,1664,12050.78125,128
-8388608,-605.0000721,-16.2711443,-225607,14295,1.030978683,128,-7.37522988,-102261,2304,12070.3125,128
-8388608,-605.0000721,-16.3001372,-226009,14123,1.018573763,128,-7.39780395,-102574,2944,12089.84375,128
-8388608,-605.0000721,-16.32696644,-226381,14143,1.020016196,128,-7.486874162,-103809,3584,12109.375,128
-8388608,-605.0000721,-16.35300235,-226742,14077,1.015256168,128,-7.55899579,-104809,4224,12128.90625,128
-8388608,-605.0000721,-16.36995093,-226977,14069,1.014679195,128,-7.615755512,-105596,4864,12148.4375,128
-8388608,-605.0000721,-16.38560133,-227194,14142,1.019944074,128,-7.643450218,-105980,5504,12167.96875,128
-8388608,-605.0000721,-16.38545708,-227192,14207,1.02463198,128,-7.64799388,-106043,6144,12187.5,128
-8388608,-605.0000721,-16.38956802,-227249,14206,1.024559858,128,-7.656576354,-106162,6784,12207.03125,128
-8388608,-605.0000721,-16.38408677,-227173,14125,1.018718006,128,-7.637031393,-105891,7424,12226.5625,128
-8388608,-605.0000721,-16.39187591,-227281,14306,1.031772021,128,-7.647633272,-106038,8064,12246.09375,128
-8388608,-605.0000721,-16.3841589,-227174,14513,1.046701198,128,-7.634507136,-105856,8704,12265.625,128
-8388608,-605.0000721,-16.35805087,-226812,14636,1.055572159,128,-7.637824731,-105902,9344,12285.15625,128
-8388608,-605.0000721,-16.36194543,-226866,14385,1.03746963,128,-7.631333784,-105812,9984,12304.6875,128
-8388608,-605.0000721,-16.35336296,-226747,14311,1.032132629,128,-7.629530743,-105787,10624,12324.21875,128
-8388608,-605.0000721,-16.35184841,-226726,14348,1.03480113,128,-7.656936962,-106167,11264,12343.75,128
-8388608,-605.0000721,-16.31686942,-226241,14493,1.045258766,128,-7.597869348,-105348,11904,12363.28125,128
-8388608,-605.0000721,-16.3091524,-226134,14569,1.05074001,128,-7.596210551,-105325,12544,12382.8125,128
-8388608,-605.0000721,-16.27244249,-225625,14363,1.035882954,128,-7.60457666,-105441,13184,12402.34375,128
-8388608,-605.0000721,-16.29054502,-225876,14198,1.023982885,128,-7.653475124,-106119,13824,12421.875,128
-8388608,-605.0000721,-16.32191793,-226311,14023,1.0113616,128,-7.664653977,-106274,14464,12441.40625,128
-8388608,-605.0000721,-16.37175398,-227002,14282,1.030041102,128,-7.707205737,-106864,15104,12460.9375,128
-8388608,-605.0000721,-16.37334065,-227024,14431,1.040787225,128,-7.704825724,-106831,15744,12480.46875,128
-8388608,-605.0000721,-16.37947099,-227109,14363,1.035882954,128,-7.699849331,-106762,16384,12500,128
-8388608,-605.0000721,-16.34369866,-226613,14628,1.054995186,128,-7.724514928,-107104,17024,12519.53125,128
-8388608,-605.0000721,-15.69453188,-217612,16517,1.191232942,128,-7.242670327,-100423,17664,12539.0625,128
-8388608,-605.0000721,-15.84093879,-219642,11674,0.841947894,128,-6.819027879,-94549,18304,12558.59375,128
-8388608,-605.0000721,-16.42714339,-227770,11438,0.82492719,128,-7.456438834,-103387,18944,12578.125,128
-8388608,-605.0000721,-16.28751591,-225834,13954,1.006385208,128,-7.699416602,-106756,19584,12597.65625,128
-8388608,-605.0000721,-16.30367116,-226058,14032,1.012010695,128,-7.674823126,-106415,20224,12617.1875,128
-8388608,-605.0000721,-16.31975428,-226281,14254,1.028021697,128,-7.657658179,-106177,20864,12636.71875,128
-8388608,-605.0000721,-16.31528274,-226219,14206,1.024559858,128,-7.628232554,-105769,21504,12656.25,128
-8388608,-605.0000721,-16.31672517,-226239,14269,1.029103521,128,-7.624121621,-105712,22144,12675.78125,128
-8388608,-605.0000721,-16.31369606,-226197,14294,1.030906562,128,-7.598518443,-105357,22784,12695.3125,128
-8388608,-605.0000721,-16.28953532,-225862,14382,1.037253265,128,-7.583805631,-105153,23424,12714.84375,128
-8388608,-605.0000721,-16.27143279,-225611,14451,1.042229657,128,-7.51291007,-104170,24064,12734.375,128
-8388608,-605.0000721,-16.23349681,-225085,14703,1.060404308,128,-7.444610887,-103223,24704,12753.90625,128
-8388608,-605.0000721,-16.22239008,-224931,14388,1.037685995,128,-7.407756735,-102712,25344,12773.4375,128
-8388608,-605.0000721,-16.22859254,-225017,14252,1.027877453,128,-7.423767736,-102934,25984,12792.96875,128
-8388608,-605.0000721,-16.26616791,-225538,14023,1.0113616,128,-7.491273581,-103870,26624,12812.5,128
-8388608,-605.0000721,-16.28499166,-225799,14111,1.017708304,128,-7.559500642,-104816,27264,12832.03125,128
-8388608,-605.0000721,-16.32537977,-226359,14119,1.018285277,128,-7.650806624,-106082,27904,12851.5625,128
-8388608,-605.0000721,-16.33042828,-226429,14233,1.026507142,128,-7.668260058,-106324,28544,12871.09375,128
-8388608,-605.0000721,-16.33641438,-226512,14293,1.03083444,128,-7.678357086,-106464,29184,12890.625,128
-8388608,-605.0000721,-16.35170416,-226724,14141,1.019871953,128,-7.700065696,-106765,29824,12910.15625,128
-8388608,-605.0000721,-16.34737686,-226664,14306,1.031772021,128,-7.684848033,-106554,30464,12929.6875,128
-8388608,-605.0000721,-16.34889142,-226685,14187,1.023189547,128,-7.676554045,-106439,31104,12949.21875,128
-8388608,-605.0000721,-16.3301398,-226425,14245,1.027372602,128,-7.675977072,-106431,31744,12968.75,128
-8388608,-605.0000721,-16.3198264,-226282,14288,1.030473832,128,-7.67453464,-106411,32384,12988.28125,128
-8388608,-605.0000721,-16.30251721,-226042,14497,1.045547252,128,-7.659533341,-106203,33024,13007.8125,128
-8388608,-605.0000721,-16.31203727,-226174,14346,1.034656886,128,-7.692060195,-106654,33664,13027.34375,128
-8388608,-605.0000721,-16.30893604,-226131,14102,1.017059209,128,-7.671866139,-106374,34304,13046.875,128
-8388608,-605.0000721,-16.29379049,-225921,14386,1.037541752,128,-7.6807371,-106497,34944,13066.40625,128
-8388608,-605.0000721,-16.27958253,-225724,14354,1.035233859,128,-7.660254557,-106213,35584,13085.9375,128
-8388608,-605.0000721,-16.23436227,-225097,14573,1.051028496,128,-7.628448919,-105772,36224,13105.46875,128
-8388608,-605.0000721,-16.26054242,-225460,14187,1.023189547,128,-7.684775911,-106553,36864,13125,128
-8388608,-605.0000721,-16.2871553,-225829,14166,1.021674993,128,-7.716725792,-106996,37504,13144.53125,128
-8388608,-605.0000721,-16.33151011,-226444,14217,1.025353196,128,-7.729202834,-107169,38144,13164.0625,128
-8388608,-605.0000721,-16.32956282,-226417,14313,1.032276873,128,-7.738578646,-107299,38784,13183.59375,128
-8388608,-605.0000721,-16.34463624,-226626,14160,1.021242263,128,-7.742040484,-107347,39424,13203.125,128
-8388608,-605.0000721,-16.32141308,-226304,14574,1.051100618,128,-7.768004271,-107707,40064,13222.65625,128
-8388608,-605.0000721,-16.16764977,-224172,15598,1.124953166,128,-7.653835732,-106124,40704,13242.1875,128
-8388608,-605.0000721,-15.71652898,-217917,13674,0.986191152,128,-6.758662076,-93712,41344,13261.71875,128
-8388608,-605.0000721,-16.47705155,-228462,10013,0.722153869,128,-7.384245084,-102386,41984,13281.25,128
-8388608,-605.0000721,-16.24741629,-225278,14411,1.039344792,128,-7.758772702,-107579,42624,13300.78125,128
-8388608,-605.0000721,-16.24741629,-225278,14078,1.01532829,128,-7.758772702,-107579,43264,13320.3125,128
-8388608,-605.0000721,-16.29292504,-225909,14171,1.022035601,128,-7.71838459,-107019,43904,13339.84375,128
-8388608,-605.0000721,-16.27943829,-225722,14409,1.039200549,128,-7.693718993,-106677,44544,13359.375,128
-8388608,-605.0000721,-16.28903047,-225855,14276,1.029608372,128,-7.681458316,-106507,45184,13378.90625,128
-8388608,-605.0000721,-16.26898065,-225577,14420,1.039993887,128,-7.651311475,-106089,45824,13398.4375,128
-8388608,-605.0000721,-16.26869217,-225573,14186,1.023117426,128,-7.63292046,-105834,46464,13417.96875,128
-8388608,-605.0000721,-16.23241499,-225070,14434,1.04100359,128,-7.570246764,-104965,47104,13437.5,128
-8388608,-605.0000721,-16.20825424,-224735,14447,1.041941171,128,-7.532094423,-104436,47744,13457.03125,128
-8388608,-605.0000721,-16.18769958,-224450,14334,1.033791427,128,-7.472449836,-103609,48384,13476.5625,128
-8388608,-605.0000721,-16.19902267,-224607,14100,1.016914966,128,-7.47396439,-103630,49024,13496.09375,128
-8388608,-605.0000721,-16.22188523,-224924,14014,1.010712506,128,-7.484205661,-103772,49664,13515.625,128
-8388608,-605.0000721,-16.26321092,-225497,14024,1.011433722,128,-7.597364497,-105341,50304,13535.15625,128
-8388608,-605.0000721,-16.28729955,-225831,14111,1.017708304,128,-7.661552746,-106231,50944,13554.6875,128
-8388608,-605.0000721,-16.30936877,-226137,14238,1.026867751,128,-7.71795186,-107013,51584,13574.21875,128
-8388608,-605.0000721,-16.33165435,-226446,14143,1.020016196,128,-7.737208335,-107280,52224,13593.75,128
-8388608,-605.0000721,-16.33389012,-226477,14428,1.04057086,128,-7.745141714,-107390,52864,13613.28125,128
-8388608,-605.0000721,-16.34853081,-226680,14278,1.029752616,128,-7.7374247,-107283,53504,13632.8125,128
-8388608,-605.0000721,-16.33489982,-226491,14488,1.044898158,128,-7.735405294,-107255,54144,13652.34375,128
-8388608,-605.0000721,-16.32328824,-226330,14386,1.037541752,128,-7.731077997,-107195,54784,13671.875,128
-8388608,-605.0000721,-16.29919962,-225996,14488,1.044898158,128,-7.732520429,-107215,55424,13691.40625,128
-8388608,-605.0000721,-16.29487232,-225936,14333,1.033719305,128,-7.72501978,-107111,56064,13710.9375,128
-8388608,-605.0000721,-16.29494444,-225937,14265,1.028815034,128,-7.740021079,-107319,56704,13730.46875,128
-8388608,-605.0000721,-16.29674748,-225962,14280,1.029896859,128,-7.757402391,-107560,57344,13750,128
-8388608,-605.0000721,-16.30756573,-226112,14157,1.021025899,128,-7.756536932,-107548,57984,13769.53125,128
-8388608,-605.0000721,-16.29357413,-225918,14194,1.023694399,128,-7.747233241,-107419,58624,13789.0625,128
-8388608,-605.0000721,-16.29162685,-225891,14315,1.032421116,128,-7.721125212,-107057,59264,13808.59375,128
-8388608,-605.0000721,-16.26984611,-225589,14458,1.042734509,128,-7.715643968,-106981,59904,13828.125,128
-8388608,-605.0000721,-16.25051752,-225321,14263,1.028670791,128,-7.74139139,-107338,60544,13847.65625,128
-8388608,-605.0000721,-16.26537457,-225527,14291,1.030690197,128,-7.785529826,-107950,61184,13867.1875,128
-8388608,-605.0000721,-16.32069186,-226294,13898,1.002346397,128,-7.871498808,-109142,61824,13886.71875,128
-8388608,-605.0000721,-16.34023682,-226565,14072,1.01489556,128,-7.888663755,-109380,62464,13906.25,128
-8388608,-605.0000721,-16.35300235,-226742,14065,1.014390709,128,-7.914843907,-109743,63104,13925.78125,128
-8388608,-605.0000721,-16.34535746,-226636,14135,1.019439223,128,-7.894289243,-109458,63744,13945.3125,128
-8388608,-605.0000721,-16.29530505,-225942,15136,1.091632973,128,-7.925445786,-109890,64384,13964.84375,128
-8388608,-605.0000721,-15.55230803,-215640,19624,1.415314843,128,-7.282409344,-100974,65024,13984.375,128
-8388608,-605.0000721,-16.0187186,-222107,11155,0.804516769,128,-7.04224432,-97644,128,14003.90625,128
-8388608,-605.0000721,-16.23501137,-225106,14532,1.048071509,128,-7.900131094,-109539,768,14023.4375,128
-8388608,-605.0000721,-16.28131345,-225748,14130,1.019078615,128,-7.902943838,-109578,1408,14042.96875,128
-8388608,-605.0000721,-16.3091524,-226134,14085,1.015833141,128,-7.899265635,-109527,2048,14062.5,128
-8388608,-605.0000721,-16.31196515,-226173,14148,1.020376804,128,-7.878855214,-109244,2688,14082.03125,128
-8388608,-605.0000721,-16.31095544,-226159,14296,1.031050805,128,-7.859959347,-108982,3328,14101.5625,128
-8388608,-605.0000721,-16.30951301,-226139,14394,1.038118725,128,-7.840125899,-108707,3968,14121.09375,128
-8388608,-605.0000721,-16.30410389,-226064,14274,1.029464129,128,-7.825052479,-108498,4608,14140.625,128
-8388608,-605.0000721,-16.29061714,-225877,14337,1.034007792,128,-7.79187653,-108038,5248,14160.15625,128
-8388608,-605.0000721,-16.27027884,-225595,14333,1.033719305,128,-7.735693781,-107259,5888,14179.6875,128
-8388608,-605.0000721,-16.23075619,-225047,14483,1.04453755,128,-7.639772015,-105929,6528,14199.21875,128
-8388608,-605.0000721,-16.23039558,-225042,14278,1.029752616,128,-7.635805325,-105874,7168,14218.75,128
-8388608,-605.0000721,-16.27049521,-225598,13879,1.000976086,128,-7.661624868,-106232,7808,14238.28125,128
-8388608,-605.0000721,-16.28484741,-225797,13885,1.001408816,128,-7.719610658,-107036,8448,14257.8125,128
-8388608,-605.0000721,-16.32054762,-226292,13889,1.001697302,128,-7.788126205,-107986,9088,14277.34375,128
-8388608,-605.0000721,-16.34355442,-226611,13927,1.004437924,128,-7.871210321,-109138,9728,14296.875,128
-8388608,-605.0000721,-16.35769026,-226807,14051,1.013381006,128,-7.879648552,-109255,10368,14316.40625,128
-8388608,-605.0000721,-16.35776238,-226808,14232,1.026435021,128,-7.882749782,-109298,11008,14335.9375,128
-8388608,-605.0000721,-16.37247519,-227012,14154,1.020809534,128,-7.90171777,-109561,11648,14355.46875,128
-8388608,-605.0000721,-16.37709098,-227076,14284,1.030185345,128,-7.889024364,-109385,12288,14375,128
-8388608,-605.0000721,-16.37723522,-227078,14216,1.025281075,128,-7.880658255,-109269,12928,14394.53125,128
-8388608,-605.0000721,-16.37499945,-227047,14178,1.022540453,128,-7.882244931,-109291,13568,14414.0625,128
-8388608,-605.0000721,-16.35624783,-226787,14278,1.029752616,128,-7.876835808,-109216,14208,14433.59375,128
-8388608,-605.0000721,-16.35761814,-226806,14206,1.024559858,128,-7.888447391,-109377,14848,14453.125,128
-8388608,-605.0000721,-16.34521322,-226634,14354,1.035233859,128,-7.889601337,-109393,15488,14472.65625,128
-8388608,-605.0000721,-16.35805087,-226812,14214,1.025136831,128,-7.902222622,-109568,16128,14492.1875,128
-8388608,-605.0000721,-16.35047809,-226707,14265,1.028815034,128,-7.904097784,-109594,16768,14511.71875,128
-8388608,-605.0000721,-16.35062234,-226709,14283,1.030113224,128,-7.911093582,-109691,17408,14531.25,128
-8388608,-605.0000721,-16.34088592,-226574,14525,1.047566658,128,-7.878061876,-109233,18048,14550.78125,128
-8388608,-605.0000721,-16.33403436,-226479,14323,1.032998089,128,-7.867532118,-109087,18688,14570.3125,128
-8388608,-605.0000721,-16.28333286,-225776,14475,1.043960577,128,-7.839044075,-108692,19328,14589.84375,128
-8388608,-605.0000721,-16.3091524,-226134,14108,1.017491939,128,-7.878566727,-109240,19968,14609.375,128
-8388608,-605.0000721,-16.3401647,-226564,13919,1.003860951,128,-7.925085178,-109885,20608,14628.90625,128
-8388608,-605.0000721,-16.39360683,-227305,13905,1.002851248,128,-7.937778585,-110061,21248,14648.4375,128
-8388608,-605.0000721,-16.40154021,-227415,14069,1.014679195,128,-7.9508326,-110242,21888,14667.96875,128
-8388608,-605.0000721,-16.40536265,-227468,14263,1.028670791,128,-7.934533111,-110016,22528,14687.5,128
-8388608,-605.0000721,-16.3861783,-227202,14469,1.043527847,128,-7.968430277,-110486,23168,14707.03125,128
-8388608,-605.0000721,-16.21416822,-224817,17864,1.288380776,128,-7.83486102,-108634,23808,14726.5625,128
-8388608,-605.0000721,-15.72756359,-218070,15418,1.111971272,128,-7.025151494,-97407,24448,14746.09375,128
-8388608,-605.0000721,-16.48642737,-228592,12966,0.935129039,128,-7.642079907,-105961,25088,14765.625,128
-8388608,-605.0000721,-16.31499425,-226215,14074,1.015039803,128,-7.969223615,-110497,25728,14785.15625,128
-8388608,-605.0000721,-16.34665565,-226654,14063,1.014246465,128,-7.93489372,-110021,26368,14804.6875,128
-8388608,-605.0000721,-16.36663334,-226931,14021,1.011217357,128,-7.894649851,-109463,27008,14824.21875,128
-8388608,-605.0000721,-16.3594933,-226832,14206,1.024559858,128,-7.885129796,-109331,27648,14843.75,128
-8388608,-605.0000721,-16.35076658,-226711,14150,1.020521047,128,-7.861473901,-109003,28288,14863.28125,128
-8388608,-605.0000721,-16.34124653,-226579,14207,1.02463198,128,-7.856858117,-108939,28928,14882.8125,128
-8388608,-605.0000721,-16.34131865,-226580,14274,1.029464129,128,-7.837313156,-108668,29568,14902.34375,128
-8388608,-605.0000721,-16.3154991,-226222,14332,1.033647184,128,-7.766850324,-107691,30208,14921.875,128
-8388608,-605.0000721,-16.28008739,-225731,14503,1.045979982,128,-7.702085102,-106793,30848,14941.40625,128
-8388608,-605.0000721,-16.26270607,-225490,14299,1.03126717,128,-7.6523933,-106104,31488,14960.9375,128
-8388608,-605.0000721,-16.27741888,-225694,14199,1.024055007,128,-7.660687287,-106219,32128,14980.46875,128
-8388608,-605.0000721,-16.30641178,-226096,14128,1.018934371,128,-7.726462212,-107131,32768,15000,128
-8388608,-605.0000721,-16.32812039,-226397,14156,1.020953777,128,-7.796420192,-108101,33408,15019.53125,128
-8388608,-605.0000721,-16.34146289,-226582,14145,1.020160439,128,-7.847049576,-108803,34048,15039.0625,128
-8388608,-605.0000721,-16.38156252,-227138,14104,1.017203452,128,-7.905035365,-109607,34688,15058.59375,128
-8388608,-605.0000721,-16.3781728,-227091,14237,1.026795629,128,-7.903160203,-109581,35328,15078.125,128
-8388608,-605.0000721,-16.38798134,-227227,14181,1.022756818,128,-7.933811895,-110006,35968,15097.65625,128
-8388608,-605.0000721,-16.38769286,-227223,14217,1.025353196,128,-7.926455489,-109904,36608,15117.1875,128
-8388608,-605.0000721,-16.39815049,-227368,14260,1.028454426,128,-7.92739307,-109917,37248,15136.71875,128
-8388608,-605.0000721,-16.38286071,-227156,14327,1.033286575,128,-7.900347459,-109542,37888,15156.25,128
-8388608,-605.0000721,-16.3664891,-226929,14316,1.032493238,128,-7.906405676,-109626,38528,15175.78125,128
-8388608,-605.0000721,-16.34867505,-226682,14366,1.036099319,128,-7.912536015,-109711,39168,15195.3125,128
-8388608,-605.0000721,-16.35336296,-226747,14385,1.03746963,128,-7.915276637,-109749,39808,15214.84375,128
-8388608,-605.0000721,-16.34665565,-226654,14442,1.041580563,128,-7.912536015,-109711,40448,15234.375,128
-8388608,-605.0000721,-16.34240047,-226595,14457,1.042662387,128,-7.908641447,-109657,41088,15253.90625,128
-8388608,-605.0000721,-16.33922712,-226551,14479,1.044249063,128,-7.916142096,-109761,41728,15273.4375,128
-8388608,-605.0000721,-16.31874458,-226267,14544,1.048936969,128,-7.874744281,-109187,42368,15292.96875,128
-8388608,-605.0000721,-16.29018441,-225871,14691,1.059538848,128,-7.853252036,-108889,43008,15312.5,128
-8388608,-605.0000721,-16.27265886,-225628,14699,1.060115821,128,-7.869263037,-109111,43648,15332.03125,128
-8388608,-605.0000721,-16.29292504,-225909,14102,1.017059209,128,-7.915997853,-109759,44288,15351.5625,128
-8388608,-605.0000721,-16.34795384,-226672,14000,1.009702803,128,-7.945351356,-110166,44928,15371.09375,128
-8388608,-605.0000721,-16.36288302,-226879,14359,1.035594468,128,-7.958405371,-110347,45568,15390.625,128
-8388608,-605.0000721,-16.37334065,-227024,14384,1.037397508,128,-7.952491397,-110265,46208,15410.15625,128
-8388608,-605.0000721,-16.37788431,-227087,14401,1.038623576,128,-7.966122385,-110454,46848,15429.6875,128
-8388608,-605.0000721,-16.28787652,-225839,15067,1.086656581,128,-7.977229116,-110608,47488,15449.21875,128
-8388608,-605.0000721,-15.79254517,-218971,17814,1.284774695,128,-7.5700304,-104962,48128,15468.75,128
-8388608,-605.0000721,-15.78915546,-218924,9821,0.708306516,128,-7.00063014,-97067,48768,15488.28125,128
-8388608,-605.0000721,-16.36490242,-226907,12996,0.937292688,128,-7.861690266,-109006,49408,15507.8125,128
-8388608,-605.0000721,-16.29660324,-225960,14396,1.038262968,128,-7.965761777,-110449,50048,15527.34375,128
-8388608,-605.0000721,-16.31499425,-226215,14215,1.025208953,128,-7.939653747,-110087,50688,15546.875,128
-8388608,-605.0000721,-16.3251634,-226356,14328,1.033358697,128,-7.913257231,-109721,51328,15566.40625,128
-8388608,-605.0000721,-16.31910519,-226272,14358,1.035522346,128,-7.901573527,-109559,51968,15585.9375,128
-8388608,-605.0000721,-16.32112459,-226300,14323,1.032998089,128,-7.879215822,-109249,52608,15605.46875,128
-8388608,-605.0000721,-16.32624523,-226371,14539,1.048576361,128,-7.87957643,-109254,53248,15625,128
-8388608,-605.0000721,-16.29710809,-225967,14336,1.03393567,128,-7.828730682,-108549,53888,15644.53125,128
-8388608,-605.0000721,-16.2781401,-225704,14469,1.043527847,128,-7.797574138,-108117,54528,15664.0625,128
-8388608,-605.0000721,-16.22801557,-225009,14539,1.048576361,128,-7.694945061,-106694,55168,15683.59375,128
-8388608,-605.0000721,-16.22989073,-225035,14474,1.043888455,128,-7.672226748,-106379,55808,15703.125,128
-8388608,-605.0000721,-16.25592664,-225396,14199,1.024055007,128,-7.706340278,-106852,56448,15722.65625,128
-8388608,-605.0000721,-16.29508868,-225939,13981,1.008332492,128,-7.761729689,-107620,57088,15742.1875,128
-8388608,-605.0000721,-16.33078889,-226434,13935,1.005014897,128,-7.856353266,-108932,57728,15761.71875,128
-8388608,-605.0000721,-16.35473327,-226766,14117,1.018141033,128,-7.897318351,-109500,58368,15781.25,128
-8388608,-605.0000721,-16.3648303,-226906,14273,1.029392008,128,-7.93135976,-109972,59008,15800.78125,128
-8388608,-605.0000721,-16.39079409,-227266,14123,1.018573763,128,-7.946361059,-110180,59648,15820.3125,128
-8388608,-605.0000721,-16.39036136,-227260,14204,1.024415615,128,-7.954438681,-110292,60288,15839.84375,128
-8388608,-605.0000721,-16.39194803,-227282,14249,1.027661088,128,-7.950616235,-110239,60928,15859.375,128
-8388608,-605.0000721,-16.3791825,-227105,14266,1.028887156,128,-7.944485896,-110154,61568,15878.90625,128
-8388608,-605.0000721,-16.35985391,-226837,14277,1.029680494,128,-7.941456788,-110112,62208,15898.4375,128
-8388608,-605.0000721,-16.34038107,-226567,14361,1.035738711,128,-7.927681557,-109921,62848,15917.96875,128
-8388608,-605.0000721,-16.33345739,-226471,14256,1.02816594,128,-7.919171204,-109803,63488,15937.5,128
-8388608,-605.0000721,-16.33973197,-226558,14120,1.018357398,128,-7.926743975,-109908,64128,15957.03125,128
-8388608,-605.0000721,-16.3311495,-226439,14069,1.014679195,128,-7.938211314,-110067,64768,15976.5625,128
-8388608,-605.0000721,-16.35365145,-226751,14091,1.016265871,128,-7.951481694,-110251,65408,15996.09375,128
-8388608,-605.0000721,-16.32739917,-226387,14395,1.038190846,128,-7.916719069,-109769,512,16015.625,128
-8388608,-605.0000721,-16.3108112,-226157,14402,1.038695698,128,-7.895659553,-109477,1152,16035.15625,128
-8388608,-605.0000721,-16.27972678,-225726,14617,1.054201848,128,-7.883470998,-109308,1792,16054.6875,128
-8388608,-605.0000721,-16.31506638,-226216,14189,1.023333791,128,-7.956890816,-110326,2432,16074.21875,128
-8388608,-605.0000721,-16.34528534,-226635,14076,1.015184047,128,-7.979032156,-110633,3072,16093.75,128
-8388608,-605.0000721,-16.37233095,-227010,14007,1.010207654,128,-7.992879509,-110825,3712,16113.28125,128
-8388608,-605.0000721,-16.38826983,-227231,14292,1.030762318,128,-7.999370456,-110915,4352,16132.8125,128
-8388608,-605.0000721,-16.37189822,-227004,14263,1.028670791,128,-7.982710359,-110684,4992,16152.34375,128
-8388608,-605.0000721,-16.32869736,-226405,14617,1.054201848,128,-8.03939796,-111470,5632,16171.875,128
-8388608,-605.0000721,-15.96772861,-221400,19194,1.384302543,128,-7.70597967,-106847,6272,16191.40625,128
-8388608,-605.0000721,-16.13945021,-223781,12240,0.882768736,128,-7.184107564,-99611,6912,16210.9375,128
-8388608,-605.0000721,-16.38776498,-227224,11300,0.814974405,128,-7.835798602,-108647,7552,16230.46875,128
-8388608,-605.0000721,-16.28484741,-225797,13940,1.005375505,128,-8.010693551,-111072,8192,16250,128
-8388608,-605.0000721,-16.32069186,-226294,14257,1.028238061,128,-7.971892115,-110534,8832,16269.53125,128
-8388608,-605.0000721,-16.33093313,-226436,14243,1.027228359,128,-7.969223615,-110497,9472,16289.0625,128
-8388608,-605.0000721,-16.3471605,-226661,14204,1.024415615,128,-7.96590602,-110451,10112,16308.59375,128
-8388608,-605.0000721,-16.32775978,-226392,14282,1.030041102,128,-7.931648246,-109976,10752,16328.125,128
-8388608,-605.0000721,-16.32191793,-226311,14460,1.042878752,128,-7.919892421,-109813,11392,16347.65625,128
-8388608,-605.0000721,-16.32278339,-226323,14321,1.032853846,128,-7.908280839,-109652,12032,16367.1875,128
-8388608,-605.0000721,-16.2984784,-225986,14483,1.04453755,128,-7.859959347,-108982,12672,16386.71875,128
-8388608,-605.0000721,-16.25758544,-225419,14505,1.046124225,128,-7.780986164,-107887,13312,16406.25,128
-8388608,-605.0000721,-16.24222353,-225206,14479,1.044249063,128,-7.751199931,-107474,13952,16425.78125,128
-8388608,-605.0000721,-16.26292244,-225493,14243,1.027228359,128,-7.760575743,-107604,14592,16445.3125,128
-8388608,-605.0000721,-16.29710809,-225967,14172,1.022107723,128,-7.829740385,-108563,15232,16464.84375,128
-8388608,-605.0000721,-16.32307188,-226327,14146,1.020232561,128,-7.9251573,-109886,15872,16484.375,128
-8388608,-605.0000721,-16.34427563,-226621,14186,1.023117426,128,-7.99201405,-110813,16512,16503.90625,128
-8388608,-605.0000721,-16.36057512,-226847,14199,1.024055007,128,-8.017472984,-111166,17152,16523.4375,128
-8388608,-605.0000721,-16.37067215,-226987,14141,1.019871953,128,-8.035070662,-111410,17792,16542.96875,128
-8388608,-605.0000721,-16.38213949,-227146,14231,1.026362899,128,-8.040191298,-111481,18432,16562.5,128
-8388608,-605.0000721,-16.37521581,-227050,14297,1.031122927,128,-8.033267621,-111385,19072,16582.03125,128
-8388608,-605.0000721,-16.37788431,-227087,14313,1.032276873,128,-8.029517296,-111333,19712,16601.5625,128
-8388608,-605.0000721,-16.36446969,-226901,14229,1.026218656,128,-8.036585216,-111431,20352,16621.09375,128
-8388608,-605.0000721,-16.35776238,-226808,14327,1.033286575,128,-8.031969432,-111367,20992,16640.625,128
-8388608,-605.0000721,-16.33309678,-226466,14427,1.040498738,128,-8.026848796,-111296,21632,16660.15625,128
-8388608,-605.0000721,-16.33922712,-226551,14626,1.054850942,128,-8.037739162,-111447,22272,16679.6875,128
-8388608,-605.0000721,-16.34261684,-226598,14489,1.044970279,128,-8.049278623,-111607,22912,16699.21875,128
-8388608,-605.0000721,-16.33872227,-226544,14351,1.035017495,128,-8.04740346,-111581,23552,16718.75,128
-8388608,-605.0000721,-16.31766275,-226252,14558,1.049946672,128,-7.993889212,-110839,24192,16738.28125,128
-8388608,-605.0000721,-16.27489463,-225659,14504,1.046052104,128,-7.986172198,-110732,24832,16757.8125,128
-8388608,-605.0000721,-16.26097515,-225466,14516,1.046917563,128,-7.975353953,-110582,25472,16777.34375,128
-8388608,-605.0000721,-16.27958253,-225724,14443,1.041652684,128,-8.032185797,-111370,26112,16796.875,128
-8388608,-605.0000721,-16.3151385,-226217,14028,1.011722208,128,-8.058798678,-111739,26752,16816.40625,128
-8388608,-605.0000721,-16.35329084,-226746,14055,1.013669492,128,-8.082743059,-112071,27392,16835.9375,128
-8388608,-605.0000721,-16.36944608,-226970,14099,1.016842844,128,-8.101783169,-112335,28032,16855.46875,128
-8388608,-605.0000721,-16.39295773,-227296,14045,1.012948276,128,-8.131280915,-112744,28672,16875,128
-8388608,-605.0000721,-16.31362394,-226196,14560,1.050090915,128,-8.168856283,-113265,29312,16894.53125,128
-8388608,-605.0000721,-15.95272731,-221192,19198,1.384591029,128,-7.861690266,-109006,29952,16914.0625,128
-8388608,-605.0000721,-16.06523705,-222752,13043,0.940682404,128,-7.405160356,-102676,30592,16933.59375,128
-8388608,-605.0000721,-16.37644188,-227067,13965,1.007178546,128,-8.042210703,-111509,31232,16953.125,128
-8388608,-605.0000721,-16.29869477,-225989,13916,1.003644586,128,-8.145200389,-112937,31872,16972.65625,128
-8388608,-605.0000721,-16.30965725,-226141,14067,1.014534952,128,-8.127674833,-112694,32512,16992.1875,128
-8388608,-605.0000721,-16.3258125,-226365,14079,1.015400412,128,-8.128756658,-112709,33152,17011.71875,128
-8388608,-605.0000721,-16.33266405,-226460,14183,1.022901061,128,-8.124068752,-112644,33792,17031.25,128
-8388608,-605.0000721,-16.32768766,-226391,14295,1.030978683,128,-8.107264412,-112411,34432,17050.78125,128
-8388608,-605.0000721,-16.3134797,-226194,14291,1.030690197,128,-8.084113369,-112090,35072,17070.3125,128
-8388608,-605.0000721,-16.29472808,-225934,14202,1.024271372,128,-8.057067759,-111715,35712,17089.84375,128
-8388608,-605.0000721,-16.27626494,-225678,14211,1.024920467,128,-7.972252723,-110539,36352,17109.375,128
-8388608,-605.0000721,-16.23457864,-225100,14429,1.040642982,128,-7.908425082,-109654,36992,17128.90625,128
-8388608,-605.0000721,-16.22404888,-224954,14194,1.023694399,128,-7.878350363,-109237,37632,17148.4375,128
-8388608,-605.0000721,-16.23688653,-225132,13874,1.000615478,128,-7.887509809,-109364,38272,17167.96875,128
-8388608,-605.0000721,-16.24748841,-225279,14004,1.009991289,128,-7.943620437,-110142,38912,17187.5,128
-8388608,-605.0000721,-16.30028144,-226011,13985,1.008620978,128,-8.058582313,-111736,39552,17207.03125,128
-8388608,-605.0000721,-16.30597905,-226090,14045,1.012948276,128,-8.102215898,-112341,40192,17226.5625,128
-8388608,-605.0000721,-16.33129374,-226441,14234,1.026579264,128,-8.132218496,-112757,40832,17246.09375,128
-8388608,-605.0000721,-16.33857803,-226542,14183,1.022901061,128,-8.158687134,-113124,41472,17265.625,128
-8388608,-605.0000721,-16.344492,-226624,14299,1.03126717,128,-8.157244701,-113104,42112,17285.15625,128
-8388608,-605.0000721,-16.33886651,-226546,14293,1.03083444,128,-8.13993551,-112864,42752,17304.6875,128
-8388608,-605.0000721,-16.34651141,-226652,14293,1.03083444,128,-8.146498578,-112955,43392,17324.21875,128
-8388608,-605.0000721,-16.33958773,-226556,14397,1.038335089,128,-8.139430659,-112857,44032,17343.75,128
-8388608,-605.0000721,-16.33006767,-226424,14421,1.040066009,128,-8.137339132,-112828,44672,17363.28125,128
-8388608,-605.0000721,-16.32696644,-226381,14301,1.031411413,128,-8.129477874,-112719,45312,17382.8125,128
-8388608,-605.0000721,-16.30662814,-226099,14273,1.029392008,128,-8.133877293,-112780,45952,17402.34375,128
-8388608,-605.0000721,-16.31528274,-226219,14247,1.027516845,128,-8.139214294,-112854,46592,17421.875,128
-8388608,-605.0000721,-16.28592924,-225812,14564,1.050379401,128,-8.126593009,-112679,47232,17441.40625,128
-8388608,-605.0000721,-16.29155472,-225890,14226,1.026002291,128,-8.090892803,-112184,47872,17460.9375,128
-8388608,-605.0000721,-16.23255923,-225072,14469,1.043527847,128,-8.077117571,-111993,48512,17480.46875,128
-8388608,-605.0000721,-16.24986842,-225312,14348,1.03480113,128,-8.110582007,-112457,49152,17500,128
-8388608,-605.0000721,-16.28737167,-225832,14325,1.033142332,128,-8.16914477,-113269,49792,17519.53125,128
-8388608,-605.0000721,-16.32732705,-226386,14146,1.020232561,128,-8.179313919,-113410,50432,17539.0625,128
-8388608,-605.0000721,-16.34247259,-226596,14248,1.027588967,128,-8.173976919,-113336,51072,17558.59375,128
-8388608,-605.0000721,-16.34860293,-226681,14382,1.037253265,128,-8.176789662,-113375,51712,17578.125,128
-8388608,-605.0000721,-16.3101621,-226148,14505,1.046124225,128,-8.221577194,-113996,52352,17597.65625,128
-8388608,-605.0000721,-16.0547073,-222606,17944,1.294150507,128,-8.007375956,-111026,52992,17617.1875,128
-8388608,-605.0000721,-15.45112138,-214237,16000,1.15394606,128,-7.307147063,-101317,53632,17636.71875,128
-8388608,-605.0000721,-16.41740697,-227635,12929,0.932460538,128,-7.91145419,-109696,54272,17656.25,128
-8388608,-605.0000721,-16.24474779,-225241,14610,1.053696996,128,-8.211480166,-113856,54912,17675.78125,128
-8388608,-605.0000721,-16.27366856,-225642,14232,1.026435021,128,-8.162653823,-113179,55552,17695.3125,128
-8388608,-605.0000721,-16.29270867,-225906,14491,1.045114523,128,-8.144839781,-112932,56192,17714.84375,128
-8388608,-605.0000721,-16.2791498,-225718,14425,1.040354495,128,-8.098826182,-112294,56832,17734.375,128
-8388608,-605.0000721,-16.27561584,-225669,14513,1.046701198,128,-8.094715249,-112237,57472,17753.90625,128
-8388608,-605.0000721,-16.26862005,-225572,14425,1.040354495,128,-8.104668034,-112375,58112,17773.4375,128
-8388608,-605.0000721,-16.24114171,-225191,14714,1.061197646,128,-8.055120475,-111688,58752,17792.96875,128
-8388608,-605.0000721,-16.23291984,-225077,14649,1.05650974,128,-8.017545106,-111167,59392,17812.5,128
-8388608,-605.0000721,-16.17724194,-224305,14546,1.049081212,128,-7.911598433,-109698,60032,17832.03125,128
-8388608,-605.0000721,-16.1620964,-224095,14433,1.040931468,128,-7.885274039,-109333,60672,17851.5625,128
-8388608,-605.0000721,-16.16433217,-224126,14311,1.032132629,128,-7.879360065,-109251,61312,17871.09375,128
-8388608,-605.0000721,-16.20580211,-224701,14168,1.021819236,128,-7.91722392,-109776,61952,17890.625,128
-8388608,-605.0000721,-16.2451084,-225246,14079,1.015400412,128,-8.031680945,-111363,62592,17910.15625,128
-8388608,-605.0000721,-16.27467826,-225656,14161,1.021314385,128,-8.09651829,-112262,63232,17929.6875,128
-8388608,-605.0000721,-16.28722743,-225830,14153,1.020737412,128,-8.122842684,-112627,63872,17949.21875,128
-8388608,-605.0000721,-16.30662814,-226099,14186,1.023117426,128,-8.143757956,-112917,64512,17968.75,128
-8388608,-605.0000721,-16.31975428,-226281,14104,1.017203452,128,-8.147219795,-112965,65152,17988.28125,128
-8388608,-605.0000721,-16.32177369,-226309,14090,1.016193749,128,-8.133660928,-112777,256,18007.8125,128
-8388608,-605.0000721,-16.3204755,-226291,14296,1.031050805,128,-8.147868889,-112974,896,18027.34375,128
-8388608,-605.0000721,-16.28982381,-225866,14414,1.039561157,128,-8.120606914,-112596,1536,18046.875,128
-8388608,-605.0000721,-16.27922193,-225719,14383,1.037325387,128,-8.10892321,-112434,2176,18066.40625,128
-8388608,-605.0000721,-16.26991824,-225590,14329,1.033430819,128,-8.122482076,-112622,2816,18085.9375,128
-8388608,-605.0000721,-16.2717934,-225616,14376,1.036820535,128,-8.108562602,-112429,3456,18105.46875,128
-8388608,-605.0000721,-16.26184061,-225478,14398,1.038407211,128,-8.125078455,-112658,4096,18125,128
-8388608,-605.0000721,-16.25296965,-225355,14654,1.056870348,128,-8.074232706,-111953,4736,18144.53125,128
-8388608,-605.0000721,-16.23789623,-225146,14565,1.050451523,128,-8.067813881,-111864,5376,18164.0625,128
-8388608,-605.0000721,-16.21892824,-224883,14533,1.048143631,128,-8.077694545,-112001,6016,18183.59375,128
-8388608,-605.0000721,-16.23003497,-225037,14239,1.026939872,128,-8.103514088,-112359,6656,18203.125,128
-8388608,-605.0000721,-16.28737167,-225832,14121,1.01842952,128,-8.144262808,-112924,7296,18222.65625,128
-8388608,-605.0000721,-16.30049781,-226014,14282,1.030041102,128,-8.148950714,-112989,7936,18242.1875,128
-8388608,-605.0000721,-16.29927174,-225997,14313,1.032276873,128,-8.151402849,-113023,8576,18261.71875,128
-8388608,-605.0000721,-16.3098015,-226143,14250,1.02773321,128,-8.15940835,-113134,9216,18281.25,128
-8388608,-605.0000721,-16.24972418,-225310,14976,1.080093513,128,-8.191935204,-113585,9856,18300.78125,128
-8388608,-605.0000721,-15.59983618,-216299,17502,1.262272747,128,-7.60681243,-105472,10496,18320.3125,128
-8388608,-605.0000721,-15.91342102,-220647,10373,0.748117655,128,-7.23351088,-100296,11136,18339.84375,128
-8388608,-605.0000721,-16.24056473,-225183,13004,0.937869661,128,-8.113322629,-112495,11776,18359.375,128
-8388608,-605.0000721,-16.21294215,-224800,14355,1.035305981,128,-8.14880647,-112987,12416,18378.90625,128
-8388608,-605.0000721,-16.22080341,-224909,14368,1.036243562,128,-8.122482076,-112622,13056,18398.4375,128
-8388608,-605.0000721,-16.23328045,-225082,14287,1.03040171,128,-8.098537695,-112290,13696,18417.96875,128
-8388608,-605.0000721,-16.22498646,-224967,14478,1.044176941,128,-8.081733356,-112057,14336,18437.5,128
-8388608,-605.0000721,-16.22116401,-224914,14460,1.042878752,128,-8.060024745,-111756,14976,18457.03125,128
-8388608,-605.0000721,-16.21092274,-224772,14673,1.058240659,128,-8.042931919,-111519,15616,18476.5625,128
-8388608,-605.0000721,-16.19520023,-224554,14723,1.06184674,128,-8.001461983,-110944,16256,18496.09375,128
-8388608,-605.0000721,-16.16325035,-224111,14764,1.064803727,128,-7.950688356,-110240,16896,18515.625,128
-8388608,-605.0000721,-16.13721444,-223750,14697,1.059971578,128,-7.899265635,-109527,17536,18535.15625,128
-8388608,-605.0000721,-16.10382212,-223287,14421,1.040066009,128,-7.854189617,-108902,18176,18554.6875,128
-8388608,-605.0000721,-16.13346411,-223698,14158,1.02109802,128,-7.877557025,-109226,18816,18574.21875,128
-8388608,-605.0000721,-16.16490914,-224134,14024,1.011433722,128,-7.946144694,-110177,19456,18593.75,128
-8388608,-605.0000721,-16.19303658,-224524,14113,1.017852547,128,-8.030887607,-111352,20096,18613.28125,128
-8388608,-605.0000721,-16.22123614,-224915,14212,1.024992588,128,-8.112673534,-112486,20736,18632.8125,128
-8388608,-605.0000721,-16.24604598,-225259,14351,1.035017495,128,-8.122337833,-112620,21376,18652.34375,128
-8388608,-605.0000721,-16.25556603,-225391,14396,1.038262968,128,-8.138276713,-112841,22016,18671.875,128
-8388608,-605.0000721,-16.25448421,-225376,14585,1.051893956,128,-8.136978523,-112823,22656,18691.40625,128
-8388608,-605.0000721,-16.26176849,-225477,14448,1.042013293,128,-8.151763457,-113028,23296,18710.9375,128
-8388608,-605.0000721,-16.23977139,-225172,14636,1.055572159,128,-8.14303674,-112907,23936,18730.46875,128
-8388608,-605.0000721,-16.24114171,-225191,14718,1.061486132,128,-8.150032538,-113004,24576,18750,128
-8388608,-605.0000721,-16.20205178,-224649,14654,1.056870348,128,-8.124285117,-112647,25216,18769.53125,128
-8388608,-605.0000721,-16.19952753,-224614,14566,1.050523645,128,-8.134670631,-112791,25856,18789.0625,128
-8388608,-605.0000721,-16.19758024,-224587,14424,1.040282373,128,-8.132146374,-112756,26496,18808.59375,128
-8388608,-605.0000721,-16.19952753,-224614,14477,1.04410482,128,-8.148950714,-112989,27136,18828.125,128
-8388608,-605.0000721,-16.18503108,-224413,14464,1.043167239,128,-8.11736144,-112551,27776,18847.65625,128
-8388608,-605.0000721,-16.12553073,-223588,14671,1.058096416,128,-8.076468477,-111984,28416,18867.1875,128
-8388608,-605.0000721,-16.13620474,-223736,14276,1.029608372,128,-8.132795469,-112765,29056,18886.71875,128
-8388608,-605.0000721,-16.16202428,-224094,14173,1.022179845,128,-8.176284811,-113368,29696,18906.25,128
-8388608,-605.0000721,-16.22347191,-224946,13907,1.002995491,128,-8.211480166,-113856,30336,18925.78125,128
-8388608,-605.0000721,-16.23703077,-225134,14087,1.015977385,128,-8.223740843,-114026,30976,18945.3125,128
-8388608,-605.0000721,-16.24460354,-225239,14442,1.041580563,128,-8.223668721,-114025,31616,18964.84375,128
-8388608,-605.0000721,-16.23140529,-225056,14407,1.039056306,128,-8.23513606,-114184,32256,18984.375,128
-8388608,-605.0000721,-16.1150731,-223443,15671,1.130218045,128,-8.199940705,-113696,32896,19003.90625,128
-8388608,-605.0000721,-15.41758483,-213772,20083,1.448418671,128,-7.609625174,-105511,33536,19023.4375,128
-8388608,-605.0000721,-16.26804307,-225564,9913,0.714941706,128,-7.842938643,-108746,34176,19042.96875,128
-8388608,-605.0000721,-16.10988034,-223371,14873,1.072664985,128,-8.242925196,-114292,34816,19062.5,128
-8388608,-605.0000721,-16.17854013,-224323,14183,1.022901061,128,-8.231025127,-114127,35456,19082.03125,128
-8388608,-605.0000721,-16.19483962,-224549,14148,1.020376804,128,-8.212634112,-113872,36096,19101.5625,128
-8388608,-605.0000721,-16.19556084,-224559,14314,1.032348994,128,-8.195469164,-113634,36736,19121.09375,128
-8388608,-605.0000721,-16.20623484,-224707,14433,1.040931468,128,-8.197849178,-113667,37376,19140.625,128
-8388608,-605.0000721,-16.18856504,-224462,14532,1.048071509,128,-8.168784162,-113264,38016,19160.15625,128
-8388608,-605.0000721,-16.18120863,-224360,14316,1.032493238,128,-8.131857888,-112752,38656,19179.6875,128
-8388608,-605.0000721,-16.17197706,-224232,14422,1.04013813,128,-8.116495981,-112539,39296,19199.21875,128
-8388608,-605.0000721,-16.13281502,-223689,14713,1.061125524,128,-8.021583917,-111223,39936,19218.75,128
-8388608,-605.0000721,-16.09567238,-223174,14660,1.057303078,128,-7.967925426,-110479,40576,19238.28125,128
-8388608,-605.0000721,-16.09769179,-223202,14431,1.040787225,128,-7.955087776,-110301,41216,19257.8125,128
-8388608,-605.0000721,-16.12214102,-223541,14302,1.031483535,128,-7.985018252,-110716,41856,19277.34375,128
-8388608,-605.0000721,-16.1374308,-223753,14574,1.051100618,128,-8.077550301,-111999,42496,19296.875,128
-8388608,-605.0000721,-16.18005469,-224344,14499,1.045691496,128,-8.167990824,-113253,43136,19316.40625,128
-8388608,-605.0000721,-16.19231536,-224514,14689,1.059394605,128,-8.200301313,-113701,43776,19335.9375,128
-8388608,-605.0000721,-16.21373549,-224811,14697,1.059971578,128,-8.231962708,-114140,44416,19355.46875,128
-8388608,-605.0000721,-16.21323064,-224804,14829,1.069491633,128,-8.235640912,-114191,45056,19375,128
-8388608,-605.0000721,-16.2224622,-224932,14859,1.071655282,128,-8.248767048,-114373,45696,19394.53125,128
-8388608,-605.0000721,-16.2097688,-224756,14885,1.073530444,128,-8.234847574,-114180,46336,19414.0625,128
-8388608,-605.0000721,-16.22585192,-224979,14883,1.073386201,128,-8.234126357,-114170,46976,19433.59375,128
-8388608,-605.0000721,-16.21186032,-224785,14714,1.061197646,128,-8.237227587,-114213,47616,19453.125,128
-8388608,-605.0000721,-16.20060935,-224629,14723,1.06184674,128,-8.226337221,-114062,48256,19472.65625,128
-8388608,-605.0000721,-16.18856504,-224462,14611,1.053769118,128,-8.230880884,-114125,48896,19492.1875,128
-8388608,-605.0000721,-16.17897286,-224329,14716,1.061341889,128,-8.235208182,-114185,49536,19511.71875,128
-8388608,-605.0000721,-16.16029336,-224070,14731,1.062423713,128,-8.211119558,-113851,50176,19531.25,128
-8388608,-605.0000721,-16.15365817,-223978,14635,1.055500037,128,-8.181910298,-113446,50816,19550.78125,128
-8388608,-605.0000721,-16.09711481,-223194,14842,1.070429214,128,-8.165394445,-113217,51456,19570.3125,128
-8388608,-605.0000721,-16.10288454,-223274,14654,1.056870348,128,-8.198209786,-113672,52096,19589.84375,128
-8388608,-605.0000721,-16.12062646,-223520,14566,1.050523645,128,-8.249127656,-114378,52736,19609.375,128
-8388608,-605.0000721,-16.1834444,-224391,14343,1.034440522,128,-8.2546089,-114454,53376,19628.90625,128
-8388608,-605.0000721,-16.1877717,-224451,14668,1.057880051,128,-8.274442348,-114729,54016,19648.4375,128
-8388608,-605.0000721,-16.19620993,-224568,14682,1.058889754,128,-8.263624104,-114579,54656,19667.96875,128
-8388608,-605.0000721,-16.19923904,-224610,14626,1.054850942,128,-8.27278355,-114706,55296,19687.5,128
-8388608,-605.0000721,-15.98287415,-221610,16556,1.194045686,128,-8.138132469,-112839,55936,19707.03125,128
-8388608,-605.0000721,-15.25271478,-211486,19533,1.408751775,128,-7.471007403,-103589,56576,19726.5625,128
-8388608,-605.0000721,-16.25131086,-225332,9259,0.667774161,128,-7.985234616,-110719,57216,19746.09375,128
-8388608,-605.0000721,-16.05651034,-222631,14901,1.07468439,128,-8.286630903,-114898,57856,19765.625,128
-8388608,-605.0000721,-16.11009671,-223374,14403,1.038767819,128,-8.24573794,-114331,58496,19785.15625,128
-8388608,-605.0000721,-16.11824645,-223487,14445,1.041796928,128,-8.213355328,-113882,59136,19804.6875,128
-8388608,-605.0000721,-16.12163617,-223534,14565,1.050451523,128,-8.206720138,-113790,59776,19824.21875,128
-8388608,-605.0000721,-16.11788584,-223482,14583,1.051749712,128,-8.185372136,-113494,60416,19843.75,128
-8388608,-605.0000721,-16.11189975,-223399,14705,1.060548551,128,-8.170298716,-113285,61056,19863.28125,128
-8388608,-605.0000721,-16.0850705,-223027,14776,1.065669187,128,-8.146714943,-112958,61696,19882.8125,128
-8388608,-605.0000721,-16.06603039,-222763,14766,1.064947971,128,-8.099835885,-112308,62336,19902.34375,128
-8388608,-605.0000721,-16.04396117,-222457,14576,1.051244861,128,-8.036440973,-111429,62976,19921.875,128
-8388608,-605.0000721,-15.99830818,-221824,14524,1.047494536,128,-7.971964237,-110535,63616,19941.40625,128
-8388608,-605.0000721,-15.99253845,-221744,14360,1.035666589,128,-7.954438681,-110292,64256,19960.9375,128
-8388608,-605.0000721,-16.03177262,-222288,14083,1.015688898,128,-8.007880808,-111033,64896,19980.46875,128
-8388608,-605.0000721,-16.05975581,-222676,14143,1.020016196,128,-8.081589112,-112055,0,20000,128
-8388608,-605.0000721,-16.09170569,-223119,14278,1.029752616,128,-8.149527687,-112997,640,20019.53125,128
-8388608,-605.0000721,-16.11168338,-223396,14223,1.025785926,128,-8.191141867,-113574,1280,20039.0625,128
-8388608,-605.0000721,-16.12387194,-223565,14379,1.0370369,128,-8.227346924,-114076,1920,20058.59375,128
-8388608,-605.0000721,-16.14183022,-223814,14227,1.026074413,128,-8.224894789,-114042,2560,20078.125,128
-8388608,-605.0000721,-16.15135028,-223946,14176,1.02239621,128,-8.230015424,-114113,3200,20097.65625,128
-8388608,-605.0000721,-16.14752783,-223893,14243,1.027228359,128,-8.203402543,-113744,3840,20117.1875,128
-8388608,-605.0000721,-16.14637389,-223877,14174,1.022251966,128,-8.204484368,-113759,4480,20136.71875,128
-8388608,-605.0000721,-16.12271799,-223549,14364,1.035955076,128,-8.19662311,-113650,5120,20156.25,128
-8388608,-605.0000721,-16.11586644,-223454,14347,1.034729008,128,-8.197200083,-113658,5760,20175.78125,128
-8388608,-605.0000721,-16.09459056,-223159,14331,1.033575062,128,-8.198209786,-113672,6400,20195.3125,128
-8388608,-605.0000721,-16.10382212,-223287,14287,1.03040171,128,-8.201815868,-113722,7040,20214.84375,128
-8388608,-605.0000721,-16.10129787,-223252,14196,1.023838642,128,-8.188833974,-113542,7680,20234.375,128
-8388608,-605.0000721,-16.08716203,-223056,14370,1.036387806,128,-8.165899297,-113224,8320,20253.90625,128
-8388608,-605.0000721,-16.06408311,-222736,14591,1.052326685,128,-8.140079753,-112866,8960,20273.4375,128
-8388608,-605.0000721,-16.04388905,-222456,14451,1.042229657,128,-8.157244701,-113104,9600,20292.96875,128
-8388608,-605.0000721,-16.06199158,-222707,14322,1.032925967,128,-8.194026732,-113614,10240,20312.5,128
-8388608,-605.0000721,-16.12661256,-223603,14126,1.018790128,128,-8.233693628,-114164,10880,20332.03125,128
-8388608,-605.0000721,-16.13281502,-223689,14370,1.036387806,128,-8.23246756,-114147,11520,20351.5625,128
-8388608,-605.0000721,-16.13591625,-223732,14398,1.038407211,128,-8.231313614,-114131,12160,20371.09375,128
-8388608,-605.0000721,-16.14226295,-223820,14314,1.032348994,128,-8.237299709,-114214,12800,20390.625,128
-8388608,-605.0000721,-16.07562257,-222896,14921,1.076126823,128,-8.263407739,-114576,13440,20410.15625,128
-8388608,-605.0000721,-15.33839528,-212674,19768,1.425700358,128,-7.631189541,-105810,14080,20429.6875,128
-8388608,-605.0000721,-15.81374893,-219265,11027,0.795285201,128,-7.388788746,-102449,14720,20449.21875,128
-8388608,-605.0000721,-16.04590846,-222484,14672,1.058168537,128,-8.229726938,-114109,15360,20468.75,128
-8388608,-605.0000721,-16.04951454,-222534,14226,1.026002291,128,-8.228140262,-114087,16000,20488.28125,128
-8388608,-605.0000721,-16.07764197,-222924,14087,1.015977385,128,-8.223812964,-114027,16640,20507.8125,128
-8388608,-605.0000721,-16.07381953,-222871,14299,1.03126717,128,-8.200084949,-113698,17280,20527.34375,128
-8388608,-605.0000721,-16.07446862,-222880,14286,1.030329589,128,-8.18378546,-113472,17920,20546.875,128
-8388608,-605.0000721,-16.07208861,-222847,14334,1.033791427,128,-8.171452662,-113301,18560,20566.40625,128
-8388608,-605.0000721,-16.06336189,-222726,14577,1.051316983,128,-8.154504079,-113066,19200,20585.9375,128
-8388608,-605.0000721,-16.03379202,-222316,14571,1.050884253,128,-8.096229803,-112258,19840,20605.46875,128
-8388608,-605.0000721,-16.00854945,-221966,14669,1.057952173,128,-8.057428367,-111720,20480,20625,128
-8388608,-605.0000721,-15.96715164,-221392,14557,1.04987455,128,-7.980186102,-110649,21120,20644.53125,128
-8388608,-605.0000721,-15.96354556,-221342,14463,1.043095117,128,-7.95530414,-110304,21760,20664.0625,128
-8388608,-605.0000721,-15.97357046,-221481,14152,1.02066529,128,-7.97254121,-110543,22400,20683.59375,128
-8388608,-605.0000721,-16.01641071,-222075,14164,1.02153075,128,-8.059736259,-111752,23040,20703.125,128
-8388608,-605.0000721,-16.04612482,-222487,14161,1.021314385,128,-8.137194888,-112826,23680,20722.65625,128
-8388608,-605.0000721,-16.08499838,-223026,14089,1.016121628,128,-8.205349827,-113771,24320,20742.1875,128
-8388608,-605.0000721,-16.09386934,-223149,14224,1.025858048,128,-8.230953006,-114126,24960,20761.71875,128
-8388608,-605.0000721,-16.10324515,-223279,14421,1.040066009,128,-8.244223385,-114310,25600,20781.25,128
-8388608,-605.0000721,-16.11384703,-223426,14331,1.033575062,128,-8.239607601,-114246,26240,20800.78125,128
-8388608,-605.0000721,-16.11644341,-223462,14543,1.048864847,128,-8.240833669,-114263,26880,20820.3125,128
-8388608,-605.0000721,-16.09848512,-223213,14638,1.055716402,128,-8.240328817,-114256,27520,20839.84375,128
-8388608,-605.0000721,-16.10317303,-223278,14512,1.046629077,128,-8.24797371,-114362,28160,20859.375,128
-8388608,-605.0000721,-16.07598318,-222901,14596,1.052687294,128,-8.236145763,-114198,28800,20878.90625,128
-8388608,-605.0000721,-16.06552554,-222756,14490,1.045042401,128,-8.244511872,-114314,29440,20898.4375,128
-8388608,-605.0000721,-16.05852974,-222659,14445,1.041796928,128,-8.241050034,-114266,30080,20917.96875,128
-8388608,-605.0000721,-16.06826616,-222794,14370,1.036387806,128,-8.253671319,-114441,30720,20937.5,128
-8388608,-605.0000721,-16.06177521,-222704,14469,1.043527847,128,-8.257205279,-114490,31360,20957.03125,128
-8388608,-605.0000721,-16.06783343,-222788,14269,1.029103521,128,-8.271341118,-114686,32000,20976.5625,128
-8388608,-605.0000721,-16.04879332,-222524,14694,1.059755213,128,-8.246098548,-114336,32640,20996.09375,128
-8388608,-605.0000721,-16.03263808,-222300,14636,1.055572159,128,-8.220134761,-113976,33280,21015.625,128
-8388608,-605.0000721,-15.99268269,-221746,14719,1.061558254,128,-8.20989349,-113834,33920,21035.15625,128
-8388608,-605.0000721,-16.01561737,-222064,14346,1.034656886,128,-8.250858575,-114402,34560,21054.6875,128
-8388608,-605.0000721,-16.04122055,-222419,14204,1.024415615,128,-8.290164863,-114947,35200,21074.21875,128
-8388608,-605.0000721,-16.08442141,-223018,14319,1.032709602,128,-8.300910986,-115096,35840,21093.75,128
-8388608,-605.0000721,-16.10064877,-223243,14173,1.022179845,128,-8.321754136,-115385,36480,21113.28125,128
-8388608,-605.0000721,-16.09653784,-223186,14309,1.031988386,128,-8.311224378,-115239,37120,21132.8125,128
-8388608,-605.0000721,-16.06264067,-222716,14635,1.055500037,128,-8.337693016,-115606,37760,21152.34375,128
-8388608,-605.0000721,-15.8359624,-219573,19404,1.399448085,128,-8.146282213,-112952,38400,21171.875,128
-8388608,-605.0000721,-15.57163663,-215908,13453,0.970252272,128,-7.441365414,-103178,39040,21191.40625,128
-8388608,-605.0000721,-16.12971379,-223646,10834,0.781365726,128,-8.120246305,-112591,39680,21210.9375,128
-8388608,-605.0000721,-16.00422216,-221906,14099,1.016842844,128,-8.308988608,-115208,40320,21230.46875,128
-8388608,-605.0000721,-16.03097928,-222277,14161,1.021314385,128,-8.278409037,-114784,40960,21250,128
-8388608,-605.0000721,-16.04792786,-222512,14218,1.025425318,128,-8.26744655,-114632,41600,21269.53125,128
-8388608,-605.0000721,-16.04749513,-222506,14367,1.036171441,128,-8.250281602,-114394,42240,21289.0625,128
-8388608,-605.0000721,-16.04266298,-222439,14531,1.047999388,128,-8.253599197,-114440,42880,21308.59375,128
-8388608,-605.0000721,-16.03595567,-222346,14548,1.049225455,128,-8.227563289,-114079,43520,21328.125,128
-8388608,-605.0000721,-16.0247047,-222190,14730,1.062351592,128,-8.200806165,-113708,44160,21347.65625,128
-8388608,-605.0000721,-16.00277972,-221886,14661,1.057375199,128,-8.133083955,-112769,44800,21367.1875,128
-8388608,-605.0000721,-15.95921826,-221282,14910,1.075333485,128,-8.061034448,-111770,45440,21386.71875,128
-8388608,-605.0000721,-15.93505751,-220947,14648,1.056437618,128,-8.01639116,-111151,46080,21406.25,128
-8388608,-605.0000721,-15.94428908,-221075,14523,1.047422415,128,-8.023314836,-111247,46720,21425.78125,128
-8388608,-605.0000721,-15.96585345,-221374,14351,1.035017495,128,-8.045311933,-111552,47360,21445.3125,128
-8388608,-605.0000721,-16.00378943,-221900,14156,1.020953777,128,-8.175058743,-113351,48000,21464.84375,128
-8388608,-605.0000721,-16.01792526,-222096,14288,1.030473832,128,-8.240328817,-114256,48640,21484.375,128
-8388608,-605.0000721,-16.04518724,-222474,14254,1.028021697,128,-8.283962403,-114861,49280,21503.90625,128
-8388608,-605.0000721,-16.04179752,-222427,14424,1.040282373,128,-8.292905485,-114985,49920,21523.4375,128
-8388608,-605.0000721,-16.05420244,-222599,14317,1.032565359,128,-8.285260592,-114879,50560,21542.96875,128
-8388608,-605.0000721,-16.05578912,-222621,14484,1.044609671,128,-8.293770944,-114997,51200,21562.5,128
-8388608,-605.0000721,-16.06934799,-222809,14302,1.031483535,128,-8.310286797,-115226,51840,21582.03125,128
-8388608,-605.0000721,-16.05009151,-222542,14688,1.059322483,128,-8.295573985,-115022,52480,21601.5625,128
-8388608,-605.0000721,-16.0513897,-222560,14579,1.051461226,128,-8.303723729,-115135,53120,21621.09375,128
-8388608,-605.0000721,-16.04230238,-222434,14728,1.062207349,128,-8.280572686,-114814,53760,21640.625,128
-8388608,-605.0000721,-16.03184474,-222289,14607,1.053480632,128,-8.285116349,-114877,54400,21660.15625,128
-8388608,-605.0000721,-16.02333439,-222171,14804,1.067688592,128,-8.296078836,-115029,55040,21679.6875,128
-8388608,-605.0000721,-16.01467979,-222051,14816,1.068554052,128,-8.287856971,-114915,55680,21699.21875,128
-8388608,-605.0000721,-16.01222766,-222017,14700,1.060187943,128,-8.296800053,-115039,56320,21718.75,128
-8388608,-605.0000721,-15.99491847,-221777,14884,1.073458323,128,-8.254031927,-114446,56960,21738.28125,128
-8388608,-605.0000721,-15.97789776,-221541,15033,1.084204445,128,-8.252373129,-114423,57600,21757.8125,128
-8388608,-605.0000721,-15.94659697,-221107,14732,1.062495835,128,-8.237371831,-114215,58240,21777.34375,128
-8388608,-605.0000721,-15.96296858,-221334,14299,1.03126717,128,-8.276822362,-114762,58880,21796.875,128
-8388608,-605.0000721,-16.02044952,-222131,14128,1.018934371,128,-8.323845664,-115414,59520,21816.40625,128
-8388608,-605.0000721,-16.02924836,-222253,14295,1.030978683,128,-8.312811054,-115261,60160,21835.9375,128
-8388608,-605.0000721,-16.04179752,-222427,14477,1.04410482,128,-8.321970501,-115388,60800,21855.46875,128
-8388608,-605.0000721,-16.05809701,-222653,14482,1.044465428,128,-8.341299098,-115656,61440,21875,128
-8388608,-605.0000721,-16.1230786,-223554,14231,1.026362899,128,-8.476094422,-117525,62080,21894.53125,128
-8388608,-605.0000721,-15.57726211,-215986,18228,1.314633049,128,-8.092695843,-112209,62720,21914.0625,128
