Device,Device,Device,Device,Device,Device,Device,Device,Device,Device,Device,Device
ECG Vx-RL,ECG Vx-RL,ECG LA-RA,ECG LA-RA,ExG2 CH1,ExG2 CH1,EXG1 Status,ECG LL-RA,ECG LL-RA,Timestamp,Timestamp,EXG2 Status
RAW,CAL,RAW,CAL,RAW,CAL,RAW,CAL,RAW,CAL,RAW,RAW
No Units,mV,No Units,mV,No Units,mV,No Units,mV,No Units,mSecs,No Units,No Units
-8388608,-605.0000721,-210788,-15.20237389,14493,1.045258766,128,-8.7461178,-121269,6039.0625,1280,128
-8388608,-605.0000721,-207232,-14.94590937,14692,1.05961097,128,-8.665846427,-120156,6058.59375,1920,128
-8388608,-605.0000721,-203066,-14.64545067,15951,1.150412101,128,-8.268312009,-114644,6078.125,2560,128
-8388608,-605.0000721,-205226,-14.80123339,12526,0.903395522,128,-7.976003048,-110591,6097.65625,3200,128
-8388608,-605.0000721,-203918,-14.7068983,13961,1.006890059,128,-8.367046519,-116013,6117.1875,3840,128
-8388608,-605.0000721,-204057,-14.7169232,14046,1.013020398,128,-8.424743822,-116813,6136.71875,4480,128
-8388608,-605.0000721,-203696,-14.6908873,14221,1.025641683,128,-8.418685605,-116729,6156.25,5120,128
-8388608,-605.0000721,-203559,-14.68100663,14181,1.022756818,128,-8.403900671,-116524,6175.78125,5760,128
-8388608,-605.0000721,-203174,-14.6532398,14297,1.031122927,128,-8.376422331,-116143,6195.3125,6400,128
-8388608,-605.0000721,-203841,-14.70134493,13706,0.988499044,128,-8.392144846,-116361,6214.84375,7040,128
-8388608,-605.0000721,-203293,-14.66182228,14064,1.014318587,128,-8.362574978,-115951,6234.375,7680,128
-8388608,-605.0000721,-203378,-14.66795262,13971,1.007611276,128,-8.334375421,-115560,6253.90625,8320,128
-8388608,-605.0000721,-203019,-14.64206095,14206,1.024559858,128,-8.274658713,-114732,6273.4375,8960,128
-8388608,-605.0000721,-203007,-14.64119549,14044,1.012876155,128,-8.238165169,-114226,6292.96875,9600,128
-8388608,-605.0000721,-202943,-14.63657971,14401,1.038623576,128,-8.202464962,-113731,6312.5,10240,128
-8388608,-605.0000721,-201880,-14.55991442,14555,1.049730307,128,-8.159913201,-113141,6332.03125,10880,128
-8388608,-605.0000721,-202151,-14.57945938,14244,1.02730048,128,-8.160129566,-113144,6351.5625,11520,128
-8388608,-605.0000721,-203012,-14.6415561,13925,1.004293681,128,-8.232395438,-114146,6371.09375,12160,128
-8388608,-605.0000721,-204268,-14.73214087,13545,0.976887462,128,-8.324711123,-115426,6390.625,12800,128
-8388608,-605.0000721,-205009,-14.78558299,13914,1.003500343,128,-8.375556871,-116131,6410.15625,13440,128
-8388608,-605.0000721,-205016,-14.78608785,14148,1.020376804,128,-8.388466643,-116310,6429.6875,14080,128
-8388608,-605.0000721,-205076,-14.79041514,14522,1.047350293,128,-8.384572075,-116256,6449.21875,14720,128
-8388608,-605.0000721,-205715,-14.83650086,14129,1.019006493,128,-8.401809144,-116495,6468.75,15360,128
-8388608,-605.0000721,-205409,-14.81443165,14368,1.036243562,128,-8.395823049,-116412,6488.28125,16000,128
-8388608,-605.0000721,-205544,-14.82416807,14258,1.028310183,128,-8.396976995,-116428,6507.8125,16640,128
-8388608,-605.0000721,-205414,-14.81479225,14274,1.029464129,128,-8.373537466,-116103,6527.34375,17280,128
-8388608,-605.0000721,-205699,-14.83534692,14054,1.013597371,128,-8.379667804,-116188,6546.875,17920,128
-8388608,-605.0000721,-205201,-14.79943035,14498,1.045619374,128,-8.36221437,-115946,6566.40625,18560,128
-8388608,-605.0000721,-205142,-14.79517517,14322,1.032925967,128,-8.369065925,-116041,6585.9375,19200,128
-8388608,-605.0000721,-205068,-14.78983817,14505,1.046124225,128,-8.3679841,-116026,6605.46875,19840,128
-8388608,-605.0000721,-205412,-14.81464801,14195,1.02376652,128,-8.386014508,-116276,6625,20480,128
-8388608,-605.0000721,-205657,-14.83231781,14218,1.025425318,128,-8.386952089,-116289,6644.53125,21120,128
-8388608,-605.0000721,-205531,-14.82323048,14444,1.041724806,128,-8.391639995,-116354,6664.0625,21760,128
-8388608,-605.0000721,-205361,-14.81096981,14379,1.0370369,128,-8.407074023,-116568,6683.59375,22400,128
-8388608,-605.0000721,-205384,-14.8126286,14388,1.037685995,128,-8.418180754,-116722,6703.125,23040,128
-8388608,-605.0000721,-205543,-14.82409594,14366,1.036099319,128,-8.403972793,-116525,6722.65625,23680,128
-8388608,-605.0000721,-205876,-14.84811245,14155,1.020881655,128,-8.446308189,-117112,6742.1875,24320,128
-8388608,-605.0000721,-205279,-14.80505583,14320,1.032781724,128,-8.422147444,-116777,6761.71875,24960,128
-8388608,-605.0000721,-205492,-14.82041774,14134,1.019367101,128,-8.418252876,-116723,6781.25,25600,128
-8388608,-605.0000721,-205137,-14.79481456,13896,1.002202153,128,-8.395390319,-116406,6800.78125,26240,128
-8388608,-605.0000721,-205958,-14.85402642,14010,1.010424019,128,-8.436571769,-116977,6820.3125,26880,128
-8388608,-605.0000721,-205151,-14.79582426,14669,1.057952173,128,-8.417387416,-116711,6839.84375,27520,128
-8388608,-605.0000721,-205233,-14.80173824,14450,1.042157536,128,-8.420344403,-116752,6859.375,28160,128
-8388608,-605.0000721,-205518,-14.8222929,14129,1.019006493,128,-8.415728619,-116688,6878.90625,28800,128
-8388608,-605.0000721,-211998,-15.28964106,11831,0.85327099,128,-8.403756428,-116522,6898.4375,29440,128
-8388608,-605.0000721,-214999,-15.50607807,12259,0.884139047,128,-8.368705317,-116036,6917.96875,30080,128
-8388608,-605.0000721,-217434,-15.68169423,12943,0.933470241,128,-8.360122843,-115917,6937.5,30720,128
-8388608,-605.0000721,-220264,-15.88579844,13126,0.946668499,128,-8.378225372,-116168,6957.03125,31360,128
-8388608,-605.0000721,-223347,-16.10814942,12442,0.897337305,128,-8.444505148,-117087,6976.5625,32000,128
-8388608,-605.0000721,-226731,-16.35220901,12894,0.929936281,128,-8.467944678,-117412,6996.09375,32640,128
-8388608,-605.0000721,-227244,-16.38920741,13953,1.006313086,128,-8.487778126,-117687,7015.625,33280,128
-8388608,-605.0000721,-224931,-16.22239008,15626,1.126972571,128,-7.739299862,-107309,7035.15625,33920,128
-8388608,-605.0000721,-230657,-16.63535853,11318,0.816272594,128,-7.911670555,-109699,7054.6875,34560,128
-8388608,-605.0000721,-232429,-16.76315805,13376,0.964698907,128,-8.396111536,-116416,7074.21875,35200,128
-8388608,-605.0000721,-233472,-16.83838091,13588,0.979988692,128,-8.397553968,-116436,7093.75,35840,128
-8388608,-605.0000721,-235179,-16.96149253,13663,0.985397814,128,-8.441187554,-117041,7113.28125,36480,128
-8388608,-605.0000721,-236272,-17.04032147,13879,1.000976086,128,-8.416377713,-116697,7132.8125,37120,128
-8388608,-605.0000721,-237399,-17.12160255,13779,0.993763923,128,-8.416882565,-116704,7152.34375,37760,128
-8388608,-605.0000721,-238441,-17.19675329,14064,1.014318587,128,-8.385653899,-116271,7171.875,38400,128
-8388608,-605.0000721,-232539,-16.77109143,17688,1.27568737,128,-8.375773236,-116134,7191.40625,39040,128
-8388608,-605.0000721,-227799,-16.42923491,16438,1.185535334,128,-8.366036816,-115999,7210.9375,39680,128
-8388608,-605.0000721,-225756,-16.28189043,15863,1.144065397,128,-8.341515463,-115659,7230.46875,40320,128
-8388608,-605.0000721,-223918,-16.14933087,15473,1.115937962,128,-8.300261891,-115087,7250,40960,128
-8388608,-605.0000721,-222163,-16.02275741,15148,1.092498433,128,-8.247036129,-114349,7269.53125,41600,128
-8388608,-605.0000721,-220023,-15.86841713,14675,1.058384902,128,-8.193305515,-113604,7289.0625,42240,128
-8388608,-605.0000721,-219804,-15.85262249,14594,1.05254305,128,-8.223308113,-114020,7308.59375,42880,128
-8388608,-605.0000721,-219581,-15.83653937,14434,1.04100359,128,-8.26968232,-114663,7328.125,43520,128
-8388608,-605.0000721,-220044,-15.86993168,14395,1.038190846,128,-8.404549766,-116533,7347.65625,44160,128
-8388608,-605.0000721,-220145,-15.87721597,14171,1.022035601,128,-8.455323393,-117237,7367.1875,44800,128
-8388608,-605.0000721,-220059,-15.87101351,14128,1.018934371,128,-8.485181747,-117651,7386.71875,45440,128
-8388608,-605.0000721,-219287,-15.81533561,14542,1.048792726,128,-8.475301084,-117514,7406.25,46080,128
-8388608,-605.0000721,-218887,-15.78648696,14410,1.039272671,128,-8.484604774,-117643,7425.78125,46720,128
-8388608,-605.0000721,-218659,-15.77004323,14490,1.045042401,128,-8.501192749,-117873,7445.3125,47360,128
-8388608,-605.0000721,-217676,-15.69914767,14922,1.076198945,128,-8.499245465,-117846,7464.84375,48000,128
-8388608,-605.0000721,-217444,-15.68241545,14662,1.057447321,128,-8.478041706,-117552,7484.375,48640,128
-8388608,-605.0000721,-217343,-15.67513116,14334,1.033791427,128,-8.486912666,-117675,7503.90625,49280,128
-8388608,-605.0000721,-216524,-15.61606355,14523,1.047422415,128,-8.491384207,-117737,7523.4375,49920,128
-8388608,-605.0000721,-216214,-15.59370584,14613,1.053913361,128,-8.48309022,-117622,7542.96875,50560,128
-8388608,-605.0000721,-216051,-15.58195002,14719,1.061558254,128,-8.467367705,-117404,7562.5,51200,128
-8388608,-605.0000721,-215578,-15.54783649,14503,1.045979982,128,-8.494990289,-117787,7582.03125,51840,128
-8388608,-605.0000721,-215526,-15.54408616,14576,1.051244861,128,-8.471695003,-117464,7601.5625,52480,128
-8388608,-605.0000721,-215534,-15.54466314,14127,1.01886225,128,-8.51229948,-118027,7621.09375,53120,128
-8388608,-605.0000721,-214652,-15.48105186,14723,1.06184674,128,-8.482369004,-117612,7640.625,53760,128
-8388608,-605.0000721,-214710,-15.48523491,14478,1.044176941,128,-8.508116425,-117969,7660.15625,54400,128
-8388608,-605.0000721,-214793,-15.49122101,14364,1.035955076,128,-8.50833279,-117972,7679.6875,55040,128
-8388608,-605.0000721,-214048,-15.4374904,14343,1.034440522,128,-8.526002589,-118217,7699.21875,55680,128
-8388608,-605.0000721,-214057,-15.43813949,14663,1.057519443,128,-8.531123225,-118288,7718.75,56320,128
-8388608,-605.0000721,-213996,-15.43374007,14447,1.041941171,128,-8.5247044,-118199,7738.28125,56960,128
-8388608,-605.0000721,-213969,-15.43179279,14511,1.046556955,128,-8.507323087,-117958,7757.8125,57600,128
-8388608,-605.0000721,-213469,-15.39573197,14664,1.057591564,128,-8.541652982,-118434,7777.34375,58240,128
-8388608,-605.0000721,-213284,-15.38238947,14587,1.052038199,128,-8.527949873,-118244,7796.875,58880,128
-8388608,-605.0000721,-213216,-15.3774852,14385,1.03746963,128,-8.5327099,-118310,7816.40625,59520,128
-8388608,-605.0000721,-213202,-15.3764755,14401,1.038623576,128,-8.52073771,-118144,7835.9375,60160,128
-8388608,-605.0000721,-217512,-15.68731972,12062,0.869931086,128,-8.551389402,-118569,7855.46875,60800,128
-8388608,-605.0000721,-222826,-16.07057405,11123,0.802208877,128,-8.544032996,-118467,7875,61440,128
-8388608,-605.0000721,-224820,-16.21438458,13843,0.998379707,128,-8.545908159,-118493,7894.53125,62080,128
-8388608,-605.0000721,-219999,-15.86668621,15544,1.121058598,128,-8.549225753,-118539,7914.0625,62720,128
-8388608,-605.0000721,-223487,-16.11824645,12535,0.904044617,128,-8.568770715,-118810,7933.59375,63360,128
-8388608,-605.0000721,-221904,-16.00407791,14659,1.057230956,128,-8.544032996,-118467,7953.125,64000,128
-8388608,-605.0000721,-218209,-15.73758849,15823,1.141180532,128,-8.516121926,-118080,7972.65625,64640,128
-8388608,-605.0000721,-217627,-15.69561371,14931,1.076848039,128,-8.521242561,-118151,7992.1875,65280,128
-8388608,-605.0000721,-216106,-15.58591671,14754,1.064082511,128,-8.507539452,-117961,8011.71875,384,128
-8388608,-605.0000721,-215637,-15.55209166,14678,1.058601267,128,-8.526723805,-118227,8031.25,1024,128
-8388608,-605.0000721,-215490,-15.54148978,14218,1.025425318,128,-8.536820833,-118367,8050.78125,1664,128
-8388608,-605.0000721,-215089,-15.51256901,14382,1.037253265,128,-8.574828932,-118894,8070.3125,2304,128
-8388608,-605.0000721,-214221,-15.44996744,15024,1.083555351,128,-8.612476422,-119416,8089.84375,2944,128
-8388608,-605.0000721,-209775,-15.12931468,16302,1.175726792,128,-7.76180181,-107621,8109.375,3584,128
-8388608,-605.0000721,-214839,-15.4945386,11971,0.863368018,128,-8.111808075,-112474,8128.90625,4224,128
-8388608,-605.0000721,-213132,-15.37142698,14677,1.058529146,128,-8.513020696,-118037,8148.4375,4864,128
-8388608,-605.0000721,-212876,-15.35296385,14441,1.041508441,128,-8.523911062,-118188,8167.96875,5504,128
-8388608,-605.0000721,-212271,-15.30933026,14381,1.037181143,128,-8.505375803,-117931,8187.5,6144,128
-8388608,-605.0000721,-212649,-15.33659224,14287,1.03040171,128,-8.527084413,-118232,8207.03125,6784,128
-8388608,-605.0000721,-212696,-15.33998195,14848,1.070861944,128,-8.524560156,-118197,8226.5625,7424,128
-8388608,-605.0000721,-211589,-15.26014331,14518,1.047061807,128,-8.494196951,-117776,8246.09375,8064,128
-8388608,-605.0000721,-211077,-15.22321704,14699,1.060115821,128,-8.474363503,-117501,8265.625,8704,128
-8388608,-605.0000721,-210398,-15.17424645,14728,1.062207349,128,-8.437365107,-116988,8285.15625,9344,128
-8388608,-605.0000721,-210131,-15.15498998,14606,1.05340851,128,-8.395173954,-116403,8304.6875,9984,128
-8388608,-605.0000721,-209293,-15.09455205,15013,1.082762013,128,-8.390702413,-116341,8324.21875,10624,128
-8388608,-605.0000721,-208174,-15.01384795,14863,1.071943768,128,-8.313532271,-115271,8343.75,11264,128
-8388608,-605.0000721,-207796,-14.98658597,14487,1.044826036,128,-8.265066536,-114599,8363.28125,11904,128
-8388608,-605.0000721,-208507,-15.03786445,14046,1.013020398,128,-8.295213377,-115017,8382.8125,12544,128
-8388608,-605.0000721,-208410,-15.03086865,14398,1.038407211,128,-8.349953693,-115776,8402.34375,13184,128
-8388608,-605.0000721,-209071,-15.07854105,14036,1.012299181,128,-8.475156841,-117512,8421.875,13824,128
-8388608,-605.0000721,-209425,-15.10407211,14083,1.015688898,128,-8.492610275,-117754,8441.40625,14464,128
-8388608,-605.0000721,-209330,-15.09722055,14575,1.051172739,128,-8.472776827,-117479,8460.9375,15104,128
-8388608,-605.0000721,-209064,-15.0780362,14418,1.039849644,128,-8.481431422,-117599,8480.46875,15744,128
-8388608,-605.0000721,-208186,-15.01471341,14917,1.075838336,128,-8.456044609,-117247,8500,16384,128
-8388608,-605.0000721,-207889,-14.99329328,14573,1.051028496,128,-8.435994796,-116969,8519.53125,17024,128
-8388608,-605.0000721,-207528,-14.96725738,14484,1.044609671,128,-8.443928175,-117079,8539.0625,17664,128
-8388608,-605.0000721,-207149,-14.93992328,14578,1.051389104,128,-8.403612185,-116520,8558.59375,18304,128
-8388608,-605.0000721,-206502,-14.89326059,14874,1.072737106,128,-8.380605385,-116201,8578.125,18944,128
-8388608,-605.0000721,-206274,-14.87681685,14529,1.047855144,128,-8.371013209,-116068,8597.65625,19584,128
-8388608,-605.0000721,-205249,-14.80289218,15028,1.083843837,128,-8.299107945,-115071,8617.1875,20224,128
-8388608,-605.0000721,-205353,-14.81039283,14725,1.061990984,128,-8.322763839,-115399,8636.71875,20864,128
-8388608,-605.0000721,-204436,-14.7442573,14778,1.06581343,128,-8.269321712,-114658,8656.25,21504,128
-8388608,-605.0000721,-204351,-14.73812696,14434,1.04100359,128,-8.275019321,-114737,8675.78125,22144,128
-8388608,-605.0000721,-203526,-14.67862662,14801,1.067472228,128,-8.234919695,-114181,8695.3125,22784,128
-8388608,-605.0000721,-203150,-14.65150889,14561,1.050163037,128,-8.214797761,-113902,8714.84375,23424,128
-8388608,-605.0000721,-202587,-14.61090441,14431,1.040787225,128,-8.168928405,-113266,8734.375,24064,128
-8388608,-605.0000721,-201470,-14.53034455,14773,1.065452822,128,-8.132362739,-112759,8753.90625,24704,128
-8388608,-605.0000721,-201548,-14.53597004,14509,1.046412712,128,-8.102937115,-112351,8773.4375,25344,128
-8388608,-605.0000721,-200562,-14.46485811,14961,1.079011688,128,-8.069039949,-111881,8792.96875,25984,128
-8388608,-605.0000721,-200530,-14.46255022,14876,1.07288135,128,-8.053533799,-111666,8812.5,26624,128
-8388608,-605.0000721,-199661,-14.39987652,14496,1.045475131,128,-7.999658942,-110919,8832.03125,27264,128
-8388608,-605.0000721,-199467,-14.38588493,14454,1.042446022,128,-7.987903117,-110756,8851.5625,27904,128
-8388608,-605.0000721,-199710,-14.40341048,14228,1.026146534,128,-8.010693551,-111072,8871.09375,28544,128
-8388608,-605.0000721,-199714,-14.40369897,14244,1.02730048,128,-8.030526999,-111347,8890.625,29184,128
-8388608,-605.0000721,-199336,-14.37643699,14380,1.037109022,128,-8.011126281,-111078,8910.15625,29824,128
-8388608,-605.0000721,-200015,-14.42540758,13925,1.004293681,128,-8.02035785,-111206,8929.6875,30464,128
-8388608,-605.0000721,-199327,-14.3757879,14168,1.021819236,128,-8.028868202,-111324,8949.21875,31104,128
-8388608,-605.0000721,-199559,-14.39252012,14206,1.024559858,128,-8.060457475,-111762,8968.75,31744,128
-8388608,-605.0000721,-199912,-14.41797905,14298,1.031195048,128,-8.08057941,-112041,8988.28125,32384,128
-8388608,-605.0000721,-200758,-14.47899395,13882,1.001192451,128,-8.130920307,-112739,9007.8125,33024,128
-8388608,-605.0000721,-200968,-14.49413949,14366,1.036099319,128,-8.182487271,-113454,9027.34375,33664,128
-8388608,-605.0000721,-197103,-14.2153894,15927,1.148681182,128,-7.638762312,-105915,9046.875,34304,128
-8388608,-605.0000721,-200232,-14.44105797,13428,0.968449231,128,-7.457520659,-103402,9066.40625,34944,128
-8388608,-605.0000721,-200366,-14.45072227,14064,1.014318587,128,-8.020934823,-111214,9085.9375,35584,128
-8388608,-605.0000721,-201198,-14.51072747,14038,1.012443425,128,-8.146859187,-112960,9105.46875,36224,128
-8388608,-605.0000721,-201363,-14.52262754,14066,1.01446283,128,-8.172462365,-113315,9125,36864,128
-8388608,-605.0000721,-201326,-14.51995903,14180,1.022684696,128,-8.187030934,-113517,9144.53125,37504,128
-8388608,-605.0000721,-201321,-14.51959843,14269,1.029103521,128,-8.18818488,-113533,9164.0625,38144,128
-8388608,-605.0000721,-201081,-14.50228924,14224,1.025858048,128,-8.191141867,-113574,9183.59375,38784,128
-8388608,-605.0000721,-201210,-14.51159293,14173,1.022179845,128,-8.190781258,-113569,9203.125,39424,128
-8388608,-605.0000721,-200716,-14.47596484,14492,1.045186644,128,-8.16827931,-113257,9222.65625,40064,128
-8388608,-605.0000721,-200399,-14.45310229,14576,1.051244861,128,-8.137339132,-112828,9242.1875,40704,128
-8388608,-605.0000721,-199844,-14.41307478,14348,1.03480113,128,-8.116712346,-112542,9261.71875,41344,128
-8388608,-605.0000721,-199592,-14.39490013,14466,1.043311482,128,-8.061683543,-111779,9281.25,41984,128
-8388608,-605.0000721,-199457,-14.38516371,14729,1.06227947,128,-8.033700351,-111391,9300.78125,42624,128
-8388608,-605.0000721,-199202,-14.3667727,14314,1.032348994,128,-8.041128879,-111494,9320.3125,43264,128
-8388608,-605.0000721,-199466,-14.38581281,14118,1.018213155,128,-8.081877599,-112059,9339.84375,43904,128
-8388608,-605.0000721,-200779,-14.4805085,13842,0.998307586,128,-8.193305515,-113604,9359.375,44544,128
-8388608,-605.0000721,-202032,-14.5708769,13566,0.978402016,128,-8.260522873,-114536,9378.90625,45184,128
-8388608,-605.0000721,-202394,-14.59698493,14336,1.03393567,128,-8.332500259,-115534,9398.4375,45824,128
-8388608,-605.0000721,-203034,-14.64314278,14252,1.027877453,128,-8.344183963,-115696,9417.96875,46464,128
-8388608,-605.0000721,-202795,-14.62590571,14717,1.061414011,128,-8.345121544,-115709,9437.5,47104,128
-8388608,-605.0000721,-202485,-14.603548,14673,1.058240659,128,-8.312450446,-115256,9457.03125,47744,128
-8388608,-605.0000721,-203516,-14.6779054,14022,1.011289479,128,-8.382769034,-116231,9476.5625,48384,128
-8388608,-605.0000721,-203176,-14.65338405,14583,1.051749712,128,-8.361493154,-115936,9496.09375,49024,128
-8388608,-605.0000721,-202706,-14.61948688,14671,1.058096416,128,-8.342885774,-115678,9515.625,49664,128
-8388608,-605.0000721,-202904,-14.63376697,14530,1.047927266,128,-8.370796844,-116065,9535.15625,50304,128
-8388608,-605.0000721,-202673,-14.61710687,14729,1.06227947,128,-8.342957895,-115679,9554.6875,50944,128
-8388608,-605.0000721,-202970,-14.63852699,14413,1.039489036,128,-8.376710817,-116147,9574.21875,51584,128
-8388608,-605.0000721,-203054,-14.64458521,14218,1.025425318,128,-8.367695614,-116022,9593.75,52224,128
-8388608,-605.0000721,-203134,-14.65035494,14656,1.057014591,128,-8.397337603,-116433,9613.28125,52864,128
-8388608,-605.0000721,-203409,-14.67018839,14583,1.051749712,128,-8.411112834,-116624,9632.8125,53504,128
-8388608,-605.0000721,-202952,-14.6372288,14592,1.052398807,128,-8.382047818,-116221,9652.34375,54144,128
-8388608,-605.0000721,-203594,-14.68353089,14384,1.037397508,128,-8.429864458,-116884,9671.875,54784,128
-8388608,-605.0000721,-203684,-14.69002184,14053,1.013525249,128,-8.427123836,-116846,9691.40625,55424,128
-8388608,-605.0000721,-203216,-14.65626891,14576,1.051244861,128,-8.427989295,-116858,9710.9375,56064,128
-8388608,-605.0000721,-203622,-14.68555029,14423,1.040210252,128,-8.440899067,-117037,9730.46875,56704,128
-8388608,-605.0000721,-203459,-14.67379447,14670,1.058024294,128,-8.445659095,-117103,9750,57344,128
-8388608,-605.0000721,-203582,-14.68266543,14504,1.046052104,128,-8.462824042,-117341,9769.53125,57984,128
-8388608,-605.0000721,-203994,-14.71237954,14581,1.051605469,128,-8.461309488,-117320,9789.0625,58624,128
-8388608,-605.0000721,-203815,-14.69946977,14322,1.032925967,128,-8.462535556,-117337,9808.59375,59264,128
-8388608,-605.0000721,-203202,-14.65525921,14431,1.040787225,128,-8.455756123,-117243,9828.125,59904,128
-8388608,-605.0000721,-204027,-14.71475955,14633,1.055355794,128,-8.470973786,-117454,9847.65625,60544,128
-8388608,-605.0000721,-204162,-14.72449597,14434,1.04100359,128,-8.492970883,-117759,9867.1875,61184,128
-8388608,-605.0000721,-203799,-14.69831582,14450,1.042157536,128,-8.483018098,-117621,9886.71875,61824,128
-8388608,-605.0000721,-203406,-14.66997202,14752,1.063938268,128,-8.448183352,-117138,9906.25,62464,128
-8388608,-605.0000721,-203274,-14.66045197,14511,1.046556955,128,-8.445586973,-117102,9925.78125,63104,128
-8388608,-605.0000721,-203269,-14.66009136,14671,1.058096416,128,-8.459145839,-117290,9945.3125,63744,128
-8388608,-605.0000721,-203564,-14.68136724,14661,1.057375199,128,-8.487056909,-117677,9964.84375,64384,128
-8388608,-605.0000721,-203778,-14.69680127,13986,1.0086931,128,-8.499173343,-117845,9984.375,65024,128
-8388608,-605.0000721,-203900,-14.70560011,14151,1.020593169,128,-8.510640682,-118004,10003.90625,128,128
-8388608,-605.0000721,-203967,-14.71043226,14718,1.061486132,128,-8.593147825,-119148,10023.4375,768,128
-8388608,-605.0000721,-199004,-14.35249261,16599,1.197146916,128,-7.63825746,-105908,10042.96875,1408,128
-8388608,-605.0000721,-204046,-14.71612987,13077,0.94313454,128,-8.107336534,-112412,10062.5,2048,128
-8388608,-605.0000721,-203291,-14.66167804,14146,1.020232561,128,-8.440466337,-117031,10082.03125,2688,128
-8388608,-605.0000721,-203654,-14.68785819,13983,1.008476735,128,-8.456333096,-117251,10101.5625,3328,128
-8388608,-605.0000721,-203394,-14.66910656,14279,1.029824737,128,-8.463833745,-117355,10121.09375,3968,128
-8388608,-605.0000721,-204132,-14.72233233,13749,0.991600274,128,-8.483955679,-117634,10140.625,4608,128
-8388608,-605.0000721,-203724,-14.6929067,14516,1.046917563,128,-8.450635487,-117172,10160.15625,5248,128
-8388608,-605.0000721,-203490,-14.67603024,13972,1.007683397,128,-8.444649392,-117089,10179.6875,5888,128
-8388608,-605.0000721,-203889,-14.70480677,14184,1.022973183,128,-8.439889364,-117023,10199.21875,6528,128
-8388608,-605.0000721,-203469,-14.67451569,14477,1.04410482,128,-8.394669103,-116396,10218.75,7168,128
-8388608,-605.0000721,-202737,-14.62172265,14602,1.053120023,128,-8.325143853,-115432,10238.28125,7808,128
-8388608,-605.0000721,-201507,-14.53301305,14902,1.074756512,128,-8.265715631,-114608,10257.8125,8448,128
-8388608,-605.0000721,-201641,-14.54267735,14466,1.043311482,128,-8.233693628,-114164,10277.34375,9088,128
-8388608,-605.0000721,-201529,-14.53459973,14458,1.042734509,128,-8.197777056,-113666,10296.875,9728,128
-8388608,-605.0000721,-201618,-14.54101855,14417,1.039777522,128,-8.205782557,-113777,10316.40625,10368,128
-8388608,-605.0000721,-201859,-14.55839986,13919,1.003860951,128,-8.23203483,-114141,10335.9375,11008,128
-8388608,-605.0000721,-202636,-14.61443837,13810,0.995999693,128,-8.320095339,-115362,10355.46875,11648,128
-8388608,-605.0000721,-202909,-14.63412757,13927,1.004437924,128,-8.314253487,-115281,10375,12288,128
-8388608,-605.0000721,-201889,-14.56056351,14374,1.036676292,128,-8.279923592,-114805,10394.53125,12928,128
-8388608,-605.0000721,-201316,-14.51923782,14545,1.049009091,128,-8.249199778,-114379,10414.0625,13568,128
-8388608,-605.0000721,-200515,-14.46146839,14511,1.046556955,128,-8.174049041,-113337,10433.59375,14208,128
-8388608,-605.0000721,-200380,-14.45173197,14264,1.028742913,128,-8.162293215,-113174,10453.125,14848,128
-8388608,-605.0000721,-200314,-14.44697195,14191,1.023478034,128,-8.126016036,-112671,10472.65625,15488,128
-8388608,-605.0000721,-199903,-14.41732996,14061,1.014102222,128,-8.121400252,-112607,10492.1875,16128,128
-8388608,-605.0000721,-198989,-14.35141079,14225,1.025930169,128,-8.073583612,-111944,10511.71875,16768,128
-8388608,-605.0000721,-198961,-14.34939138,14189,1.023333791,128,-8.081733356,-112057,10531.25,17408,128
-8388608,-605.0000721,-199634,-14.39792924,13889,1.001697302,128,-8.076468477,-111984,10550.78125,18048,128
-8388608,-605.0000721,-198111,-14.288088,14861,1.071799525,128,-8.013362052,-111109,10570.3125,18688,128
-8388608,-605.0000721,-197441,-14.23976651,14666,1.057735808,128,-7.967348452,-110471,10589.84375,19328,128
-8388608,-605.0000721,-197280,-14.22815492,14427,1.040498738,128,-7.944053166,-110148,10609.375,19968,128
-8388608,-605.0000721,-197937,-14.27553883,13829,0.997370004,128,-7.964319344,-110429,10628.90625,20608,128
-8388608,-605.0000721,-197711,-14.25923935,14365,1.036027197,128,-7.973911521,-110562,10648.4375,21248,128
-8388608,-605.0000721,-198478,-14.31455664,13888,1.00162518,128,-8.037667041,-111446,10667.96875,21888,128
-8388608,-605.0000721,-198592,-14.3227785,14151,1.020593169,128,-8.069112071,-111882,10687.5,22528,128
-8388608,-605.0000721,-199199,-14.36655633,14025,1.011505844,128,-8.080290923,-112037,10707.03125,23168,128
-8388608,-605.0000721,-198991,-14.35155503,14534,1.048215753,128,-8.105461372,-112386,10726.5625,23808,128
-8388608,-605.0000721,-199621,-14.39699166,14173,1.022179845,128,-8.118875995,-112572,10746.09375,24448,128
-8388608,-605.0000721,-199514,-14.38927464,14111,1.017708304,128,-8.128035441,-112699,10765.625,25088,128
-8388608,-605.0000721,-199804,-14.41018992,14207,1.02463198,128,-8.13019909,-112729,10785.15625,25728,128
-8388608,-605.0000721,-200111,-14.43233126,14326,1.033214454,128,-8.122986927,-112629,10804.6875,26368,128
-8388608,-605.0000721,-199654,-14.39937167,14323,1.032998089,128,-8.137555496,-112831,10824.21875,27008,128
-8388608,-605.0000721,-199548,-14.39172678,14184,1.022973183,128,-8.108346237,-112426,10843.75,27648,128
-8388608,-605.0000721,-199076,-14.35768537,14365,1.036027197,128,-8.072285422,-111926,10863.28125,28288,128
-8388608,-605.0000721,-199314,-14.37485032,14275,1.029536251,128,-8.090532194,-112179,10882.8125,28928,128
-8388608,-605.0000721,-199631,-14.39771287,14483,1.04453755,128,-8.084906707,-112101,10902.34375,29568,128
-8388608,-605.0000721,-198739,-14.33338038,14637,1.05564428,128,-8.04783619,-111587,10921.875,30208,128
-8388608,-605.0000721,-197951,-14.27654854,14553,1.049586064,128,-7.986604927,-110738,10941.40625,30848,128
-8388608,-605.0000721,-197486,-14.24301198,14589,1.052182442,128,-7.965401169,-110444,10960.9375,31488,128
-8388608,-605.0000721,-196736,-14.18892076,14220,1.025569561,128,-7.916502704,-109766,10980.46875,32128,128
-8388608,-605.0000721,-197385,-14.2357277,14025,1.011505844,128,-7.940014355,-110092,11000,32768,128
-8388608,-605.0000721,-197222,-14.22397187,14349,1.034873251,128,-8.019276025,-111191,11019.53125,33408,128
-8388608,-605.0000721,-194194,-14.00558758,15783,1.138295667,128,-7.473243174,-103620,11039.0625,34048,128
-8388608,-605.0000721,-199434,-14.38350491,11423,0.823845366,128,-7.650373894,-106076,11058.59375,34688,128
-8388608,-605.0000721,-198270,-14.29955534,14246,1.027444724,128,-7.927537313,-109919,11078.125,35328,128
-8388608,-605.0000721,-198801,-14.33785192,14299,1.03126717,128,-7.97210848,-110537,11097.65625,35968,128
-8388608,-605.0000721,-198788,-14.33691434,14357,1.035450224,128,-7.994898915,-110853,11117.1875,36608,128
-8388608,-605.0000721,-199186,-14.36561875,14338,1.034079913,128,-8.000668645,-110933,11136.71875,37248,128
-8388608,-605.0000721,-198758,-14.33475069,14456,1.042590266,128,-7.963453885,-110417,11156.25,37888,128
-8388608,-605.0000721,-199097,-14.35919992,14413,1.039489036,128,-7.988984941,-110771,11175.78125,38528,128
-8388608,-605.0000721,-198588,-14.32249002,14443,1.041652684,128,-7.945711964,-110171,11195.3125,39168,128
-8388608,-605.0000721,-199005,-14.35256473,14380,1.037109022,128,-7.961290236,-110387,11214.84375,39808,128
-8388608,-605.0000721,-198435,-14.31145541,14723,1.06184674,128,-7.936336152,-110041,11234.375,40448,128
-8388608,-605.0000721,-198287,-14.30078141,14404,1.038839941,128,-7.87027274,-109125,11253.90625,41088,128
-8388608,-605.0000721,-197403,-14.23702589,14724,1.061918862,128,-7.836664061,-108659,11273.4375,41728,128
-8388608,-605.0000721,-197249,-14.22591915,14586,1.051966077,128,-7.809474207,-108282,11292.96875,42368,128
-8388608,-605.0000721,-197339,-14.2324101,14313,1.032276873,128,-7.80384872,-108204,11312.5,43008,128
-8388608,-605.0000721,-199026,-14.35407929,13692,0.987489341,128,-7.932730071,-109991,11332.03125,43648,128
-8388608,-605.0000721,-199700,-14.40268927,13823,0.996937275,128,-7.995403766,-110860,11351.5625,44288,128
-8388608,-605.0000721,-200431,-14.45541018,13582,0.979555962,128,-8.064712651,-111821,11371.09375,44928,128
-8388608,-605.0000721,-200907,-14.48974007,14039,1.012515546,128,-8.070482382,-111901,11390.625,45568,128
-8388608,-605.0000721,-200617,-14.4688248,14462,1.043022995,128,-8.059664137,-111751,11410.15625,46208,128
-8388608,-605.0000721,-201417,-14.5265221,14156,1.020953777,128,-8.094354641,-112232,11429.6875,46848,128
-8388608,-605.0000721,-200816,-14.483177,14501,1.045835739,128,-8.054976231,-111686,11449.21875,47488,128
-8388608,-605.0000721,-201309,-14.51873297,14255,1.028093818,128,-8.07617999,-111980,11468.75,48128,128
-8388608,-605.0000721,-200859,-14.48627823,14496,1.045475131,128,-8.052091366,-111646,11488.28125,48768,128
-8388608,-605.0000721,-200721,-14.47632545,14059,1.013957979,128,-8.032618527,-111376,11507.8125,49408,128
-8388608,-605.0000721,-200770,-14.47985941,14219,1.02549744,128,-8.049062258,-111604,11527.34375,50048,128
-8388608,-605.0000721,-201129,-14.50575107,13981,1.008332492,128,-8.044951325,-111547,11546.875,50688,128
-8388608,-605.0000721,-200936,-14.4918316,14503,1.045979982,128,-8.038820987,-111462,11566.40625,51328,128
-8388608,-605.0000721,-201519,-14.53387851,14030,1.011866452,128,-8.048052555,-111590,11585.9375,51968,128
-8388608,-605.0000721,-201071,-14.50156802,13960,1.006817938,128,-8.039181595,-111467,11605.46875,52608,128
-8388608,-605.0000721,-201406,-14.52572877,13856,0.999317288,128,-8.089234005,-112161,11625,53248,128
-8388608,-605.0000721,-201192,-14.51029474,14328,1.033358697,128,-8.062621124,-111792,11644.53125,53888,128
-8388608,-605.0000721,-201539,-14.53532094,13947,1.005880357,128,-8.078055153,-112006,11664.0625,54528,128
-8388608,-605.0000721,-201057,-14.50055832,14477,1.04410482,128,-8.063414462,-111803,11683.59375,55168,128
-8388608,-605.0000721,-200915,-14.49031705,14266,1.028887156,128,-8.046826487,-111573,11703.125,55808,128
-8388608,-605.0000721,-200904,-14.48952371,14305,1.0316999,128,-8.06110657,-111771,11722.65625,56448,128
-8388608,-605.0000721,-201401,-14.52536816,13974,1.007827641,128,-8.058654435,-111737,11742.1875,57088,128
-8388608,-605.0000721,-200847,-14.48541277,14063,1.014246465,128,-8.030959729,-111353,11761.71875,57728,128
-8388608,-605.0000721,-200602,-14.46774298,14446,1.041869049,128,-8.026343945,-111289,11781.25,58368,128
-8388608,-605.0000721,-200447,-14.45656412,14409,1.039200549,128,-8.009828092,-111060,11800.78125,59008,128
-8388608,-605.0000721,-200390,-14.45245319,14340,1.034224157,128,-8.011270524,-111080,11820.3125,59648,128
-8388608,-605.0000721,-199914,-14.4181233,14432,1.040859346,128,-7.987686752,-110753,11839.84375,60288,128
-8388608,-605.0000721,-200291,-14.44531315,14333,1.033719305,128,-7.975353953,-110582,11859.375,60928,128
-8388608,-605.0000721,-199724,-14.40442019,14354,1.035233859,128,-7.944341653,-110152,11878.90625,61568,128
-8388608,-605.0000721,-198784,-14.33662585,14958,1.078795323,128,-7.9251573,-109886,11898.4375,62208,128
-8388608,-605.0000721,-198772,-14.3357604,14247,1.027516845,128,-7.914699663,-109741,11917.96875,62848,128
-8388608,-605.0000721,-198304,-14.30200747,14681,1.058817632,128,-7.907703865,-109644,11937.5,63488,128
-8388608,-605.0000721,-199218,-14.36792664,13959,1.006745816,128,-7.930133692,-109955,11957.03125,64128,128
-8388608,-605.0000721,-199020,-14.35364656,14303,1.031555656,128,-7.936191909,-110039,11976.5625,64768,128
-8388608,-605.0000721,-198317,-14.30294505,14987,1.08088685,128,-7.96900725,-110494,11996.09375,65408,128
-8388608,-605.0000721,-194289,-14.01243913,14835,1.069924363,128,-6.947981351,-96337,12015.625,512,128
-8388608,-605.0000721,-198489,-14.31534997,13201,0.952077621,128,-7.56209702,-104852,12035.15625,1152,128
-8388608,-605.0000721,-198378,-14.30734447,14450,1.042157536,128,-7.88354312,-109309,12054.6875,1792,128
-8388608,-605.0000721,-198996,-14.35191564,13947,1.005880357,128,-7.920036664,-109815,12074.21875,2432,128
-8388608,-605.0000721,-199114,-14.36042599,14199,1.024055007,128,-7.938499801,-110071,12093.75,3072,128
-8388608,-605.0000721,-199661,-14.39987652,13997,1.009486438,128,-7.96193933,-110396,12113.28125,3712,128
-8388608,-605.0000721,-199492,-14.38768797,14548,1.049225455,128,-7.949390167,-110222,12132.8125,4352,128
-8388608,-605.0000721,-199199,-14.36655633,14519,1.047133928,128,-7.949390167,-110222,12152.34375,4992,128
-8388608,-605.0000721,-199011,-14.35299746,14673,1.058240659,128,-7.937057368,-110051,12171.875,5632,128
-8388608,-605.0000721,-199177,-14.36496965,14278,1.029752616,128,-7.911814798,-109701,12191.40625,6272,128
-8388608,-605.0000721,-198651,-14.32703368,14631,1.055211551,128,-7.898688662,-109519,12210.9375,6912,128
-8388608,-605.0000721,-197677,-14.25678721,14795,1.067039498,128,-7.838611345,-108686,12230.46875,7552,128
-8388608,-605.0000721,-197337,-14.23226586,14749,1.063721903,128,-7.801324463,-108169,12250,8192,128
-8388608,-605.0000721,-197732,-14.2607539,14553,1.049586064,128,-7.793823814,-108065,12269.53125,8832,128
-8388608,-605.0000721,-197930,-14.27503398,14246,1.027444724,128,-7.843227129,-108750,12289.0625,9472,128
-8388608,-605.0000721,-198646,-14.32667307,13966,1.007250667,128,-7.900635946,-109546,12308.59375,10112,128
-8388608,-605.0000721,-199912,-14.41797905,14091,1.016265871,128,-8.030887607,-111352,12328.125,10752,128
-8388608,-605.0000721,-200884,-14.48808127,13659,0.985109327,128,-8.0668763,-111851,12347.65625,11392,128
-8388608,-605.0000721,-201215,-14.51195353,13937,1.00515914,128,-8.111375345,-112468,12367.1875,12032,128
-8388608,-605.0000721,-200837,-14.48469156,14244,1.02730048,128,-8.092912208,-112212,12386.71875,12672,128
-8388608,-605.0000721,-200822,-14.48360973,14339,1.034152035,128,-8.087935816,-112143,12406.25,13312,128
-8388608,-605.0000721,-201858,-14.55832774,13677,0.986407517,128,-8.151258606,-113021,12425.78125,13952,128
-8388608,-605.0000721,-200979,-14.49493283,14444,1.041724806,128,-8.099403155,-112302,12445.3125,14592,128
-8388608,-605.0000721,-201260,-14.51519901,14181,1.022756818,128,-8.137555496,-112831,12464.84375,15232,128
-8388608,-605.0000721,-201380,-14.5238536,14204,1.024415615,128,-8.125366941,-112662,12484.375,15872,128
-8388608,-605.0000721,-200769,-14.47978729,14473,1.043816333,128,-8.11072625,-112459,12503.90625,16512,128
-8388608,-605.0000721,-201510,-14.53322941,14038,1.012443425,128,-8.135103361,-112797,12523.4375,17152,128
-8388608,-605.0000721,-201404,-14.52558452,14203,1.024343494,128,-8.143541592,-112914,12542.96875,17792,128
-8388608,-605.0000721,-201205,-14.51123232,14255,1.028093818,128,-8.137627618,-112832,12562.5,18432,128
-8388608,-605.0000721,-201431,-14.52753181,14166,1.021674993,128,-8.14036824,-112870,12582.03125,19072,128
-8388608,-605.0000721,-201842,-14.5571738,13921,1.004005194,128,-8.160201688,-113145,12601.5625,19712,128
-8388608,-605.0000721,-201349,-14.52161783,14279,1.029824737,128,-8.151330727,-113022,12621.09375,20352,128
-8388608,-605.0000721,-201451,-14.52897424,14228,1.026146534,128,-8.183929704,-113474,12640.625,20992,128
-8388608,-605.0000721,-201693,-14.54642767,14228,1.026146534,128,-8.178159973,-113394,12660.15625,21632,128
-8388608,-605.0000721,-202067,-14.57340116,14496,1.045475131,128,-8.186598204,-113511,12679.6875,22272,128
-8388608,-605.0000721,-201531,-14.53474397,14670,1.058024294,128,-8.185949109,-113502,12699.21875,22912,128
-8388608,-605.0000721,-201390,-14.52457482,14294,1.030906562,128,-8.180467866,-113426,12718.75,23552,128
-8388608,-605.0000721,-201974,-14.56669385,13785,0.994196653,128,-8.197272205,-113659,12738.28125,24192,128
-8388608,-605.0000721,-201561,-14.53690762,14724,1.061918862,128,-8.190781258,-113569,12757.8125,24832,128
-8388608,-605.0000721,-201628,-14.54173977,14311,1.032132629,128,-8.199219489,-113686,12777.34375,25472,128
-8388608,-605.0000721,-201402,-14.52544028,14281,1.029968981,128,-8.192440056,-113592,12796.875,26112,128
-8388608,-605.0000721,-201694,-14.54649979,13859,0.999533653,128,-8.180972717,-113433,12816.40625,26752,128
-8388608,-605.0000721,-202258,-14.58717639,13874,1.000615478,128,-8.208018328,-113808,12835.9375,27392,128
-8388608,-605.0000721,-201606,-14.54015309,14255,1.028093818,128,-8.18818488,-113533,12855.46875,28032,128
-8388608,-605.0000721,-201581,-14.53835005,14271,1.029247764,128,-8.192367934,-113591,12875,28672,128
-8388608,-605.0000721,-201406,-14.52572877,14378,1.036964779,128,-8.141738551,-112889,12894.53125,29312,128
-8388608,-605.0000721,-201822,-14.55573136,13963,1.007034303,128,-8.190564894,-113566,12914.0625,29952,128
-8388608,-605.0000721,-201444,-14.52846939,14189,1.023333791,128,-8.172246,-113312,12933.59375,30592,128
-8388608,-605.0000721,-201616,-14.54087431,13906,1.00292337,128,-8.19085338,-113570,12953.125,31232,128
-8388608,-605.0000721,-202314,-14.5912152,13810,0.995999693,128,-8.209532882,-113829,12972.65625,31872,128
-8388608,-605.0000721,-203189,-14.65432163,13979,1.008188249,128,-8.223740843,-114026,12992.1875,32512,128
-8388608,-605.0000721,-201771,-14.55205316,15211,1.097042095,128,-8.249271899,-114380,13011.71875,33152,128
-8388608,-605.0000721,-199533,-14.39064495,14086,1.015905263,128,-7.298780954,-101201,13031.25,33792,128
-8388608,-605.0000721,-202816,-14.62742026,13211,0.952798838,128,-7.943187707,-110136,13050.78125,34432,128
-8388608,-605.0000721,-202189,-14.5822,14534,1.048215753,128,-8.145344632,-112939,13070.3125,35072,128
-8388608,-605.0000721,-202896,-14.63318999,14020,1.011145235,128,-8.186093353,-113504,13089.84375,35712,128
-8388608,-605.0000721,-202467,-14.60224981,14409,1.039200549,128,-8.169000527,-113267,13109.375,36352,128
-8388608,-605.0000721,-202371,-14.59532614,14344,1.034512643,128,-8.148445862,-112982,13128.90625,36992,128
-8388608,-605.0000721,-202552,-14.60838015,14169,1.021891358,128,-8.141882794,-112891,13148.4375,37632,128
-8388608,-605.0000721,-202471,-14.6025383,14159,1.021170142,128,-8.145849484,-112946,13167.96875,38272,128
-8388608,-605.0000721,-201812,-14.55501015,14898,1.074468026,128,-8.101927412,-112337,13187.5,38912,128
-8388608,-605.0000721,-201432,-14.52760393,14403,1.038767819,128,-8.084834586,-112100,13207.03125,39552,128
-8388608,-605.0000721,-201437,-14.52796454,14243,1.027228359,128,-8.046754366,-111572,13226.5625,40192,128
-8388608,-605.0000721,-201129,-14.50575107,14344,1.034512643,128,-7.99691832,-110881,13246.09375,40832,128
-8388608,-605.0000721,-200047,-14.42771547,14759,1.064443119,128,-7.92825853,-109929,13265.625,41472,128
-8388608,-605.0000721,-199934,-14.41956573,14320,1.032781724,128,-7.899554121,-109531,13285.15625,42112,128
-8388608,-605.0000721,-200812,-14.48288852,13823,0.996937275,128,-7.926888219,-109910,13304.6875,42752,128
-8388608,-605.0000721,-201566,-14.53726823,13765,0.99275422,128,-8.029445175,-111332,13324.21875,43392,128
-8388608,-605.0000721,-202497,-14.60441346,13968,1.007394911,128,-8.128251806,-112702,13343.75,44032,128
-8388608,-605.0000721,-202985,-14.63960882,14102,1.017059209,128,-8.147868889,-112974,13363.28125,44672,128
-8388608,-605.0000721,-203489,-14.67595812,14138,1.019655588,128,-8.170082351,-113282,13382.8125,45312,128
-8388608,-605.0000721,-203674,-14.68930062,14306,1.031772021,128,-8.175491473,-113357,13402.34375,45952,128
-8388608,-605.0000721,-203521,-14.67826601,14481,1.044393306,128,-8.153278011,-113049,13421.875,46592,128
-8388608,-605.0000721,-203789,-14.69759461,14328,1.033358697,128,-8.166620513,-113234,13441.40625,47232,128
-8388608,-605.0000721,-203629,-14.68605515,14356,1.035378103,128,-8.163086553,-113185,13460.9375,47872,128
-8388608,-605.0000721,-203823,-14.70004674,14273,1.029392008,128,-8.136329429,-112814,13480.46875,48512,128
-8388608,-605.0000721,-203297,-14.66211077,14573,1.051028496,128,-8.136690037,-112819,13500,49152,128
-8388608,-605.0000721,-203256,-14.65915378,14396,1.038262968,128,-8.112529291,-112484,13519.53125,49792,128
-8388608,-605.0000721,-203535,-14.67927571,14201,1.02419925,128,-8.12666513,-112680,13539.0625,50432,128
-8388608,-605.0000721,-203952,-14.70935043,14233,1.026507142,128,-8.145128267,-112936,13558.59375,51072,128
-8388608,-605.0000721,-203656,-14.68800243,14469,1.043527847,128,-8.152051944,-113032,13578.125,51712,128
-8388608,-605.0000721,-203397,-14.66932293,14509,1.046412712,128,-8.137050645,-112824,13597.65625,52352,128
-8388608,-605.0000721,-203495,-14.67639085,14254,1.028021697,128,-8.144479173,-112927,13617.1875,52992,128
-8388608,-605.0000721,-204206,-14.72766933,13753,0.991888761,128,-8.170515081,-113288,13636.71875,53632,128
-8388608,-605.0000721,-203931,-14.70783588,14228,1.026146534,128,-8.156667728,-113096,13656.25,54272,128
-8388608,-605.0000721,-204046,-14.71612987,14189,1.023333791,128,-8.140584605,-112873,13675.78125,54912,128
-8388608,-605.0000721,-203826,-14.70026311,14097,1.016698601,128,-8.160057445,-113143,13695.3125,55552,128
-8388608,-605.0000721,-204399,-14.7415888,13849,0.998812437,128,-8.158326525,-113119,13714.84375,56192,128
-8388608,-605.0000721,-204232,-14.72954449,13854,0.999173045,128,-8.158615012,-113123,13734.375,56832,128
-8388608,-605.0000721,-204147,-14.72341415,14409,1.039200549,128,-8.160995026,-113156,13753.90625,57472,128
-8388608,-605.0000721,-204456,-14.74569973,14026,1.011577965,128,-8.168567797,-113261,13773.4375,58112,128
-8388608,-605.0000721,-204487,-14.7479355,14036,1.012299181,128,-8.155297417,-113077,13792.96875,58752,128
-8388608,-605.0000721,-204642,-14.75911436,14119,1.018285277,128,-8.162437458,-113176,13812.5,59392,128
-8388608,-605.0000721,-204537,-14.75154158,14206,1.024559858,128,-8.154720444,-113069,13832.03125,60032,128
-8388608,-605.0000721,-204083,-14.71879837,14426,1.040426617,128,-8.106471074,-112400,13851.5625,60672,128
-8388608,-605.0000721,-204119,-14.72139474,14737,1.062856443,128,-8.148013133,-112976,13871.09375,61312,128
-8388608,-605.0000721,-204369,-14.73942515,13889,1.001697302,128,-8.146642822,-112957,13890.625,61952,128
-8388608,-605.0000721,-204184,-14.72608265,14215,1.025208953,128,-8.169000527,-113267,13910.15625,62592,128
-8388608,-605.0000721,-204998,-14.78478966,13809,0.995927572,128,-8.178736946,-113402,13929.6875,63232,128
-8388608,-605.0000721,-204942,-14.78075084,14011,1.010496141,128,-8.182343028,-113452,13949.21875,63872,128
-8388608,-605.0000721,-202245,-14.58623881,15695,1.131948964,128,-7.997928023,-110895,13968.75,64512,128
-8388608,-605.0000721,-202502,-14.60477407,14099,1.016842844,128,-7.260772855,-100674,13988.28125,65152,128
-8388608,-605.0000721,-205037,-14.7876024,13859,0.999533653,128,-7.886932836,-109356,14007.8125,256,128
-8388608,-605.0000721,-204422,-14.7432476,14130,1.019078615,128,-8.11779417,-112557,14027.34375,896,128
-8388608,-605.0000721,-204530,-14.75103673,14006,1.010135533,128,-8.138493078,-112844,14046.875,1536,128
-8388608,-605.0000721,-204873,-14.77577445,13944,1.005663992,128,-8.155802268,-113084,14066.40625,2176,128
-8388608,-605.0000721,-204672,-14.761278,14204,1.024415615,128,-8.132867591,-112766,14085.9375,2816,128
-8388608,-605.0000721,-204626,-14.75796041,14065,1.014390709,128,-8.123347536,-112634,14105.46875,3456,128
-8388608,-605.0000721,-204539,-14.75168583,14110,1.017636182,128,-8.110509886,-112456,14125,4096,128
-8388608,-605.0000721,-204062,-14.71728381,14203,1.024343494,128,-8.073223004,-111939,14144.53125,4736,128
-8388608,-605.0000721,-204054,-14.71670684,14035,1.01222706,128,-8.078632126,-112014,14164.0625,5376,128
-8388608,-605.0000721,-203606,-14.68439635,14129,1.019006493,128,-8.024973634,-111270,14183.59375,6016,128
-8388608,-605.0000721,-202965,-14.63816638,14070,1.014751317,128,-7.971459385,-110528,14203.125,6656,128
-8388608,-605.0000721,-201597,-14.539504,14937,1.077280769,128,-7.901140797,-109553,14222.65625,7296,128
-8388608,-605.0000721,-202328,-14.59222491,14185,1.023045304,128,-7.921911826,-109841,14242.1875,7936,128
-8388608,-605.0000721,-202392,-14.59684069,14106,1.017347696,128,-7.934172503,-110011,14261.71875,8576,128
-8388608,-605.0000721,-204302,-14.734593,13339,0.962030406,128,-8.08591641,-112115,14281.25,9216,128
-8388608,-605.0000721,-204615,-14.75716707,13691,0.98741722,128,-8.119020238,-112574,14300.78125,9856,128
-8388608,-605.0000721,-204788,-14.76964411,13460,0.970757123,128,-8.13726701,-112827,14320.3125,10496,128
-8388608,-605.0000721,-205150,-14.79575214,14308,1.031916265,128,-8.169865986,-113279,14339.84375,11136,128
-8388608,-605.0000721,-205857,-14.84674213,13958,1.006673694,128,-8.184434555,-113481,14359.375,11776,128
-8388608,-605.0000721,-205429,-14.81587408,14293,1.03083444,128,-8.16647627,-113232,14378.90625,12416,128
-8388608,-605.0000721,-205480,-14.81955228,14167,1.021747115,128,-8.184290312,-113479,14398.4375,13056,128
-8388608,-605.0000721,-205322,-14.80815706,14461,1.042950874,128,-8.163952013,-113197,14417.96875,13696,128
-8388608,-605.0000721,-204990,-14.78421268,14609,1.053624875,128,-8.142748254,-112903,14437.5,14336,128
-8388608,-605.0000721,-205247,-14.80274794,14458,1.042734509,128,-8.159552593,-113136,14457.03125,14976,128
-8388608,-605.0000721,-204842,-14.77353868,14409,1.039200549,128,-8.132867591,-112766,14476.5625,15616,128
-8388608,-605.0000721,-205099,-14.79207394,14064,1.014318587,128,-8.156162877,-113089,14496.09375,16256,128
-8388608,-605.0000721,-205272,-14.80455098,14215,1.025208953,128,-8.143325227,-112911,14515.625,16896,128
-8388608,-605.0000721,-205174,-14.79748306,14331,1.033575062,128,-8.162581702,-113178,14535.15625,17536,128
-8388608,-605.0000721,-204968,-14.78262601,14381,1.037181143,128,-8.155658025,-113082,14554.6875,18176,128
-8388608,-605.0000721,-205494,-14.82056198,13882,1.001192451,128,-8.184290312,-113479,14574.21875,18816,128
-8388608,-605.0000721,-205771,-14.84053967,14191,1.023478034,128,-8.167197486,-113242,14593.75,19456,128
-8388608,-605.0000721,-205987,-14.85611795,14117,1.018141033,128,-8.185588501,-113497,14613.28125,20096,128
-8388608,-605.0000721,-205619,-14.82957719,14504,1.046052104,128,-8.179241798,-113409,14632.8125,20736,128
-8388608,-605.0000721,-205649,-14.83174084,14012,1.010568262,128,-8.204484368,-113759,14652.34375,21376,128
-8388608,-605.0000721,-205283,-14.80534432,13922,1.004077316,128,-8.187896393,-113529,14671.875,22016,128
-8388608,-605.0000721,-205792,-14.84205423,13746,0.991383909,128,-8.194603705,-113622,14691.40625,22656,128
-8388608,-605.0000721,-205225,-14.80116127,14151,1.020593169,128,-8.195829772,-113639,14710.9375,23296,128
-8388608,-605.0000721,-205092,-14.79156909,14406,1.038984184,128,-8.183857582,-113473,14730.46875,23936,128
-8388608,-605.0000721,-205800,-14.8426312,13803,0.995494842,128,-8.220928099,-113987,14750,24576,128
-8388608,-605.0000721,-205666,-14.8329669,14233,1.026507142,128,-8.211480166,-113856,14769.53125,25216,128
-8388608,-605.0000721,-205767,-14.84025119,14132,1.019222858,128,-8.20989349,-113834,14789.0625,25856,128
-8388608,-605.0000721,-205459,-14.81803773,14143,1.020016196,128,-8.203041935,-113739,14808.59375,26496,128
-8388608,-605.0000721,-205572,-14.82618747,14146,1.020232561,128,-8.208883787,-113820,14828.125,27136,128
-8388608,-605.0000721,-205829,-14.84472273,14420,1.039993887,128,-8.220855978,-113986,14847.65625,27776,128
-8388608,-605.0000721,-205349,-14.81010435,14453,1.042373901,128,-8.170082351,-113282,14867.1875,28416,128
-8388608,-605.0000721,-205173,-14.79741094,14306,1.031772021,128,-8.164312621,-113202,14886.71875,29056,128
-8388608,-605.0000721,-205437,-14.81645105,13936,1.005087019,128,-8.199507976,-113690,14906.25,29696,128
-8388608,-605.0000721,-208796,-15.0587076,12347,0.89048575,128,-8.193594002,-113608,14925.78125,30336,128
-8388608,-605.0000721,-212266,-15.30896965,11580,0.835168461,128,-8.193089151,-113601,14945.3125,30976,128
-8388608,-605.0000721,-216718,-15.63005515,12557,0.905631293,128,-8.230664519,-114122,14964.84375,31616,128
-8388608,-605.0000721,-218446,-15.75468132,13985,1.008620978,128,-8.289732133,-114941,14984.375,32256,128
-8388608,-605.0000721,-210843,-15.20634058,17216,1.241645961,128,-7.302459157,-101252,15003.90625,32896,128
-8388608,-605.0000721,-217456,-15.68328091,12647,0.912122239,128,-7.846184116,-108791,15023.4375,33536,128
-8388608,-605.0000721,-217889,-15.71450957,14056,1.013741614,128,-8.151402849,-113023,15042.96875,34176,128
-8388608,-605.0000721,-215505,-15.54257161,15368,1.108365191,128,-8.173616311,-113331,15062.5,34816,128
-8388608,-605.0000721,-214039,-15.4368413,14910,1.075333485,128,-8.196767354,-113652,15082.03125,35456,128
-8388608,-605.0000721,-214211,-15.44924622,14381,1.037181143,128,-8.170010229,-113281,15101.5625,36096,128
-8388608,-605.0000721,-220314,-15.88940452,11728,0.845842462,128,-8.180539987,-113427,15121.09375,36736,128
-8388608,-605.0000721,-223785,-16.1397387,12526,0.903395522,128,-8.144767659,-112931,15140.625,37376,128
-8388608,-605.0000721,-224159,-16.16671218,15271,1.101369393,128,-8.128251806,-112702,15160.15625,38016,128
-8388608,-605.0000721,-218715,-15.77408204,16176,1.166639467,128,-8.10892321,-112434,15179.6875,38656,128
-8388608,-605.0000721,-223611,-16.12718953,12161,0.877071128,128,-8.084041248,-112089,15199.21875,39296,128
-8388608,-605.0000721,-225718,-16.2791498,13029,0.939672701,128,-8.010260822,-111066,15218.75,39936,128
-8388608,-605.0000721,-226872,-16.36237816,13201,0.952077621,128,-7.973190304,-110552,15238.28125,40576,128
-8388608,-605.0000721,-227539,-16.41048329,13295,0.958857055,128,-7.910949339,-109689,15257.8125,41216,128
-8388608,-605.0000721,-229375,-16.5428986,13467,0.971261975,128,-7.957467789,-110334,15277.34375,41856,128
-8388608,-605.0000721,-230916,-16.65403803,13378,0.96484315,128,-8.031103972,-111355,15296.875,42496,128
-8388608,-605.0000721,-232997,-16.80412314,13421,0.96794438,128,-8.133444564,-112774,15316.40625,43136,128
-8388608,-605.0000721,-233636,-16.85020886,13548,0.977103827,128,-8.168062945,-113254,15335.9375,43776,128
-8388608,-605.0000721,-235543,-16.98774481,13481,0.972271678,128,-8.218908694,-113959,15355.46875,44416,128
-8388608,-605.0000721,-235787,-17.00534248,13981,1.008332492,128,-8.199075246,-113684,15375,45056,128
-8388608,-605.0000721,-237068,-17.09773029,13433,0.968809839,128,-8.219413545,-113966,15394.53125,45696,128
-8388608,-605.0000721,-237577,-17.1344402,13918,1.003788829,128,-8.205710436,-113776,15414.0625,46336,128
-8388608,-605.0000721,-237942,-17.16076459,13859,0.999533653,128,-8.179602406,-113414,15433.59375,46976,128
-8388608,-605.0000721,-238361,-17.19098356,13892,1.001913667,128,-8.18508365,-113490,15453.125,47616,128
-8388608,-605.0000721,-239019,-17.23843959,13649,0.984388111,128,-8.166115661,-113227,15472.65625,48256,128
-8388608,-605.0000721,-239755,-17.29152111,13843,0.998379707,128,-8.143685835,-112916,15492.1875,48896,128
-8388608,-605.0000721,-240339,-17.33364014,13726,0.989941477,128,-8.157461066,-113107,15511.71875,49536,128
-8388608,-605.0000721,-240946,-17.37741797,13879,1.000976086,128,-8.154792566,-113070,15531.25,50176,128
-8388608,-605.0000721,-241793,-17.43850499,13971,1.007611276,128,-8.185444258,-113495,15550.78125,50816,128
-8388608,-605.0000721,-242006,-17.45386689,14006,1.010135533,128,-8.166548391,-113233,15570.3125,51456,128
-8388608,-605.0000721,-241646,-17.42790311,14530,1.047927266,128,-8.16871204,-113263,15589.84375,52096,128
-8388608,-605.0000721,-241549,-17.42090731,13589,0.980060813,128,-8.181766055,-113444,15609.375,52736,128
-8388608,-605.0000721,-242332,-17.47737854,14333,1.033719305,128,-8.176356933,-113369,15628.90625,53376,128
-8388608,-605.0000721,-237715,-17.14439298,15961,1.151133317,128,-8.189987921,-113558,15648.4375,54016,128
-8388608,-605.0000721,-234414,-16.90631949,16095,1.160797615,128,-8.195541286,-113635,15667.96875,54656,128
-8388608,-605.0000721,-233654,-16.85150705,15011,1.08261777,128,-8.192728542,-113596,15687.5,55296,128
-8388608,-605.0000721,-232157,-16.74354097,14828,1.069419511,128,-8.186598204,-113511,15707.03125,55936,128
-8388608,-605.0000721,-230921,-16.65439864,15083,1.087810527,128,-8.197777056,-113666,15726.5625,56576,128
-8388608,-605.0000721,-229895,-16.58040185,14856,1.071438917,128,-8.158470769,-113121,15746.09375,57216,128
-8388608,-605.0000721,-229340,-16.54037434,14891,1.073963174,128,-8.184434555,-113481,15765.625,57856,128
-8388608,-605.0000721,-228936,-16.51123721,14646,1.056293375,128,-8.187896393,-113529,15785.15625,58496,128
-8388608,-605.0000721,-227801,-16.42937916,14808,1.067977079,128,-8.169433256,-113273,15804.6875,59136,128
-8388608,-605.0000721,-227167,-16.38365404,14800,1.067400106,128,-8.171596905,-113303,15824.21875,59776,128
-8388608,-605.0000721,-227272,-16.39122682,14639,1.055788524,128,-8.176789662,-113375,15843.75,60416,128
-8388608,-605.0000721,-226168,-16.31160454,14594,1.05254305,128,-8.156884093,-113099,15863.28125,61056,128
-8388608,-605.0000721,-226212,-16.31477789,14604,1.053264267,128,-8.171092054,-113296,15882.8125,61696,128
-8388608,-605.0000721,-224777,-16.21128335,14978,1.080237756,128,-8.106903804,-112406,15902.34375,62336,128
-8388608,-605.0000721,-224609,-16.19916692,14896,1.074323782,128,-8.134382145,-112787,15921.875,62976,128
-8388608,-605.0000721,-224230,-16.17183282,14230,1.026290777,128,-8.121039643,-112602,15941.40625,63616,128
-8388608,-605.0000721,-223827,-16.1427678,14436,1.041147833,128,-8.146065849,-112949,15960.9375,64256,128
-8388608,-605.0000721,-224047,-16.15863456,14121,1.01842952,128,-8.169216891,-113270,15980.46875,64896,128
-8388608,-605.0000721,-223373,-16.11002458,14459,1.04280663,128,-8.152701038,-113041,16000,0,128
-8388608,-605.0000721,-223447,-16.11536159,14936,1.077208647,128,-8.240184574,-114254,16019.53125,640,128
-8388608,-605.0000721,-220695,-15.91688286,15380,1.109230651,128,-7.265749248,-100743,16039.0625,1280,128
-8388608,-605.0000721,-223492,-16.11860706,14347,1.034729008,128,-7.878494606,-109239,16058.59375,1920,128
-8388608,-605.0000721,-222673,-16.05953944,14058,1.013885857,128,-8.138709442,-112847,16078.125,2560,128
-8388608,-605.0000721,-222802,-16.06884313,14313,1.032276873,128,-8.156884093,-113099,16097.65625,3200,128
-8388608,-605.0000721,-222467,-16.04468239,14176,1.02239621,128,-8.142027037,-112893,16117.1875,3840,128
-8388608,-605.0000721,-221060,-15.94320726,14697,1.059971578,128,-8.115197791,-112521,16136.71875,4480,128
-8388608,-605.0000721,-221287,-15.95957887,14375,1.036748414,128,-8.110077156,-112450,16156.25,5120,128
-8388608,-605.0000721,-220850,-15.92806172,14501,1.045835739,128,-8.099691641,-112306,16175.78125,5760,128
-8388608,-605.0000721,-220235,-15.88370691,14468,1.043455725,128,-8.072069057,-111923,16195.3125,6400,128
-8388608,-605.0000721,-220132,-15.87627839,14044,1.012876155,128,-8.045384055,-111553,16214.84375,7040,128
-8388608,-605.0000721,-218989,-15.79384336,14581,1.051605469,128,-8.002327442,-110956,16234.375,7680,128
-8388608,-605.0000721,-217737,-15.70354708,14577,1.051316983,128,-7.902511108,-109572,16253.90625,8320,128
-8388608,-605.0000721,-217721,-15.70239314,14267,1.028959278,128,-7.902655351,-109574,16273.4375,8960,128
-8388608,-605.0000721,-217172,-15.66279836,14160,1.021242263,128,-7.879215822,-109249,16292.96875,9600,128
-8388608,-605.0000721,-217597,-15.69345006,13708,0.988643287,128,-7.912103285,-109705,16312.5,10240,128
-8388608,-605.0000721,-218061,-15.72691449,13792,0.994701504,128,-7.964535709,-110432,16332.03125,10880,128
-8388608,-605.0000721,-218502,-15.75872013,14037,1.012371303,128,-8.053245312,-111662,16351.5625,11520,128
-8388608,-605.0000721,-219397,-15.82326899,13906,1.00292337,128,-8.108706845,-112431,16371.09375,12160,128
-8388608,-605.0000721,-218976,-15.79290578,14018,1.011000992,128,-8.110005034,-112449,16390.625,12800,128
-8388608,-605.0000721,-218984,-15.79348276,13826,0.997153639,128,-8.104379547,-112371,16410.15625,13440,128
-8388608,-605.0000721,-218632,-15.76809594,14206,1.024559858,128,-8.084113369,-112090,16429.6875,14080,128
-8388608,-605.0000721,-218873,-15.78547726,14188,1.023261669,128,-8.107841385,-112419,16449.21875,14720,128
-8388608,-605.0000721,-218412,-15.75222918,14361,1.035738711,128,-8.073150882,-111938,16468.75,15360,128
-8388608,-605.0000721,-217730,-15.70304223,14638,1.055716402,128,-8.071419963,-111914,16488.28125,16000,128
-8388608,-605.0000721,-218066,-15.7272751,14274,1.029464129,128,-8.060096867,-111757,16507.8125,16640,128
-8388608,-605.0000721,-217037,-15.65306194,14408,1.039128427,128,-8.043292528,-111524,16527.34375,17280,128
-8388608,-605.0000721,-217444,-15.68241545,13978,1.008116127,128,-8.063486584,-111804,16546.875,17920,128
-8388608,-605.0000721,-216776,-15.6342382,14301,1.031411413,128,-8.044157987,-111536,16566.40625,18560,128
-8388608,-605.0000721,-217092,-15.65702863,14090,1.016193749,128,-8.084473978,-112095,16585.9375,19200,128
-8388608,-605.0000721,-216892,-15.64260431,14263,1.028670791,128,-8.075603017,-111972,16605.46875,19840,128
-8388608,-605.0000721,-217207,-15.66532262,14033,1.012082817,128,-8.079641828,-112028,16625,20480,128
-8388608,-605.0000721,-216412,-15.60798593,14573,1.051028496,128,-8.072790274,-111933,16644.53125,21120,128
-8388608,-605.0000721,-216486,-15.61332293,14319,1.032709602,128,-8.099908006,-112309,16664.0625,21760,128
-8388608,-605.0000721,-216454,-15.61101504,14346,1.034656886,128,-8.09565283,-112250,16683.59375,22400,128
-8388608,-605.0000721,-216290,-15.59918709,14429,1.040642982,128,-8.082670937,-112070,16703.125,23040,128
-8388608,-605.0000721,-215794,-15.56341476,14556,1.049802428,128,-8.090748559,-112182,16722.65625,23680,128
-8388608,-605.0000721,-215872,-15.56904025,14343,1.034440522,128,-8.097383749,-112274,16742.1875,24320,128
-8388608,-605.0000721,-216164,-15.59009976,13895,1.002130032,128,-8.091758262,-112196,16761.71875,24960,128
-8388608,-605.0000721,-215977,-15.57661302,14148,1.020376804,128,-8.10272075,-112348,16781.25,25600,128
-8388608,-605.0000721,-216275,-15.59810526,14205,1.024487737,128,-8.10625471,-112397,16800.78125,26240,128
-8388608,-605.0000721,-215542,-15.54524011,14374,1.036676292,128,-8.104018939,-112366,16820.3125,26880,128
-8388608,-605.0000721,-216100,-15.58548398,14125,1.018718006,128,-8.119885697,-112586,16839.84375,27520,128
-8388608,-605.0000721,-215562,-15.54668254,14635,1.055500037,128,-8.098537695,-112290,16859.375,28160,128
-8388608,-605.0000721,-215851,-15.56752569,13910,1.003211856,128,-8.076756963,-111988,16878.90625,28800,128
-8388608,-605.0000721,-214932,-15.50124592,14401,1.038623576,128,-8.060745962,-111766,16898.4375,29440,128
-8388608,-605.0000721,-214716,-15.48566764,14427,1.040498738,128,-8.081012139,-112047,16917.96875,30080,128
-8388608,-605.0000721,-214796,-15.49143737,14310,1.032060508,128,-8.101206195,-112327,16937.5,30720,128
-8388608,-605.0000721,-214811,-15.4925192,14096,1.016626479,128,-8.099475276,-112303,16957.03125,31360,128
-8388608,-605.0000721,-215718,-15.55793352,14173,1.022179845,128,-8.12753059,-112692,16976.5625,32000,128
-8388608,-605.0000721,-214711,-15.48530704,15183,1.09502269,128,-8.184073947,-113476,16996.09375,32640,128
-8388608,-605.0000721,-211002,-15.21780791,16456,1.186833523,128,-7.169394752,-99407,17015.625,33280,128
-8388608,-605.0000721,-214669,-15.48227793,13823,0.996937275,128,-7.769951555,-107734,17035.15625,33920,128
-8388608,-605.0000721,-214804,-15.49201435,13974,1.007827641,128,-8.089378248,-112163,17054.6875,34560,128
-8388608,-605.0000721,-214648,-15.48076337,14256,1.02816594,128,-8.076035747,-111978,17074.21875,35200,128
-8388608,-605.0000721,-214532,-15.47239726,14223,1.025785926,128,-8.078055153,-112006,17093.75,35840,128
-8388608,-605.0000721,-213986,-15.43301886,14503,1.045979982,128,-8.069400557,-111886,17113.28125,36480,128
-8388608,-605.0000721,-214166,-15.44600075,14631,1.055211551,128,-8.065938719,-111838,17132.8125,37120,128
-8388608,-605.0000721,-213718,-15.41369026,14604,1.053264267,128,-8.032618527,-111376,17152.34375,37760,128
-8388608,-605.0000721,-213502,-15.39811199,14523,1.047422415,128,-8.034782175,-111406,17171.875,38400,128
-8388608,-605.0000721,-213205,-15.37669186,14492,1.045186644,128,-8.011775376,-111087,17191.40625,39040,128
-8388608,-605.0000721,-212587,-15.3321207,14786,1.066390403,128,-7.969223615,-110497,17210.9375,39680,128
-8388608,-605.0000721,-212286,-15.31041209,14627,1.054923064,128,-7.955520505,-110307,17230.46875,40320,128
-8388608,-605.0000721,-211422,-15.248099,14768,1.065092214,128,-7.875826106,-109202,17250,40960,128
-8388608,-605.0000721,-210806,-15.20367208,14481,1.044393306,128,-7.827071885,-108526,17269.53125,41600,128
-8388608,-605.0000721,-211531,-15.25596026,14353,1.035161738,128,-7.890250431,-109402,17289.0625,42240,128
-8388608,-605.0000721,-212306,-15.31185452,13919,1.003860951,128,-7.96013629,-110371,17308.59375,42880,128
-8388608,-605.0000721,-213034,-15.36435906,14234,1.026579264,128,-8.050793177,-111628,17328.125,43520,128
-8388608,-605.0000721,-213433,-15.39313559,13990,1.008981587,128,-8.0952201,-112244,17347.65625,44160,128
-8388608,-605.0000721,-213790,-15.41888302,14303,1.031555656,128,-8.116640224,-112541,17367.1875,44800,128
-8388608,-605.0000721,-213690,-15.41167085,14393,1.038046603,128,-8.126737252,-112681,17386.71875,45440,128
-8388608,-605.0000721,-213563,-15.40251141,13838,0.998019099,128,-8.109860791,-112447,17406.25,46080,128
-8388608,-605.0000721,-213720,-15.4138345,14304,1.031627778,128,-8.140945213,-112878,17425.78125,46720,128
-8388608,-605.0000721,-212966,-15.35945479,14374,1.036676292,128,-8.111086859,-112464,17445.3125,47360,128
-8388608,-605.0000721,-213632,-15.4074878,13924,1.004221559,128,-8.098177087,-112285,17464.84375,48000,128
-8388608,-605.0000721,-213248,-15.37979309,14493,1.045258766,128,-8.107408656,-112413,17484.375,48640,128
-8388608,-605.0000721,-213003,-15.36212329,14271,1.029247764,128,-8.086204897,-112119,17503.90625,49280,128
-8388608,-605.0000721,-212430,-15.3207976,14357,1.035450224,128,-8.099763763,-112307,17523.4375,49920,128
-8388608,-605.0000721,-212935,-15.35721902,13872,1.000471234,128,-8.107408656,-112413,17542.96875,50560,128
-8388608,-605.0000721,-212967,-15.35952692,14029,1.01179433,128,-8.096446168,-112261,17562.5,51200,128
-8388608,-605.0000721,-212447,-15.32202367,14600,1.05297578,128,-8.112889899,-112489,17582.03125,51840,128
-8388608,-605.0000721,-212629,-15.3351498,14181,1.022756818,128,-8.120679035,-112597,17601.5625,52480,128
-8388608,-605.0000721,-212429,-15.32072548,14327,1.033286575,128,-8.109067453,-112436,17621.09375,53120,128
-8388608,-605.0000721,-213369,-15.38851981,13826,0.997153639,128,-8.150393146,-113009,17640.625,53760,128
-8388608,-605.0000721,-212091,-15.29634837,14532,1.048071509,128,-8.10582198,-112391,17660.15625,54400,128
-8388608,-605.0000721,-212384,-15.31748001,14248,1.027588967,128,-8.11469294,-112514,17679.6875,55040,128
-8388608,-605.0000721,-212443,-15.32173518,14301,1.031411413,128,-8.148229497,-112979,17699.21875,55680,128
-8388608,-605.0000721,-212372,-15.31661455,14207,1.02463198,128,-8.124501482,-112650,17718.75,56320,128
-8388608,-605.0000721,-212531,-15.32808189,14370,1.036387806,128,-8.142099159,-112894,17738.28125,56960,128
-8388608,-605.0000721,-212116,-15.29815141,14208,1.024704102,128,-8.130343334,-112731,17757.8125,57600,128
-8388608,-605.0000721,-212670,-15.33810679,14076,1.015184047,128,-8.137627618,-112832,17777.34375,58240,128
-8388608,-605.0000721,-212261,-15.30860905,14531,1.047999388,128,-8.138925807,-112850,17796.875,58880,128
-8388608,-605.0000721,-212288,-15.31055633,14228,1.026146534,128,-8.127242103,-112688,17816.40625,59520,128
-8388608,-605.0000721,-212317,-15.31264786,14337,1.034007792,128,-8.127169982,-112687,17835.9375,60160,128
-8388608,-605.0000721,-212186,-15.30319992,14231,1.026362899,128,-8.122121468,-112617,17855.46875,60800,128
-8388608,-605.0000721,-212240,-15.30709449,13982,1.008404614,128,-8.128612414,-112707,17875,61440,128
-8388608,-605.0000721,-211844,-15.27853433,14726,1.062063105,128,-8.095869195,-112253,17894.53125,62080,128
-8388608,-605.0000721,-211666,-15.26569668,14362,1.035810832,128,-8.059736259,-111752,17914.0625,62720,128
-8388608,-605.0000721,-210770,-15.2010757,14908,1.075189242,128,-8.055913813,-111699,17933.59375,63360,128
-8388608,-605.0000721,-211114,-15.22588554,14012,1.010568262,128,-8.088007937,-112144,17953.125,64000,128
-8388608,-605.0000721,-211569,-15.25870088,13909,1.003139735,128,-8.091614019,-112194,17972.65625,64640,128
-8388608,-605.0000721,-211650,-15.26454273,13974,1.007827641,128,-8.098898303,-112295,17992.1875,65280,128
-8388608,-605.0000721,-211872,-15.28055373,14243,1.027228359,128,-8.200012827,-113697,18011.71875,384,128
-8388608,-605.0000721,-208346,-15.02625287,16551,1.193685078,128,-7.894289243,-109458,18031.25,1024,128
-8388608,-605.0000721,-211698,-15.26800457,12277,0.885437236,128,-7.5496921,-104680,18050.78125,1664,128
-8388608,-605.0000721,-211047,-15.22105339,14241,1.027084115,128,-7.946793788,-110186,18070.3125,2304,128
-8388608,-605.0000721,-210718,-15.19732537,14528,1.047783023,128,-8.018410566,-111179,18089.84375,2944,128
-8388608,-605.0000721,-211130,-15.22703948,14213,1.02506471,128,-8.066155084,-111841,18109.375,3584,128
-8388608,-605.0000721,-210897,-15.21023514,14515,1.046845442,128,-8.032690648,-111377,18128.90625,4224,128
-8388608,-605.0000721,-210996,-15.21737519,14429,1.040642982,128,-8.028074864,-111313,18148.4375,4864,128
-8388608,-605.0000721,-210880,-15.20900908,14136,1.019511344,128,-8.005428672,-110999,18167.96875,5504,128
-8388608,-605.0000721,-210167,-15.15758635,14369,1.036315684,128,-7.974127886,-110565,18187.5,6144,128
-8388608,-605.0000721,-210070,-15.15059056,14341,1.034296278,128,-7.9561696,-110316,18207.03125,6784,128
-8388608,-605.0000721,-209577,-15.11503459,14551,1.04944182,128,-7.925373665,-109889,18226.5625,7424,128
-8388608,-605.0000721,-209344,-15.09823025,14516,1.046917563,128,-7.887149201,-109359,18246.09375,8064,128
-8388608,-605.0000721,-208421,-15.03166199,14331,1.033575062,128,-7.794400787,-108073,18265.625,8704,128
-8388608,-605.0000721,-208023,-15.00295758,14413,1.039489036,128,-7.77463946,-107799,18285.15625,9344,128
-8388608,-605.0000721,-208348,-15.02639711,14140,1.019799831,128,-7.758556337,-107576,18304.6875,9984,128
-8388608,-605.0000721,-208999,-15.07334829,13809,0.995927572,128,-7.828153709,-108541,18324.21875,10624,128
-8388608,-605.0000721,-209652,-15.12044372,14102,1.017059209,128,-7.920541515,-109822,18343.75,11264,128
-8388608,-605.0000721,-210221,-15.16148092,14284,1.030185345,128,-7.9791764,-110635,18363.28125,11904,128
-8388608,-605.0000721,-210581,-15.18744471,14254,1.028021697,128,-8.003625632,-110974,18382.8125,12544,128
-8388608,-605.0000721,-210947,-15.21384123,14075,1.015111925,128,-8.018699052,-111183,18402.34375,13184,128
-8388608,-605.0000721,-210978,-15.216077,14234,1.026579264,128,-8.022016647,-111229,18421.875,13824,128
-8388608,-605.0000721,-211377,-15.24485353,14366,1.036099319,128,-8.001461983,-110944,18441.40625,14464,128
-8388608,-605.0000721,-210745,-15.19927266,14716,1.061341889,128,-7.996269226,-110872,18460.9375,15104,128
-8388608,-605.0000721,-210670,-15.19386353,14633,1.055355794,128,-7.993672847,-110836,18480.46875,15744,128
-8388608,-605.0000721,-210567,-15.18643501,14238,1.026867751,128,-7.972180602,-110538,18500,16384,128
-8388608,-605.0000721,-210261,-15.16436579,14441,1.041508441,128,-7.950471991,-110237,18519.53125,17024,128
-8388608,-605.0000721,-210249,-15.16350033,14588,1.052110321,128,-7.934965841,-110022,18539.0625,17664,128
-8388608,-605.0000721,-209917,-15.13955595,14742,1.063217051,128,-7.937273733,-110054,18558.59375,18304,128
-8388608,-605.0000721,-210649,-15.19234898,14093,1.016410114,128,-7.964679952,-110434,18578.125,18944,128
-8388608,-605.0000721,-210198,-15.15982213,14476,1.044032698,128,-7.931504003,-109974,18597.65625,19584,128
-8388608,-605.0000721,-210797,-15.20302298,14176,1.02239621,128,-7.962155695,-110399,18617.1875,20224,128
-8388608,-605.0000721,-210107,-15.15325906,14596,1.052687294,128,-7.942610734,-110128,18636.71875,20864,128
-8388608,-605.0000721,-210639,-15.19162776,14390,1.037830238,128,-7.970233318,-110511,18656.25,21504,128
-8388608,-605.0000721,-210504,-15.18189134,14260,1.028454426,128,-7.957467789,-110334,18675.78125,22144,128
-8388608,-605.0000721,-210746,-15.19934478,14381,1.037181143,128,-7.972180602,-110538,18695.3125,22784,128
-8388608,-605.0000721,-210915,-15.21153333,14353,1.035161738,128,-7.980690954,-110656,18714.84375,23424,128
-8388608,-605.0000721,-210296,-15.16689005,14649,1.05650974,128,-7.947154396,-110191,18734.375,24064,128
-8388608,-605.0000721,-210521,-15.18311741,14506,1.046196347,128,-7.962299938,-110401,18753.90625,24704,128
-8388608,-605.0000721,-210459,-15.17864587,14555,1.049730307,128,-7.936336152,-110041,18773.4375,25344,128
-8388608,-605.0000721,-210527,-15.18355014,14672,1.058168537,128,-7.939581625,-110086,18792.96875,25984,128
-8388608,-605.0000721,-210187,-15.15902879,14824,1.069131025,128,-7.917728772,-109783,18812.5,26624,128
-8388608,-605.0000721,-210500,-15.18160286,14526,1.04763878,128,-7.93979799,-110089,18832.03125,27264,128
-8388608,-605.0000721,-210512,-15.18246832,14614,1.053985483,128,-7.918810596,-109798,18851.5625,27904,128
-8388608,-605.0000721,-211306,-15.23973289,13946,1.005808235,128,-7.951193208,-110247,18871.09375,28544,128
-8388608,-605.0000721,-210888,-15.20958605,14303,1.031555656,128,-7.889240729,-109388,18890.625,29184,128
-8388608,-605.0000721,-209759,-15.12816073,14834,1.069852241,128,-7.88888012,-109383,18910.15625,29824,128
-8388608,-605.0000721,-209926,-15.14020504,14198,1.023982885,128,-7.874383673,-109182,18929.6875,30464,128
-8388608,-605.0000721,-210496,-15.18131437,14228,1.026146534,128,-7.89551531,-109475,18949.21875,31104,128
-8388608,-605.0000721,-209967,-15.14316203,14441,1.041508441,128,-7.884120093,-109317,18968.75,31744,128
-8388608,-605.0000721,-211482,-15.2524263,14043,1.012804033,128,-7.942538612,-110127,18988.28125,32384,128
-8388608,-605.0000721,-210095,-15.1523936,14934,1.077064404,128,-7.954727167,-110296,19007.8125,33024,128
-8388608,-605.0000721,-207986,-15.00028908,14124,1.018645885,128,-6.972142097,-96672,19027.34375,33664,128
-8388608,-605.0000721,-210486,-15.18059315,13907,1.002995491,128,-7.56873221,-104944,19046.875,34304,128
-8388608,-605.0000721,-210543,-15.18470409,14244,1.02730048,128,-7.822672465,-108465,19066.40625,34944,128
-8388608,-605.0000721,-210926,-15.21232667,14127,1.01886225,128,-7.879937038,-109259,19085.9375,35584,128
-8388608,-605.0000721,-210539,-15.1844156,14586,1.051966077,128,-7.860464199,-108989,19105.46875,36224,128
-8388608,-605.0000721,-210251,-15.16364457,14590,1.052254564,128,-7.841856818,-108731,19125,36864,128
-8388608,-605.0000721,-210574,-15.18693986,14388,1.037685995,128,-7.84503017,-108775,19144.53125,37504,128
-8388608,-605.0000721,-210264,-15.16458215,14583,1.051749712,128,-7.805363274,-108225,19164.0625,38144,128
-8388608,-605.0000721,-209708,-15.12448253,14526,1.04763878,128,-7.768004271,-107707,19183.59375,38784,128
-8388608,-605.0000721,-209461,-15.10666849,14938,1.077352891,128,-7.756825418,-107552,19203.125,39424,128
-8388608,-605.0000721,-209024,-15.07515133,14626,1.054850942,128,-7.710595454,-106911,19222.65625,40064,128
-8388608,-605.0000721,-208829,-15.06108762,14658,1.057158835,128,-7.676914653,-106444,19242.1875,40704,128
-8388608,-605.0000721,-208274,-15.02106011,14619,1.054346091,128,-7.633425311,-105841,19261.71875,41344,128
-8388608,-605.0000721,-207526,-14.96711313,14481,1.044393306,128,-7.579189846,-105089,19281.25,41984,128
-8388608,-605.0000721,-208307,-15.02344013,14028,1.011722208,128,-7.627294973,-105756,19300.78125,42624,128
-8388608,-605.0000721,-209133,-15.08301259,13928,1.004510046,128,-7.682323776,-106519,19320.3125,43264,128
-8388608,-605.0000721,-210118,-15.1540524,13927,1.004437924,128,-7.784448002,-107935,19339.84375,43904,128
-8388608,-605.0000721,-210519,-15.18297317,14038,1.012443425,128,-7.804858423,-108218,19359.375,44544,128
-8388608,-605.0000721,-210669,-15.19379141,14363,1.035882954,128,-7.83796225,-108677,19378.90625,45184,128
-8388608,-605.0000721,-211026,-15.21953883,13993,1.009197951,128,-7.842578035,-108741,19398.4375,45824,128
-8388608,-605.0000721,-211060,-15.22199097,14198,1.023982885,128,-7.83529375,-108640,19417.96875,46464,128
-8388608,-605.0000721,-210519,-15.18297317,14470,1.043599968,128,-7.816470005,-108379,19437.5,47104,128
-8388608,-605.0000721,-210614,-15.18982472,14360,1.035666589,128,-7.812359072,-108322,19457.03125,47744,128
-8388608,-605.0000721,-210728,-15.19804659,14210,1.024848345,128,-7.820436695,-108434,19476.5625,48384,128
-8388608,-605.0000721,-210491,-15.18095376,14343,1.034440522,128,-7.810195423,-108292,19496.09375,49024,128
-8388608,-605.0000721,-210335,-15.16970279,14279,1.029824737,128,-7.796997165,-108109,19515.625,49664,128
-8388608,-605.0000721,-210258,-15.16414942,14546,1.049081212,128,-7.790722584,-108022,19535.15625,50304,128
-8388608,-605.0000721,-209875,-15.13652684,14595,1.052615172,128,-7.793823814,-108065,19554.6875,50944,128
-8388608,-605.0000721,-210266,-15.1647264,14237,1.026795629,128,-7.805146909,-108222,19574.21875,51584,128
-8388608,-605.0000721,-210219,-15.16133668,14565,1.050451523,128,-7.800242639,-108154,19593.75,52224,128
-8388608,-605.0000721,-210124,-15.15448512,14699,1.060115821,128,-7.817912438,-108399,19613.28125,52864,128
-8388608,-605.0000721,-210547,-15.18499257,14239,1.026939872,128,-7.824547628,-108491,19632.8125,53504,128
-8388608,-605.0000721,-209954,-15.14222445,14563,1.05030728,128,-7.816974856,-108386,19652.34375,54144,128
-8388608,-605.0000721,-210403,-15.17460706,14356,1.035378103,128,-7.841063481,-108720,19671.875,54784,128
-8388608,-605.0000721,-209917,-15.13955595,14469,1.043527847,128,-7.830317358,-108571,19691.40625,55424,128
-8388608,-605.0000721,-210061,-15.14994146,14467,1.043383603,128,-7.834428291,-108628,19710.9375,56064,128
-8388608,-605.0000721,-210164,-15.15736999,14296,1.031050805,128,-7.853035671,-108886,19730.46875,56704,128
-8388608,-605.0000721,-210057,-15.14965298,14359,1.035594468,128,-7.843155008,-108749,19750,57344,128
-8388608,-605.0000721,-210434,-15.17684283,14193,1.023622277,128,-7.855559928,-108921,19769.53125,57984,128
-8388608,-605.0000721,-209763,-15.12844922,14606,1.05340851,128,-7.832841615,-108606,19789.0625,58624,128
-8388608,-605.0000721,-210341,-15.17013552,13995,1.009342195,128,-7.857290847,-108945,19808.59375,59264,128
-8388608,-605.0000721,-209740,-15.12679042,14348,1.03480113,128,-7.830966452,-108580,19828.125,59904,128
-8388608,-605.0000721,-210099,-15.15268208,14213,1.02506471,128,-7.853756887,-108896,19847.65625,60544,128
-8388608,-605.0000721,-209438,-15.10500969,14578,1.051389104,128,-7.787621354,-107979,19867.1875,61184,128
-8388608,-605.0000721,-208795,-15.05863548,14838,1.070140728,128,-7.786034678,-107957,19886.71875,61824,128
-8388608,-605.0000721,-209208,-15.08842171,14389,1.037758116,128,-7.808825112,-108273,19906.25,62464,128
-8388608,-605.0000721,-208992,-15.07284344,14481,1.044393306,128,-7.829812506,-108564,19925.78125,63104,128
-8388608,-605.0000721,-209661,-15.12109281,13941,1.005447627,128,-7.858084185,-108956,19945.3125,63744,128
-8388608,-605.0000721,-209492,-15.10890426,14831,1.069635876,128,-7.907775987,-109645,19964.84375,64384,128
-8388608,-605.0000721,-206231,-14.87371562,16343,1.178683779,128,-7.630540446,-105801,19984.375,65024,128
-8388608,-605.0000721,-207282,-14.94951546,12419,0.895678508,128,-6.947188013,-96326,20003.90625,128,128
-8388608,-605.0000721,-209082,-15.07933439,14383,1.037325387,128,-7.72105309,-107056,20023.4375,768,128
-8388608,-605.0000721,-209200,-15.08784474,14379,1.0370369,128,-7.770456406,-107741,20042.96875,1408,128
-8388608,-605.0000721,-209087,-15.079695,14546,1.049081212,128,-7.780481312,-107880,20062.5,2048,128
-8388608,-605.0000721,-209637,-15.11936189,14241,1.027084115,128,-7.806445099,-108240,20082.03125,2688,128
-8388608,-605.0000721,-209105,-15.08099319,14588,1.052110321,128,-7.770384284,-107740,20101.5625,3328,128
-8388608,-605.0000721,-209016,-15.07457436,14627,1.054923064,128,-7.758267851,-107572,20121.09375,3968,128
-8388608,-605.0000721,-208880,-15.06476582,14226,1.026002291,128,-7.73078951,-107191,20140.625,4608,128
-8388608,-605.0000721,-208251,-15.01940131,14662,1.057447321,128,-7.690978371,-106639,20160.15625,5248,128
-8388608,-605.0000721,-208237,-15.01839161,14526,1.04763878,128,-7.681241951,-106504,20179.6875,5888,128
-8388608,-605.0000721,-207617,-14.9736762,14488,1.044898158,128,-7.602340889,-105410,20199.21875,6528,128
-8388608,-605.0000721,-206996,-14.92888867,14864,1.07201589,128,-7.542407816,-104579,20218.75,7168,128
-8388608,-605.0000721,-206689,-14.90674733,14479,1.044249063,128,-7.48990327,-103851,20238.28125,7808,128
-8388608,-605.0000721,-206390,-14.88518296,14674,1.058312781,128,-7.461270983,-103454,20257.8125,8448,128
-8388608,-605.0000721,-207496,-14.96494948,14214,1.025136831,128,-7.552721209,-104722,20277.34375,9088,128
-8388608,-605.0000721,-208232,-15.018031,14138,1.019655588,128,-7.629458622,-105786,20296.875,9728,128
-8388608,-605.0000721,-208625,-15.0463748,14244,1.02730048,128,-7.678140721,-106461,20316.40625,10368,128
-8388608,-605.0000721,-209453,-15.10609151,14091,1.016265871,128,-7.739083497,-107306,20335.9375,11008,128
-8388608,-605.0000721,-208957,-15.07031918,14716,1.061341889,128,-7.727616158,-107147,20355.46875,11648,128
-8388608,-605.0000721,-209647,-15.12008311,14221,1.025641683,128,-7.739732592,-107315,20375,12288,128
-8388608,-605.0000721,-209094,-15.08019985,14670,1.058024294,128,-7.722207036,-107072,20394.53125,12928,128
-8388608,-605.0000721,-209151,-15.08431078,14206,1.024559858,128,-7.711388792,-106922,20414.0625,13568,128
-8388608,-605.0000721,-209176,-15.08611382,14358,1.035522346,128,-7.691843831,-106651,20433.59375,14208,128
-8388608,-605.0000721,-209135,-15.08315683,14384,1.037397508,128,-7.693430506,-106673,20453.125,14848,128
-8388608,-605.0000721,-208988,-15.07255495,14258,1.028310183,128,-7.671217045,-106365,20472.65625,15488,128
-8388608,-605.0000721,-208876,-15.06447733,14796,1.067111619,128,-7.652537543,-106106,20492.1875,16128,128
-8388608,-605.0000721,-208930,-15.0683719,14084,1.01576102,128,-7.658740003,-106192,20511.71875,16768,128
-8388608,-605.0000721,-208144,-15.0116843,14880,1.073169836,128,-7.642801123,-105971,20531.25,17408,128
-8388608,-605.0000721,-208222,-15.01730979,14458,1.042734509,128,-7.635805325,-105874,20550.78125,18048,128
-8388608,-605.0000721,-208591,-15.04392267,14012,1.010568262,128,-7.67720314,-106448,20570.3125,18688,128
-8388608,-605.0000721,-208637,-15.04724026,14140,1.019799831,128,-7.677419505,-106451,20589.84375,19328,128
-8388608,-605.0000721,-208664,-15.04918755,14273,1.029392008,128,-7.663355787,-106256,20609.375,19968,128
-8388608,-605.0000721,-208531,-15.03959537,14238,1.026867751,128,-7.648642975,-106052,20628.90625,20608,128
-8388608,-605.0000721,-208451,-15.03382564,14289,1.030545954,128,-7.666673382,-106302,20648.4375,21248,128
-8388608,-605.0000721,-208110,-15.00923216,14671,1.058096416,128,-7.636238055,-105880,20667.96875,21888,128
-8388608,-605.0000721,-208769,-15.05676032,14403,1.038767819,128,-7.668837031,-106332,20687.5,22528,128
-8388608,-605.0000721,-208469,-15.03512383,14549,1.049297577,128,-7.655999381,-106154,20707.03125,23168,128
-8388608,-605.0000721,-208341,-15.02589226,14631,1.055211551,128,-7.649364191,-106062,20726.5625,23808,128
-8388608,-605.0000721,-208464,-15.03476322,14348,1.03480113,128,-7.64489265,-106000,20746.09375,24448,128
-8388608,-605.0000721,-208576,-15.04284084,14558,1.049946672,128,-7.664004882,-106265,20765.625,25088,128
-8388608,-605.0000721,-208505,-15.03772021,14389,1.037758116,128,-7.600393605,-105383,20785.15625,25728,128
-8388608,-605.0000721,-207831,-14.98911023,14818,1.068698295,128,-7.598518443,-105357,20804.6875,26368,128
-8388608,-605.0000721,-208041,-15.00425577,14321,1.032853846,128,-7.619794323,-105652,20824.21875,27008,128
-8388608,-605.0000721,-207841,-14.98983145,14470,1.043599968,128,-7.61431308,-105576,20843.75,27648,128
-8388608,-605.0000721,-208545,-15.04060507,14452,1.042301779,128,-7.615106418,-105587,20863.28125,28288,128
-8388608,-605.0000721,-208668,-15.04947603,14468,1.043455725,128,-7.683910451,-106541,20882.8125,28928,128
-8388608,-605.0000721,-204625,-14.75788829,16487,1.189069294,128,-7.079386959,-98159,20902.34375,29568,128
-8388608,-605.0000721,-208531,-15.03959537,12728,0.917964091,128,-6.93550431,-96164,20921.875,30208,128
-8388608,-605.0000721,-208308,-15.02351225,14346,1.034656886,128,-7.479661999,-103709,20941.40625,30848,128
-8388608,-605.0000721,-208346,-15.02625287,14734,1.062640078,128,-7.560654588,-104832,20960.9375,31488,128
-8388608,-605.0000721,-208851,-15.06267429,14539,1.048576361,128,-7.62275131,-105693,20980.46875,32128,128
-8388608,-605.0000721,-208685,-15.0507021,14404,1.038839941,128,-7.589286874,-105229,21000,32768,128
-8388608,-605.0000721,-208022,-15.00288546,14734,1.062640078,128,-7.569237062,-104951,21019.53125,33408,128
-8388608,-605.0000721,-208010,-15.00202,14633,1.055355794,128,-7.556543655,-104775,21039.0625,34048,128
-8388608,-605.0000721,-207980,-14.99985635,14490,1.045042401,128,-7.550413317,-104690,21058.59375,34688,128
-8388608,-605.0000721,-208041,-15.00425577,14274,1.029464129,128,-7.544066613,-104602,21078.125,35328,128
-8388608,-605.0000721,-207156,-14.94042813,14786,1.066390403,128,-7.474252877,-103634,21097.65625,35968,128
-8388608,-605.0000721,-206755,-14.91150736,14582,1.051677591,128,-7.459323699,-103427,21117.1875,36608,128
-8388608,-605.0000721,-206026,-14.85893069,14636,1.055572159,128,-7.389509963,-102459,21136.71875,37248,128
-8388608,-605.0000721,-205398,-14.81363831,14718,1.061486132,128,-7.357992811,-102022,21156.25,37888,128
-8388608,-605.0000721,-205852,-14.84638153,14246,1.027444724,128,-7.366070433,-102134,21175.78125,38528,128
-8388608,-605.0000721,-206391,-14.88525508,14076,1.015184047,128,-7.41417556,-102801,21195.3125,39168,128
-8388608,-605.0000721,-207959,-14.9983418,13489,0.972848651,128,-7.560798831,-104834,21214.84375,39808,128
-8388608,-605.0000721,-207740,-14.98254716,14148,1.020376804,128,-7.569741913,-104958,21234.375,40448,128
-8388608,-605.0000721,-208487,-15.03642202,14029,1.01179433,128,-7.591089915,-105254,21253.90625,41088,128
-8388608,-605.0000721,-208768,-15.0566882,14214,1.025136831,128,-7.621525243,-105676,21273.4375,41728,128
-8388608,-605.0000721,-208746,-15.05510152,14170,1.02196348,128,-7.62361677,-105705,21292.96875,42368,128
-8388608,-605.0000721,-208917,-15.06743432,14217,1.025353196,128,-7.623544648,-105704,21312.5,43008,128
-8388608,-605.0000721,-208365,-15.02762318,14611,1.053769118,128,-7.600682092,-105387,21332.03125,43648,128
-8388608,-605.0000721,-208568,-15.04226387,14114,1.017924669,128,-7.603062106,-105420,21351.5625,44288,128
-8388608,-605.0000721,-208362,-15.02740681,14346,1.034656886,128,-7.590657185,-105248,21371.09375,44928,128
-8388608,-605.0000721,-208251,-15.01940131,14101,1.016987087,128,-7.585392306,-105175,21390.625,45568,128
-8388608,-605.0000721,-208221,-15.01723767,14268,1.029031399,128,-7.588565658,-105219,21410.15625,46208,128
-8388608,-605.0000721,-207946,-14.99740422,14142,1.019944074,128,-7.565703102,-104902,21429.6875,46848,128
-8388608,-605.0000721,-208287,-15.02199769,14194,1.023694399,128,-7.600249362,-105381,21449.21875,47488,128
-8388608,-605.0000721,-208308,-15.02351225,14140,1.019799831,128,-7.591017794,-105253,21468.75,48128,128
-8388608,-605.0000721,-208577,-15.04291297,14003,1.009919168,128,-7.612221552,-105547,21488.28125,48768,128
-8388608,-605.0000721,-208234,-15.01817525,14299,1.03126717,128,-7.609553052,-105510,21507.8125,49408,128
-8388608,-605.0000721,-208624,-15.04630268,14245,1.027372602,128,-7.616909458,-105612,21527.34375,50048,128
-8388608,-605.0000721,-208466,-15.03490746,14184,1.022973183,128,-7.625491932,-105731,21546.875,50688,128
-8388608,-605.0000721,-208557,-15.04147053,14124,1.018645885,128,-7.631982879,-105821,21566.40625,51328,128
-8388608,-605.0000721,-208556,-15.04139841,14383,1.037325387,128,-7.626718,-105748,21585.9375,51968,128
-8388608,-605.0000721,-208669,-15.04954816,14499,1.045691496,128,-7.639916258,-105931,21605.46875,52608,128
-8388608,-605.0000721,-208629,-15.04666329,14149,1.020448926,128,-7.612942769,-105557,21625,53248,128
-8388608,-605.0000721,-208842,-15.0620252,14334,1.033791427,128,-7.624337986,-105715,21644.53125,53888,128
-8388608,-605.0000721,-208834,-15.06144822,14501,1.045835739,128,-7.626429513,-105744,21664.0625,54528,128
-8388608,-605.0000721,-208916,-15.0673622,14370,1.036387806,128,-7.602557254,-105413,21683.59375,55168,128
-8388608,-605.0000721,-208123,-15.01016975,14678,1.058601267,128,-7.560510345,-104830,21703.125,55808,128
-8388608,-605.0000721,-207679,-14.97814774,14940,1.077497134,128,-7.558707304,-104805,21722.65625,56448,128
-8388608,-605.0000721,-207954,-14.99798119,14328,1.033358697,128,-7.559500642,-104816,21742.1875,57088,128
-8388608,-605.0000721,-208157,-15.01262188,14370,1.036387806,128,-7.600754213,-105388,21761.71875,57728,128
-8388608,-605.0000721,-209014,-15.07443012,13807,0.995783329,128,-7.641430812,-105952,21781.25,58368,128
-8388608,-605.0000721,-208806,-15.05942882,14446,1.041869049,128,-7.670351585,-106353,21800.78125,59008,128
-8388608,-605.0000721,-206317,-14.87991808,15476,1.116154327,128,-7.539667194,-104541,21820.3125,59648,128
-8388608,-605.0000721,-204838,-14.7732502,12963,0.934912674,128,-6.663461526,-92392,21839.84375,60288,128
-8388608,-605.0000721,-208249,-15.01925707,13839,0.998091221,128,-7.505481542,-104067,21859.375,60928,128
-8388608,-605.0000721,-208191,-15.01507402,14002,1.009847046,128,-7.578540752,-105080,21878.90625,61568,128
-8388608,-605.0000721,-208294,-15.02250254,14537,1.048432118,128,-7.60327847,-105423,21898.4375,62208,128
-8388608,-605.0000721,-208527,-15.03930688,14358,1.035522346,128,-7.606019092,-105461,21917.96875,62848,128
-8388608,-605.0000721,-208538,-15.04010022,14121,1.01842952,128,-7.60500939,-105447,21937.5,63488,128
-8388608,-605.0000721,-208213,-15.01666069,14383,1.037325387,128,-7.570102521,-104963,21957.03125,64128,128
-8388608,-605.0000721,-208297,-15.02271891,14182,1.022828939,128,-7.584094117,-105157,21976.5625,64768,128
-8388608,-605.0000721,-207907,-14.99459147,14575,1.051172739,128,-7.561159439,-104839,21996.09375,65408,128
-8388608,-605.0000721,-207512,-14.96610343,15013,1.082762013,128,-7.532455031,-104441,22015.625,512,128
-8388608,-605.0000721,-207140,-14.93927418,14589,1.052182442,128,-7.505481542,-104067,22035.15625,1152,128
-8388608,-605.0000721,-206127,-14.86621497,14886,1.073602566,128,-7.432927183,-103061,22054.6875,1792,128
-8388608,-605.0000721,-206059,-14.8613107,14488,1.044898158,128,-7.367584988,-102155,22074.21875,2432,128
-8388608,-605.0000721,-206734,-14.9099928,14194,1.023694399,128,-7.38539903,-102402,22093.75,3072,128
-8388608,-605.0000721,-206944,-14.92513835,14001,1.009774924,128,-7.415401627,-102818,22113.28125,3712,128
-8388608,-605.0000721,-208231,-15.01795888,13426,0.968304988,128,-7.528704706,-104389,22132.8125,4352,128
-8388608,-605.0000721,-208657,-15.0486827,13954,1.006385208,128,-7.58156986,-105122,22152.34375,4992,128
-8388608,-605.0000721,-209298,-15.09491266,14130,1.019078615,128,-7.6240495,-105711,22171.875,5632,128
-8388608,-605.0000721,-209751,-15.12758376,14398,1.038407211,128,-7.629674987,-105789,22191.40625,6272,128
-8388608,-605.0000721,-209776,-15.1293868,14067,1.014534952,128,-7.65109511,-106086,22210.9375,6912,128
-8388608,-605.0000721,-209493,-15.10897638,14487,1.044826036,128,-7.621164634,-105671,22230.46875,7552,128
-8388608,-605.0000721,-209527,-15.11142851,14442,1.041580563,128,-7.601980281,-105405,22250,8192,128
-8388608,-605.0000721,-209642,-15.1197225,14726,1.062063105,128,-7.612005188,-105544,22269.53125,8832,128
-8388608,-605.0000721,-209427,-15.10421635,14474,1.043888455,128,-7.567434021,-104926,22289.0625,9472,128
-8388608,-605.0000721,-209731,-15.12614132,14104,1.017203452,128,-7.582218955,-105131,22308.59375,10112,128
-8388608,-605.0000721,-209146,-15.08395017,14246,1.027444724,128,-7.556183047,-104770,22328.125,10752,128
-8388608,-605.0000721,-208964,-15.07082404,14284,1.030185345,128,-7.547816938,-104654,22347.65625,11392,128
-8388608,-605.0000721,-209431,-15.10450484,13841,0.998235464,128,-7.543994492,-104601,22367.1875,12032,128
-8388608,-605.0000721,-209912,-15.13919534,14034,1.012154938,128,-7.56692917,-104919,22386.71875,12672,128
-8388608,-605.0000721,-209559,-15.1137364,14624,1.054706699,128,-7.535916869,-104489,22406.25,13312,128
-8388608,-605.0000721,-209929,-15.14042141,14268,1.029031399,128,-7.540749018,-104556,22425.78125,13952,128
-8388608,-605.0000721,-209924,-15.1400608,14359,1.035594468,128,-7.540460532,-104552,22445.3125,14592,128
-8388608,-605.0000721,-210599,-15.1887429,14425,1.040354495,128,-7.55899579,-104809,22464.84375,15232,128
-8388608,-605.0000721,-210031,-15.14777781,14596,1.052687294,128,-7.524665895,-104333,22484.375,15872,128
-8388608,-605.0000721,-210824,-15.20497027,14586,1.051966077,128,-7.563972183,-104878,22503.90625,16512,128
-8388608,-605.0000721,-210362,-15.17165007,14097,1.016698601,128,-7.555101222,-104755,22523.4375,17152,128
-8388608,-605.0000721,-211083,-15.22364977,14229,1.026218656,128,-7.54788906,-104655,22542.96875,17792,128
-8388608,-605.0000721,-211001,-15.21773579,14043,1.012804033,128,-7.55899579,-104809,22562.5,18432,128
-8388608,-605.0000721,-210853,-15.20706179,14076,1.015184047,128,-7.537359302,-104509,22582.03125,19072,128
-8388608,-605.0000721,-210846,-15.20655694,13562,0.978113529,128,-7.546446627,-104635,22601.5625,19712,128
-8388608,-605.0000721,-210764,-15.20064297,14288,1.030473832,128,-7.520771327,-104279,22621.09375,20352,128
-8388608,-605.0000721,-211254,-15.23598257,14269,1.029103521,128,-7.554884858,-104752,22640.625,20992,128
-8388608,-605.0000721,-210649,-15.19234898,14233,1.026507142,128,-7.458386118,-103414,22660.15625,21632,128
-8388608,-605.0000721,-210662,-15.19328656,14204,1.024415615,128,-7.51247734,-104164,22679.6875,22272,128
-8388608,-605.0000721,-210504,-15.18189134,13964,1.007106424,128,-7.504399717,-104052,22699.21875,22912,128
-8388608,-605.0000721,-211087,-15.22393825,14181,1.022756818,128,-7.520194354,-104271,22718.75,23552,128
-8388608,-605.0000721,-211322,-15.24088684,13820,0.99672091,128,-7.541470235,-104566,22738.28125,24192,128
-8388608,-605.0000721,-211241,-15.23504498,14341,1.034296278,128,-7.519833746,-104266,22757.8125,24832,128
-8388608,-605.0000721,-210199,-15.15989425,15693,1.13180472,128,-7.53505141,-104477,22777.34375,25472,128
-8388608,-605.0000721,-209734,-15.12635769,14486,1.044753914,128,-6.651633579,-92228,22796.875,26112,128
-8388608,-605.0000721,-211172,-15.23006859,14894,1.074179539,128,-7.286880885,-101036,22816.40625,26752,128
-8388608,-605.0000721,-210710,-15.1967484,14261,1.028526548,128,-7.470141944,-103577,22835.9375,27392,128
-8388608,-605.0000721,-210643,-15.19191625,14124,1.018645885,128,-7.464011605,-103492,22855.46875,28032,128
-8388608,-605.0000721,-210814,-15.20424905,14498,1.045619374,128,-7.463723119,-103488,22875,28672,128
-8388608,-605.0000721,-210733,-15.1984072,14274,1.029464129,128,-7.455140645,-103369,22894.53125,29312,128
-8388608,-605.0000721,-210572,-15.18679561,14416,1.0397054,128,-7.429898075,-103019,22914.0625,29952,128
-8388608,-605.0000721,-209909,-15.13897897,14353,1.035161738,128,-7.399606991,-102599,22933.59375,30592,128
-8388608,-605.0000721,-209813,-15.1320553,14206,1.024559858,128,-7.381648705,-102350,22953.125,31232,128
-8388608,-605.0000721,-209511,-15.11027457,14620,1.054418213,128,-7.356694622,-102004,22972.65625,31872,128
-8388608,-605.0000721,-208976,-15.0716895,14678,1.058601267,128,-7.306425846,-101307,22992.1875,32512,128
-8388608,-605.0000721,-207906,-14.99451935,14871,1.072520742,128,-7.252911598,-100565,23011.71875,33152,128
-8388608,-605.0000721,-207245,-14.94684696,14733,1.062567957,128,-7.195286416,-99766,23031.25,33792,128
-8388608,-605.0000721,-207857,-14.99098539,14397,1.038335089,128,-7.203508282,-99880,23050.78125,34432,128
-8388608,-605.0000721,-207875,-14.99228358,13866,1.000038505,128,-7.218365338,-100086,23070.3125,35072,128
-8388608,-605.0000721,-208547,-15.04074932,14001,1.009774924,128,-7.307796157,-101326,23089.84375,35712,128
-8388608,-605.0000721,-209507,-15.10998608,13931,1.00472641,128,-7.38186507,-102353,23109.375,36352,128
-8388608,-605.0000721,-209837,-15.13378622,14201,1.02419925,128,-7.400183964,-102607,23128.90625,36992,128
-8388608,-605.0000721,-210154,-15.15664877,14216,1.025281075,128,-7.428744129,-103003,23148.4375,37632,128
-8388608,-605.0000721,-209606,-15.11712612,14332,1.033647184,128,-7.411002208,-102757,23167.96875,38272,128
-8388608,-605.0000721,-209764,-15.12852134,14551,1.04944182,128,-7.403645802,-102655,23187.5,38912,128
-8388608,-605.0000721,-210494,-15.18117013,14388,1.037685995,128,-7.435739927,-103100,23207.03125,39552,128
-8388608,-605.0000721,-210081,-15.15138389,14099,1.016842844,128,-7.372345015,-102221,23226.5625,40192,128
-8388608,-605.0000721,-209614,-15.11770309,14649,1.05650974,128,-7.365854069,-102131,23246.09375,40832,128
-8388608,-605.0000721,-209494,-15.1090485,14481,1.044393306,128,-7.359002514,-102036,23265.625,41472,128
-8388608,-605.0000721,-209564,-15.11409701,14360,1.035666589,128,-7.366286798,-102137,23285.15625,42112,128
-8388608,-605.0000721,-210086,-15.1517445,14308,1.031916265,128,-7.351429743,-101931,23304.6875,42752,128
-8388608,-605.0000721,-209571,-15.11460186,14489,1.044970279,128,-7.344794553,-101839,23324.21875,43392,128
-8388608,-605.0000721,-209491,-15.10883213,14769,1.065164335,128,-7.358137054,-102024,23343.75,44032,128
-8388608,-605.0000721,-209925,-15.14013292,14433,1.040931468,128,-7.364628001,-102114,23363.28125,44672,128
-8388608,-605.0000721,-209192,-15.08726777,14630,1.055139429,128,-7.327485362,-101599,23382.8125,45312,128
-8388608,-605.0000721,-210104,-15.15304269,14169,1.021891358,128,-7.392394828,-102499,23402.34375,45952,128
-8388608,-605.0000721,-209417,-15.10349513,14881,1.073241958,128,-7.351501864,-101932,23421.875,46592,128
-8388608,-605.0000721,-209323,-15.0967157,14603,1.053192145,128,-7.345876377,-101854,23441.40625,47232,128
-8388608,-605.0000721,-209826,-15.13299288,14394,1.038118725,128,-7.360084338,-102051,23460.9375,47872,128
-8388608,-605.0000721,-209532,-15.11178912,14701,1.060260065,128,-7.35972373,-102046,23480.46875,48512,128
-8388608,-605.0000721,-209567,-15.11431338,14448,1.042013293,128,-7.365349217,-102124,23500,49152,128
-8388608,-605.0000721,-209343,-15.09815813,14362,1.035810832,128,-7.352727932,-101949,23519.53125,49792,128
-8388608,-605.0000721,-209461,-15.10666849,14389,1.037758116,128,-7.368811055,-102172,23539.0625,50432,128
-8388608,-605.0000721,-209430,-15.10443271,14105,1.017275574,128,-7.341332715,-101791,23558.59375,51072,128
-8388608,-605.0000721,-209326,-15.09693207,14294,1.030906562,128,-7.341332715,-101791,23578.125,51712,128
-8388608,-605.0000721,-208752,-15.05553425,14899,1.074540147,128,-7.281688128,-100964,23597.65625,52352,128
-8388608,-605.0000721,-208631,-15.04680753,14693,1.059683092,128,-7.310176171,-101359,23617.1875,52992,128
-8388608,-605.0000721,-208932,-15.06851614,14058,1.013885857,128,-7.313638009,-101407,23636.71875,53632,128
-8388608,-605.0000721,-208885,-15.06512643,14503,1.045979982,128,-7.313205279,-101401,23656.25,54272,128
-8388608,-605.0000721,-209693,-15.1234007,14086,1.015905263,128,-7.359002514,-102036,23675.78125,54912,128
-8388608,-605.0000721,-209784,-15.12996377,14767,1.065020092,128,-7.41770952,-102850,23695.3125,55552,128
-8388608,-605.0000721,-207768,-14.98456657,15944,1.149907249,128,-7.266398342,-100752,23714.84375,56192,128
-8388608,-605.0000721,-208701,-15.05185605,13899,1.002418518,128,-6.653725106,-92257,23734.375,56832,128
-8388608,-605.0000721,-208564,-15.04197538,14302,1.031483535,128,-7.202714944,-99869,23753.90625,57472,128
-8388608,-605.0000721,-208647,-15.04796148,14181,1.022756818,128,-7.282986317,-100982,23773.4375,58112,128
-8388608,-605.0000721,-209670,-15.12174191,14068,1.014607074,128,-7.337798755,-101742,23792.96875,58752,128
-8388608,-605.0000721,-208906,-15.06664098,14708,1.060764916,128,-7.314647712,-101421,23812.5,59392,128
-8388608,-605.0000721,-208674,-15.04990876,14353,1.035161738,128,-7.300511873,-101225,23832.03125,60032,128
-8388608,-605.0000721,-208856,-15.0630349,14097,1.016698601,128,-7.285077844,-101011,23851.5625,60672,128
-8388608,-605.0000721,-208691,-15.05113483,14526,1.04763878,128,-7.283851777,-100994,23871.09375,61312,128
-8388608,-605.0000721,-208304,-15.02322376,14434,1.04100359,128,-7.259114058,-100651,23890.625,61952,128
-8388608,-605.0000721,-207713,-14.98059988,14714,1.061197646,128,-7.213893797,-100024,23910.15625,62592,128
-8388608,-605.0000721,-207102,-14.93653356,14208,1.024704102,128,-7.194781565,-99759,23929.6875,63232,128
-8388608,-605.0000721,-206560,-14.89744364,14700,1.060187943,128,-7.136290924,-98948,23949.21875,63872,128
-8388608,-605.0000721,-205861,-14.84703062,14832,1.069707998,128,-7.075203905,-98101,23968.75,64512,128
-8388608,-605.0000721,-205879,-14.84832881,13988,1.008837343,128,-7.073761472,-98081,23988.28125,65152,128
-8388608,-605.0000721,-206507,-14.89362119,13651,0.984532354,128,-7.136218802,-98947,24007.8125,256,128
-8388608,-605.0000721,-207659,-14.97670531,13770,0.993114828,128,-7.224928406,-100177,24027.34375,896,128
-8388608,-605.0000721,-208163,-15.01305461,13968,1.007394911,128,-7.316594996,-101448,24046.875,1536,128
-8388608,-605.0000721,-208558,-15.04154265,14028,1.011722208,128,-7.340323012,-101777,24066.40625,2176,128
-8388608,-605.0000721,-209162,-15.08510412,13953,1.006313086,128,-7.345732134,-101852,24085.9375,2816,128
-8388608,-605.0000721,-208831,-15.06123186,14197,1.023910764,128,-7.352583689,-101947,24105.46875,3456,128
-8388608,-605.0000721,-208581,-15.04320145,14558,1.049946672,128,-7.339673917,-101768,24125,4096,128
-8388608,-605.0000721,-208469,-15.03512383,14031,1.011938573,128,-7.34645335,-101862,24144.53125,4736,128
-8388608,-605.0000721,-208325,-15.02473831,14338,1.034079913,128,-7.329721132,-101630,24164.0625,5376,128
-8388608,-605.0000721,-208211,-15.01651645,14551,1.04944182,128,-7.328639308,-101615,24183.59375,6016,128
-8388608,-605.0000721,-208468,-15.03505171,14374,1.036676292,128,-7.334697525,-101699,24203.125,6656,128
-8388608,-605.0000721,-208092,-15.00793398,14421,1.040066009,128,-7.335707228,-101713,24222.65625,7296,128
-8388608,-605.0000721,-208239,-15.01853585,14106,1.017347696,128,-7.325321713,-101569,24242.1875,7936,128
-8388608,-605.0000721,-207848,-14.9903363,14444,1.041724806,128,-7.319047131,-101482,24261.71875,8576,128
-8388608,-605.0000721,-208042,-15.00432789,14121,1.01842952,128,-7.347463053,-101876,24281.25,9216,128
-8388608,-605.0000721,-208457,-15.03425837,13735,0.990590571,128,-7.33671693,-101727,24300.78125,9856,128
-8388608,-605.0000721,-208297,-15.02271891,14226,1.026002291,128,-7.361959501,-102077,24320.3125,10496,128
-8388608,-605.0000721,-207914,-14.99509633,14079,1.015400412,128,-7.357415838,-102014,24339.84375,11136,128
-8388608,-605.0000721,-207958,-14.99826968,14097,1.016698601,128,-7.351862473,-101937,24359.375,11776,128
-8388608,-605.0000721,-208120,-15.00995338,14146,1.020232561,128,-7.340611498,-101781,24378.90625,12416,128
-8388608,-605.0000721,-208498,-15.03721536,14319,1.032709602,128,-7.385326908,-102401,24398.4375,13056,128
-8388608,-605.0000721,-208477,-15.0357008,14326,1.033214454,128,-7.378186867,-102302,24417.96875,13696,128
-8388608,-605.0000721,-208448,-15.03360928,14305,1.0316999,128,-7.377826259,-102297,24437.5,14336,128
-8388608,-605.0000721,-208473,-15.03541232,14022,1.011289479,128,-7.380062029,-102328,24457.03125,14976,128
-8388608,-605.0000721,-208451,-15.03382564,14203,1.024343494,128,-7.358497662,-102029,24476.5625,15616,128
-8388608,-605.0000721,-208544,-15.04053295,13907,1.002995491,128,-7.377970502,-102299,24496.09375,16256,128
-8388608,-605.0000721,-208507,-15.03786445,14210,1.024848345,128,-7.399679112,-102600,24515.625,16896,128
-8388608,-605.0000721,-208313,-15.02387286,14059,1.013957979,128,-7.3796293,-102322,24535.15625,17536,128
-8388608,-605.0000721,-208294,-15.02250254,13981,1.008332492,128,-7.38893299,-102451,24554.6875,18176,128
-8388608,-605.0000721,-208299,-15.02286315,14161,1.021314385,128,-7.3822978,-102359,24574.21875,18816,128
-8388608,-605.0000721,-208264,-15.0203389,13874,1.000615478,128,-7.40133791,-102623,24593.75,19456,128
-8388608,-605.0000721,-208542,-15.04038871,13841,0.998235464,128,-7.384749935,-102393,24613.28125,20096,128
-8388608,-605.0000721,-207892,-14.99350965,14366,1.036099319,128,-7.337293904,-101735,24632.8125,20736,128
-8388608,-605.0000721,-207235,-14.94612574,14666,1.057735808,128,-7.330442349,-101640,24652.34375,21376,128
-8388608,-605.0000721,-207203,-14.94381785,14127,1.01886225,128,-7.325033227,-101565,24671.875,22016,128
-8388608,-605.0000721,-207099,-14.9363172,14364,1.035955076,128,-7.348184269,-101886,24691.40625,22656,128
-8388608,-605.0000721,-207960,-14.99841392,13862,0.999750018,128,-7.36282496,-102089,24710.9375,23296,128
-8388608,-605.0000721,-208216,-15.01687706,14304,1.031627778,128,-7.372705623,-102226,24730.46875,23936,128
-8388608,-605.0000721,-206028,-14.85907493,14768,1.065092214,128,-7.279452357,-100933,24750,24576,128
-8388608,-605.0000721,-204523,-14.75053188,13954,1.006385208,128,-6.43115776,-89171,24769.53125,25216,128
-8388608,-605.0000721,-208387,-15.02920986,13310,0.959938879,128,-7.030127887,-97476,24789.0625,25856,128
-8388608,-605.0000721,-207924,-14.99581754,14068,1.014607074,128,-7.334192673,-101692,24808.59375,26496,128
-8388608,-605.0000721,-208202,-15.01586735,13954,1.006385208,128,-7.309815563,-101354,24828.125,27136,128
-8388608,-605.0000721,-207570,-14.97028648,14408,1.039128427,128,-7.308950103,-101342,24847.65625,27776,128
-8388608,-605.0000721,-207804,-14.98716295,14331,1.033575062,128,-7.32431201,-101555,24867.1875,28416,128
-8388608,-605.0000721,-207671,-14.97757077,13926,1.004365802,128,-7.296184575,-101165,24886.71875,29056,128
-8388608,-605.0000721,-207670,-14.97749865,13916,1.003644586,128,-7.272095951,-100831,24906.25,29696,128
-8388608,-605.0000721,-207030,-14.93134081,14366,1.036099319,128,-7.251829773,-100550,24925.78125,30336,128
-8388608,-605.0000721,-206589,-14.89953517,14560,1.050090915,128,-7.218509581,-100088,24945.3125,30976,128
-8388608,-605.0000721,-206321,-14.88020657,14517,1.046989685,128,-7.185622118,-99632,24964.84375,31616,128
-8388608,-605.0000721,-206150,-14.86787377,14354,1.035233859,128,-7.121794477,-98747,24984.375,32256,128
-8388608,-605.0000721,-205038,-14.78767452,14758,1.064370997,128,-7.039503698,-97606,25003.90625,32896,128
-8388608,-605.0000721,-205096,-14.79185758,14109,1.01756406,128,-7.044335847,-97673,25023.4375,33536,128
-8388608,-605.0000721,-205408,-14.81435952,14076,1.015184047,128,-7.049817091,-97749,25042.96875,34176,128
-8388608,-605.0000721,-206242,-14.87450896,13919,1.003860951,128,-7.128646031,-98842,25062.5,34816,128
-8388608,-605.0000721,-207159,-14.9406445,13931,1.00472641,128,-7.238198786,-100361,25082.03125,35456,128
-8388608,-605.0000721,-208273,-15.02098799,13676,0.986335395,128,-7.288323318,-101056,25101.5625,36096,128
-8388608,-605.0000721,-207895,-14.99372601,14224,1.025858048,128,-7.285294209,-101014,25121.09375,36736,128
-8388608,-605.0000721,-208202,-15.01586735,14059,1.013957979,128,-7.292650615,-101116,25140.625,37376,128
-8388608,-605.0000721,-208161,-15.01291037,14053,1.013525249,128,-7.28399602,-100996,25160.15625,38016,128
-8388608,-605.0000721,-208766,-15.05654395,13695,0.987705706,128,-7.262143166,-100693,25179.6875,38656,128
-8388608,-605.0000721,-208354,-15.02682984,13771,0.99318695,128,-7.282048736,-100969,25199.21875,39296,128
-8388608,-605.0000721,-208289,-15.02214194,14078,1.01532829,128,-7.261782558,-100688,25218.75,39936,128
-8388608,-605.0000721,-207807,-14.98737931,14454,1.042446022,128,-7.222332027,-100141,25238.28125,40576,128
-8388608,-605.0000721,-208048,-15.00476062,14508,1.04634059,128,-7.236467866,-100337,25257.8125,41216,128
-8388608,-605.0000721,-208227,-15.0176704,14196,1.023838642,128,-7.214326526,-100030,25277.34375,41856,128
-8388608,-605.0000721,-208434,-15.03259957,14280,1.029896859,128,-7.232501177,-100282,25296.875,42496,128
-8388608,-605.0000721,-208430,-15.03231109,14067,1.014534952,128,-7.241876989,-100412,25316.40625,43136,128
-8388608,-605.0000721,-207964,-14.99870241,14362,1.035810832,128,-7.219158676,-100097,25335.9375,43776,128
-8388608,-605.0000721,-208514,-15.0383693,14119,1.018285277,128,-7.241876989,-100412,25355.46875,44416,128
-8388608,-605.0000721,-208587,-15.04363418,14336,1.03393567,128,-7.230481771,-100254,25375,45056,128
-8388608,-605.0000721,-208691,-15.05113483,14025,1.011505844,128,-7.237838177,-100356,25394.53125,45696,128
-8388608,-605.0000721,-208206,-15.01615584,14300,1.031339291,128,-7.227813271,-100217,25414.0625,46336,128
-8388608,-605.0000721,-208532,-15.03966749,14181,1.022756818,128,-7.244906097,-100454,25433.59375,46976,128
-8388608,-605.0000721,-208610,-15.04529298,13932,1.004798532,128,-7.217788365,-100078,25453.125,47616,128
-8388608,-605.0000721,-208501,-15.03743172,14354,1.035233859,128,-7.231419352,-100267,25472.65625,48256,128
-8388608,-605.0000721,-208643,-15.04767299,14045,1.012948276,128,-7.208701039,-99952,25492.1875,48896,128
-8388608,-605.0000721,-208721,-15.05329848,14066,1.01446283,128,-7.216634419,-100062,25511.71875,49536,128
-8388608,-605.0000721,-209052,-15.07717074,13998,1.00955856,128,-7.219447162,-100101,25531.25,50176,128
-8388608,-605.0000721,-208297,-15.02271891,14179,1.022612574,128,-7.189877294,-99691,25550.78125,50816,128
-8388608,-605.0000721,-208394,-15.02971471,14366,1.036099319,128,-7.188651227,-99674,25570.3125,51456,128
-8388608,-605.0000721,-208188,-15.01485765,14342,1.0343684,128,-7.152013439,-99166,25589.84375,52096,128
-8388608,-605.0000721,-208061,-15.0056982,14324,1.033070211,128,-7.161461373,-99297,25609.375,52736,128
-8388608,-605.0000721,-207711,-14.98045563,14434,1.04100359,128,-7.149994034,-99138,25628.90625,53376,128
-8388608,-605.0000721,-208057,-15.00540972,14366,1.036099319,128,-7.182304523,-99586,25648.4375,54016,128
-8388608,-605.0000721,-208988,-15.07255495,13964,1.007106424,128,-7.211008932,-99984,25667.96875,54656,128
-8388608,-605.0000721,-208654,-15.04846633,14321,1.032853846,128,-7.202859187,-99871,25687.5,55296,128
-8388608,-605.0000721,-206171,-14.86938833,16001,1.154018182,128,-7.010510804,-97204,25707.03125,55936,128
-8388608,-605.0000721,-206116,-14.86542164,13668,0.985758422,128,-6.280423555,-87081,25726.5625,56576,128
-8388608,-605.0000721,-208218,-15.0170213,14224,1.025858048,128,-7.091791879,-98331,25746.09375,57216,128
-8388608,-605.0000721,-208803,-15.05921245,14013,1.010640384,128,-7.191391848,-99712,25765.625,57856,128
-8388608,-605.0000721,-208985,-15.07233859,13984,1.008548857,128,-7.202859187,-99871,25785.15625,58496,128
-8388608,-605.0000721,-209077,-15.07897378,14447,1.041941171,128,-7.190093659,-99694,25804.6875,59136,128
-8388608,-605.0000721,-208704,-15.05207241,14809,1.068049201,128,-7.175236604,-99488,25824.21875,59776,128
-8388608,-605.0000721,-208201,-15.01579523,14705,1.060548551,128,-7.159730453,-99273,25843.75,60416,128
-8388608,-605.0000721,-208656,-15.04861057,14210,1.024848345,128,-7.146460074,-99089,25863.28125,61056,128
-8388608,-605.0000721,-208490,-15.03663838,14148,1.020376804,128,-7.127996937,-98833,25882.8125,61696,128
-8388608,-605.0000721,-207917,-14.99531269,14596,1.052687294,128,-7.089195501,-98295,25902.34375,62336,128
-8388608,-605.0000721,-207191,-14.94295239,14501,1.045835739,128,-7.028541211,-97454,25921.875,62976,128
-8388608,-605.0000721,-206785,-14.91367101,14555,1.049730307,128,-6.976830003,-96737,25941.40625,63616,128
-8388608,-605.0000721,-206108,-14.86484466,14496,1.045475131,128,-6.903915036,-95726,25960.9375,64256,128
-8388608,-605.0000721,-206285,-14.87761019,14171,1.022035601,128,-6.907376874,-95774,25980.46875,64896,128
-8388608,-605.0000721,-207157,-14.94050025,13833,0.997658491,128,-6.958078379,-96477,26000,0,128
-8388608,-605.0000721,-207708,-14.98023927,13699,0.987994193,128,-7.018660548,-97317,26019.53125,640,128
-8388608,-605.0000721,-208894,-15.06577552,13831,0.997514248,128,-7.13167514,-98884,26039.0625,1280,128
-8388608,-605.0000721,-209527,-15.11142851,13897,1.002274275,128,-7.153672237,-99189,26058.59375,1920,128
-8388608,-605.0000721,-209609,-15.11734249,14198,1.023982885,128,-7.164057751,-99333,26078.125,2560,128
-8388608,-605.0000721,-209720,-15.12534799,14301,1.031411413,128,-7.159946818,-99276,26097.65625,3200,128
-8388608,-605.0000721,-209891,-15.13768079,14261,1.028526548,128,-7.15028252,-99142,26117.1875,3840,128
-8388608,-605.0000721,-210180,-15.15852394,14265,1.028815034,128,-7.174875996,-99483,26136.71875,4480,128
-8388608,-605.0000721,-209752,-15.12765588,14523,1.047422415,128,-7.142277019,-99031,26156.25,5120,128
-8388608,-605.0000721,-209758,-15.12808861,14082,1.015616776,128,-7.132901208,-98901,26175.78125,5760,128
-8388608,-605.0000721,-209425,-15.10407211,14703,1.060404308,128,-7.120856896,-98734,26195.3125,6400,128
-8388608,-605.0000721,-209712,-15.12477101,14432,1.040859346,128,-7.099869502,-98443,26214.84375,7040,128
-8388608,-605.0000721,-209714,-15.12491526,14103,1.017131331,128,-7.116241111,-98670,26234.375,7680,128
-8388608,-605.0000721,-209987,-15.14460446,13915,1.003572464,128,-7.13477637,-98927,26253.90625,8320,128
-8388608,-605.0000721,-209739,-15.1267183,14186,1.023117426,128,-7.120712652,-98732,26273.4375,8960,128
-8388608,-605.0000721,-210279,-15.16566398,14111,1.017708304,128,-7.154826183,-99205,26292.96875,9600,128
-8388608,-605.0000721,-209949,-15.14186384,14324,1.033070211,128,-7.141988533,-99027,26312.5,10240,128
-8388608,-605.0000721,-209759,-15.12816073,14557,1.04987455,128,-7.143430965,-99047,26332.03125,10880,128
-8388608,-605.0000721,-210612,-15.18968048,13788,0.994413018,128,-7.163625021,-99327,26351.5625,11520,128
-8388608,-605.0000721,-209902,-15.13847412,14499,1.045691496,128,-7.15424921,-99197,26371.09375,12160,128
-8388608,-605.0000721,-210466,-15.17915072,13981,1.008332492,128,-7.161605616,-99299,26390.625,12800,128
-8388608,-605.0000721,-210060,-15.14986934,14404,1.038839941,128,-7.157783169,-99246,26410.15625,13440,128
-8388608,-605.0000721,-209891,-15.13768079,14414,1.039561157,128,-7.147397655,-99102,26429.6875,14080,128
-8388608,-605.0000721,-210621,-15.19032957,14360,1.035666589,128,-7.164995332,-99346,26449.21875,14720,128
-8388608,-605.0000721,-210396,-15.17410221,14350,1.034945373,128,-7.16578867,-99357,26468.75,15360,128
-8388608,-605.0000721,-210591,-15.18816593,14173,1.022179845,128,-7.189877294,-99691,26488.28125,16000,128
-8388608,-605.0000721,-210907,-15.21095636,14223,1.025785926,128,-7.185117267,-99625,26507.8125,16640,128
-8388608,-605.0000721,-210595,-15.18845441,14376,1.036820535,128,-7.175020239,-99485,26527.34375,17280,128
-8388608,-605.0000721,-211244,-15.23526135,14051,1.013381006,128,-7.211946513,-99997,26546.875,17920,128
-8388608,-605.0000721,-210887,-15.20951393,14404,1.038839941,128,-7.201416755,-99851,26566.40625,18560,128
-8388608,-605.0000721,-210699,-15.19595506,14414,1.039561157,128,-7.165428062,-99352,26585.9375,19200,128
-8388608,-605.0000721,-210894,-15.21001878,14203,1.024343494,128,-7.164274116,-99336,26605.46875,19840,128
-8388608,-605.0000721,-210059,-15.14979722,14108,1.017491939,128,-7.151724953,-99162,26625,20480,128
-8388608,-605.0000721,-210450,-15.17799678,14341,1.034296278,128,-7.198027038,-99804,26644.53125,21120,128
-8388608,-605.0000721,-209979,-15.14402749,14599,1.052903658,128,-7.183963321,-99609,26664.0625,21760,128
-8388608,-605.0000721,-211279,-15.23778561,14005,1.010063411,128,-7.22911146,-100235,26683.59375,22400,128
-8388608,-605.0000721,-210826,-15.20511451,14404,1.038839941,128,-7.288539682,-101059,26703.125,23040,128
-8388608,-605.0000721,-205687,-14.83448146,16926,1.220730689,128,-6.47457498,-89773,26722.65625,23680,128
-8388608,-605.0000721,-211009,-15.21831277,12288,0.886230574,128,-6.727361289,-93278,26742.1875,24320,128
-8388608,-605.0000721,-209334,-15.09750904,13816,0.996432423,128,-7.073040256,-98071,26761.71875,24960,128
-8388608,-605.0000721,-210745,-15.19927266,14278,1.029752616,128,-7.198387646,-99809,26781.25,25600,128
-8388608,-605.0000721,-210732,-15.19833508,14235,1.026651386,128,-7.197882795,-99802,26800.78125,26240,128
-8388608,-605.0000721,-210327,-15.16912582,14784,1.06624616,128,-7.198892498,-99816,26820.3125,26880,128
-8388608,-605.0000721,-210436,-15.17698707,14460,1.042878752,128,-7.193843984,-99746,26839.84375,27520,128
-8388608,-605.0000721,-210011,-15.14633538,14643,1.05607701,128,-7.169611117,-99410,26859.375,28160,128
-8388608,-605.0000721,-209725,-15.1257086,14453,1.042373901,128,-7.17242386,-99449,26878.90625,28800,128
-8388608,-605.0000721,-209890,-15.13760866,14244,1.02730048,128,-7.153311628,-99184,26898.4375,29440,128
-8388608,-605.0000721,-208891,-15.06555916,14799,1.067327984,128,-7.098138582,-98419,26917.96875,30080,128
-8388608,-605.0000721,-208692,-15.05120695,14718,1.061486132,128,-7.060418971,-97896,26937.5,30720,128
-8388608,-605.0000721,-207576,-14.97071921,14864,1.07201589,128,-6.972430584,-96676,26957.03125,31360,128
-8388608,-605.0000721,-207740,-14.98254716,14425,1.040354495,128,-6.966660853,-96596,26976.5625,32000,128
-8388608,-605.0000721,-208089,-15.00771761,14203,1.024343494,128,-6.974666354,-96707,26996.09375,32640,128
-8388608,-605.0000721,-208592,-15.04399479,14016,1.010856749,128,-7.014116885,-97254,27015.625,33280,128
-8388608,-605.0000721,-209247,-15.09123446,14194,1.023694399,128,-7.140762465,-99010,27035.15625,33920,128
-8388608,-605.0000721,-209914,-15.13933958,14117,1.018141033,128,-7.1918967,-99719,27054.6875,34560,128
-8388608,-605.0000721,-210256,-15.16400518,14128,1.018934371,128,-7.210143472,-99972,27074.21875,35200,128
-8388608,-605.0000721,-210614,-15.18982472,14392,1.037974481,128,-7.233799366,-100300,27093.75,35840,128
-8388608,-605.0000721,-210349,-15.17071249,14546,1.049081212,128,-7.2432473,-100431,27113.28125,36480,128
-8388608,-605.0000721,-210230,-15.16213002,14536,1.048359996,128,-7.234592704,-100311,27132.8125,37120,128
-8388608,-605.0000721,-210217,-15.16119244,14541,1.048720604,128,-7.222981122,-100150,27152.34375,37760,128
-8388608,-605.0000721,-210502,-15.1817471,14334,1.033791427,128,-7.212162878,-100000,27171.875,38400,128
-8388608,-605.0000721,-210150,-15.15636029,14643,1.05607701,128,-7.209782864,-99967,27191.40625,39040,128
-8388608,-605.0000721,-210120,-15.15419664,14513,1.046701198,128,-7.191680335,-99716,27210.9375,39680,128
-8388608,-605.0000721,-209947,-15.1417196,14441,1.041508441,128,-7.172207495,-99446,27230.46875,40320,128
-8388608,-605.0000721,-209942,-15.14135899,13903,1.002707005,128,-7.190670632,-99702,27250,40960,128
-8388608,-605.0000721,-210162,-15.15722575,14483,1.04453755,128,-7.190310024,-99697,27269.53125,41600,128
-8388608,-605.0000721,-210423,-15.17604949,14106,1.017347696,128,-7.200695539,-99841,27289.0625,42240,128
-8388608,-605.0000721,-210331,-15.1694143,14369,1.036315684,128,-7.187064551,-99652,27308.59375,42880,128
-8388608,-605.0000721,-210391,-15.1737416,14401,1.038623576,128,-7.202210093,-99862,27328.125,43520,128
-8388608,-605.0000721,-210824,-15.20497027,13998,1.00955856,128,-7.213100459,-100013,27347.65625,44160,128
-8388608,-605.0000721,-210551,-15.18528106,14326,1.033214454,128,-7.193339132,-99739,27367.1875,44800,128
-8388608,-605.0000721,-210475,-15.17979982,14366,1.036099319,128,-7.205744053,-99911,27386.71875,45440,128
-8388608,-605.0000721,-210580,-15.18737259,14369,1.036315684,128,-7.202426458,-99865,27406.25,46080,128
-8388608,-605.0000721,-211059,-15.22191885,14334,1.033791427,128,-7.213100459,-100013,27425.78125,46720,128
-8388608,-605.0000721,-211226,-15.23396316,14114,1.017924669,128,-7.210431958,-99976,27445.3125,47360,128
-8388608,-605.0000721,-211431,-15.24874809,14120,1.018357398,128,-7.211874391,-99996,27464.84375,48000,128
-8388608,-605.0000721,-211032,-15.21997156,14318,1.032637481,128,-7.206537391,-99922,27484.375,48640,128
-8388608,-605.0000721,-210844,-15.2064127,14248,1.027588967,128,-7.17199113,-99443,27503.90625,49280,128
-8388608,-605.0000721,-211458,-15.25069538,14100,1.016914966,128,-7.204878593,-99899,27523.4375,49920,128
-8388608,-605.0000721,-211227,-15.23403528,14159,1.021170142,128,-7.201416755,-99851,27542.96875,50560,128
-8388608,-605.0000721,-211232,-15.23439589,13877,1.000831843,128,-7.211585905,-99992,27562.5,51200,128
-8388608,-605.0000721,-211108,-15.22545281,14455,1.042518144,128,-7.185189388,-99626,27582.03125,51840,128
-8388608,-605.0000721,-210709,-15.19667628,14614,1.053985483,128,-7.127636329,-98828,27601.5625,52480,128
-8388608,-605.0000721,-210362,-15.17165007,14692,1.05961097,128,-7.155042548,-99208,27621.09375,53120,128
-8388608,-605.0000721,-210571,-15.18672349,14381,1.037181143,128,-7.164057751,-99333,27640.625,53760,128
-8388608,-605.0000721,-210812,-15.20410481,14388,1.037685995,128,-7.171197792,-99432,27660.15625,54400,128
-8388608,-605.0000721,-211680,-15.26670638,13839,0.998091221,128,-7.212811972,-100009,27679.6875,55040,128
-8388608,-605.0000721,-211689,-15.26735547,14709,1.060837038,128,-7.233727245,-100299,27699.21875,55680,128
-8388608,-605.0000721,-208394,-15.02971471,15707,1.132814423,128,-6.945961946,-96309,27718.75,56320,128
-8388608,-605.0000721,-209435,-15.10479332,12376,0.892577278,128,-6.319297113,-87620,27738.28125,56960,128
-8388608,-605.0000721,-211105,-15.22523644,13909,1.003139735,128,-7.107153786,-98544,27757.8125,57600,128
-8388608,-605.0000721,-210774,-15.20136418,14380,1.037109022,128,-7.152662534,-99175,27777.34375,58240,128
-8388608,-605.0000721,-211224,-15.23381892,13936,1.005087019,128,-7.196368241,-99781,27796.875,58880,128
-8388608,-605.0000721,-211090,-15.22415462,14173,1.022179845,128,-7.192473673,-99727,27816.40625,59520,128
