Device,Device,Device,Device,Device,Device,Device,Device,Device,Device,Device,Device
ECG Vx-RL,ECG Vx-RL,ECG LA-RA,ECG LA-RA,ExG2 CH1,ExG2 CH1,EXG1 Status,ECG LL-RA,ECG LL-RA,Timestamp,Timestamp,EXG2 Status
CAL,RAW,RAW,CAL,RAW,CAL,RAW,RAW,CAL,CAL,RAW,RAW
mV,No Units,No Units,mV,No Units,mV,No Units,No Units,mV,mSecs,No Units,No Units
-10.62726624,-147352,-145414,-10.48749453,960,0.069236764,128,-276398,-19.93427395,6058.59375,1920,128
-9.4537031,-131080,-144776,-10.44148093,799,0.057625181,128,-274883,-19.82500968,6078.125,2560,128
-4.428917101,-61409,-193462,-13.95279455,4959,0.357651157,128,-273269,-19.70860537,6097.65625,3200,128
-4.50413996,-62452,-193242,-13.93692779,6032,0.435037665,128,-272541,-19.65610083,6117.1875,3840,128
-4.440456562,-61569,-192634,-13.89307784,8191,0.590748261,128,-271747,-19.59883625,6136.71875,4480,128
-4.281428371,-59364,-192334,-13.87144135,8188,0.590531896,128,-271539,-19.58383496,6156.25,5120,128
-4.711922373,-65333,-192255,-13.86574374,8175,0.589594315,128,-271198,-19.55924148,6175.78125,5760,128
-2.358737869,-32705,-192121,-13.85607944,8079,0.582670639,128,-271042,-19.54799051,6195.3125,6400,128
-2.035560851,-28224,-192005,-13.84771333,8191,0.590748261,128,-271161,-19.55657298,6214.84375,7040,128
-1.908410419,-26461,-191839,-13.83574114,8176,0.589666437,128,-270941,-19.54070622,6234.375,7680,128
-2.307964242,-32001,-191771,-13.83083687,8191,0.590748261,128,-270782,-19.52923888,6253.90625,8320,128
-2.331548015,-32328,-191772,-13.83090899,8188,0.590531896,128,-270724,-19.52505583,6273.4375,8960,128
-2.34727053,-32546,-191737,-13.82838474,8124,0.585916112,128,-270897,-19.53753287,6292.96875,9600,128
-2.290078079,-31753,-191769,-13.83069263,8176,0.589666437,128,-270859,-19.53479225,6312.5,10240,128
-2.358737869,-32705,-191760,-13.83004353,8158,0.588368248,128,-270619,-19.51748306,6332.03125,10880,128
-2.294189011,-31810,-191694,-13.82528351,8188,0.590531896,128,-270729,-19.52541644,6351.5625,11520,128
-2.291520511,-31773,-191647,-13.82189379,7949,0.573294827,128,-270692,-19.52274794,6371.09375,12160,128
-2.356357855,-32672,-191764,-13.83033202,8191,0.590748261,128,-270933,-19.54012925,6390.625,12800,128
-2.291736876,-31776,-191710,-13.82643745,7945,0.573006341,128,-270871,-19.53565771,6410.15625,13440,128
-2.293539917,-31801,-191612,-13.81936953,8078,0.582598517,128,-270627,-19.51806003,6429.6875,14080,128
-2.363281532,-32768,-191282,-13.7955694,12559,0.905775536,128,-269868,-19.46331971,6449.21875,14720,128
-2.215648558,-30721,-191009,-13.77588019,13311,0.960011001,128,-269002,-19.40086238,6468.75,15360,128
-2.354626936,-32648,-190982,-13.77393291,14332,1.033647184,128,-268973,-19.39877086,6488.28125,16000,128
-2.273417982,-31522,-191245,-13.7929009,12687,0.915007104,128,-270168,-19.4849562,6507.8125,16640,128
-1.77253327,-24577,-191500,-13.81129191,8059,0.581228206,128,-270382,-19.50039023,6527.34375,17280,128
-1.790996407,-24833,-191669,-13.82348047,8095,0.583824585,128,-270696,-19.52303642,6546.875,17920,128
-1.790347313,-24824,-192646,-13.8939433,8073,0.582237909,128,-271490,-19.580301,6566.40625,18560,128
-1.466737564,-20337,-186166,-13.42659514,127,0.009159447,128,-253314,-18.26941827,6585.9375,19200,128
-1.472507295,-20417,-191227,-13.79160271,1855,0.133785621,128,-264264,-19.05915011,6605.46875,19840,128
-2.356862707,-32679,-192173,-13.85982977,14534,1.048215753,128,-270114,-19.48106164,6625,20480,128
-2.280269537,-31617,-191396,-13.80379126,14351,1.035017495,128,-270112,-19.48091739,6644.53125,21120,128
-1.843068223,-25555,-191129,-13.78453479,14447,1.041941171,128,-269909,-19.4662767,6664.0625,21760,128
-1.786380623,-24769,-190804,-13.76109526,14366,1.036099319,128,-269379,-19.42805224,6683.59375,22400,128
-2.359242721,-32712,-191074,-13.7805681,13053,0.94140362,128,-269507,-19.43728381,6703.125,23040,128
-1.773615095,-24592,-190654,-13.75027701,14239,1.026939872,128,-268771,-19.38420229,6722.65625,23680,128
-1.773615095,-24592,-190366,-13.72950598,15874,1.144858735,128,-268391,-19.35679607,6742.1875,24320,128
-1.772893879,-24582,-190066,-13.70786949,16236,1.170966765,128,-267892,-19.32080738,6761.71875,24960,128
-2.359026356,-32709,-189554,-13.67094322,14460,1.042878752,128,-266924,-19.25099364,6781.25,25600,128
-2.344746273,-32511,-189171,-13.64332064,14588,1.052110321,128,-265804,-19.17021742,6800.78125,26240,128
-2.086334477,-28928,-188729,-13.61144288,14279,1.029824737,128,-264192,-19.05395735,6820.3125,26880,128
-1.769071432,-24529,-188519,-13.59629734,16382,1.181496523,128,-263724,-19.02020443,6839.84375,27520,128
-2.098378789,-29095,-189141,-13.64115699,14335,1.033863549,128,-265514,-19.14930214,6859.375,28160,128
-2.344241422,-32504,-189827,-13.69063243,15935,1.149258155,128,-267644,-19.30292121,6878.90625,28800,128
-1.77339873,-24589,-190404,-13.73224661,14302,1.031483535,128,-269161,-19.41232972,6898.4375,29440,128
-1.846169453,-25598,-190614,-13.74739215,13296,0.958929176,128,-269658,-19.44817417,6917.96875,30080,128
-1.777004811,-24639,-190497,-13.73895392,14336,1.03393567,128,-269499,-19.43670683,6937.5,30720,128
-1.774841163,-24609,-190794,-13.76037404,13287,0.958280082,128,-269731,-19.45343905,6957.03125,31360,128
-2.349434179,-32576,-190512,-13.74003574,14584,1.051821834,128,-269439,-19.43237954,6976.5625,32000,128
-2.344962638,-32514,-190531,-13.74140605,14389,1.037758116,128,-269443,-19.43266802,6996.09375,32640,128
-1.777076933,-24640,-190650,-13.74998853,14367,1.036171441,128,-269653,-19.44781356,7015.625,33280,128
-2.353833598,-32637,-190314,-13.72575566,15385,1.109591259,128,-269191,-19.41449337,7035.15625,33920,128
-1.780610893,-24689,-190554,-13.74306485,14847,1.070789822,128,-269404,-19.42985528,7054.6875,34560,128
-1.788616394,-24800,-190719,-13.75496492,14364,1.035955076,128,-269720,-19.45264571,7074.21875,35200,128
-1.781187866,-24697,-190267,-13.72236594,14689,1.059394605,128,-269264,-19.41975825,7093.75,35840,128
-2.216369774,-30731,-190555,-13.74313697,14528,1.047783023,128,-269424,-19.43129771,7113.28125,36480,128
-1.779529068,-24674,-190484,-13.73801634,14366,1.036099319,128,-269364,-19.42697041,7132.8125,37120,128
-1.808233477,-25072,-190417,-13.73318419,14435,1.041075711,128,-269343,-19.42545586,7152.34375,37760,128
-2.355348153,-32658,-190443,-13.73505935,14528,1.047783023,128,-269332,-19.42466252,7171.875,38400,128
-2.330033461,-32307,-190056,-13.70714828,14784,1.06624616,128,-268777,-19.38463502,7191.40625,39040,128
-2.330971042,-32320,-190332,-13.72705385,14339,1.034152035,128,-269159,-19.41218548,7210.9375,39680,128
-2.354626936,-32648,-190179,-13.71601924,15362,1.107932461,128,-268967,-19.39833813,7230.46875,40320,128
-2.363137288,-32766,-190350,-13.72835204,15600,1.125097409,128,-269104,-19.40821879,7250,40960,128
-1.845520359,-25589,-190215,-13.71861562,14527,1.047710901,128,-269031,-19.40295391,7269.53125,41600,128
-2.179227135,-30216,-190087,-13.70938405,15552,1.121635571,128,-268907,-19.39401083,7289.0625,42240,128
-2.304213918,-31949,-189901,-13.69596943,16039,1.156758804,128,-268639,-19.37468223,7308.59375,42880,128
-2.362848802,-32762,-189677,-13.67981418,14336,1.03393567,128,-267821,-19.31568674,7328.125,43520,128
-2.215504314,-30719,-189354,-13.6565189,15424,1.112404002,128,-267488,-19.29167024,7347.65625,44160,128
-2.279115591,-31601,-189468,-13.66474076,14396,1.038262968,128,-268165,-19.34049658,7367.1875,44800,128
-2.29902116,-31877,-189853,-13.69250759,14304,1.031627778,128,-268669,-19.37684588,7386.71875,45440,128
-2.362127586,-32752,-190167,-13.71515378,14307,1.031844143,128,-269097,-19.40771394,7406.25,46080,128
-2.289356862,-31743,-191107,-13.78294811,12536,0.904116738,128,-270087,-19.47911435,7425.78125,46720,128
-2.069025286,-28688,-185158,-13.35389654,29923,2.158095498,128,-255229,-18.40753119,7445.3125,47360,128
-1.185174726,-16433,-186958,-13.48371547,15943,1.149835128,128,-257160,-18.54679806,7464.84375,48000,128
-2.361334248,-32741,-190113,-13.71125921,15875,1.144930857,128,-268784,-19.38513987,7484.375,48640,128
-2.150883335,-29823,-190014,-13.70411917,15996,1.153657574,128,-268463,-19.36198883,7503.90625,49280,128
-2.344890516,-32513,-189677,-13.67981418,16305,1.175943157,128,-268180,-19.34157841,7523.4375,49920,128
-2.289501105,-31745,-189874,-13.69402214,14399,1.038479333,128,-268451,-19.36112337,7542.96875,50560,128
-2.251420885,-31217,-189254,-13.64930673,14823,1.069058903,128,-267801,-19.31424431,7562.5,51200,128
-2.288924132,-31737,-189307,-13.65312918,14342,1.0343684,128,-267624,-19.30147878,7582.03125,51840,128
-2.067943462,-28673,-188919,-13.62514599,15296,1.103172434,128,-267391,-19.28467444,7601.5625,52480,128
-2.216730382,-30736,-188613,-13.60307677,16259,1.172625562,128,-266594,-19.2271935,7621.09375,53120,128
-1.7702975,-24546,-188234,-13.57574267,14347,1.034729008,128,-265971,-19.18226173,7640.625,53760,128
-1.735679118,-24066,-187819,-13.5458122,16128,1.163177629,128,-264396,-19.06867016,7660.15625,54400,128
-1.689449154,-23425,-187370,-13.51342958,14850,1.071006187,128,-263222,-18.98399937,7679.6875,55040,128
-1.232198028,-17085,-187050,-13.49035066,16119,1.162528534,128,-262427,-18.92666267,7699.21875,55680,128
-1.641560393,-22761,-187493,-13.52230054,15649,1.128631369,128,-263950,-19.03650392,7718.75,56320,128
-1.754070133,-24321,-188192,-13.57271356,14462,1.043022995,128,-265986,-19.18334355,7738.28125,56960,128
-2.088137518,-28953,-188875,-13.62197264,14432,1.040859346,128,-268218,-19.34431903,7757.8125,57600,128
-2.068015584,-28674,-189034,-13.63343997,16375,1.180991671,128,-268637,-19.37453799,7777.34375,58240,128
-2.250771791,-31208,-189307,-13.65312918,16351,1.179260752,128,-268838,-19.38903444,7796.875,58880,128
-2.22019222,-30784,-188898,-13.62363143,16278,1.173995873,128,-268544,-19.36783068,7816.40625,59520,128
-2.076598057,-28793,-188822,-13.61815019,16096,1.160869737,128,-268324,-19.35196392,7835.9375,60160,128
-2.22019222,-30784,-188857,-13.62067445,16179,1.166855832,128,-268574,-19.36999433,7855.46875,60800,128
-2.084098707,-28897,-188843,-13.61966474,16200,1.168370386,128,-268454,-19.36133973,7875,61440,128
-2.220480707,-30788,-188762,-13.61382289,15872,1.144714492,128,-268497,-19.36444096,7894.53125,62080,128
-2.216730382,-30736,-188941,-13.62673266,16134,1.163610359,128,-268506,-19.36509006,7914.0625,62720,128
-2.245506912,-31135,-188900,-13.62377568,15943,1.149835128,128,-268545,-19.3679028,7933.59375,63360,128
-2.271903428,-31501,-188853,-13.62038596,16255,1.172337076,128,-268647,-19.37525921,7953.125,64000,128
-2.228341964,-30897,-188709,-13.61000044,16259,1.172625562,128,-268547,-19.36804704,7972.65625,64640,128
-2.216802504,-30737,-189007,-13.63149269,16294,1.175149819,128,-268816,-19.38744776,7992.1875,65280,128
-2.127876535,-29504,-189034,-13.63343997,16320,1.177024982,128,-268992,-19.40014117,8011.71875,384,128
-2.270460995,-31481,-189027,-13.63293512,16320,1.177024982,128,-268824,-19.38802473,8031.25,1024,128
-2.0714053,-28721,-189029,-13.63307937,16352,1.179332874,128,-268896,-19.39321749,8050.78125,1664,128
-2.289428984,-31744,-189047,-13.63437756,16256,1.172409197,128,-268942,-19.39653509,8070.3125,2304,128
-2.102561844,-29153,-188837,-13.61923201,15935,1.149258155,128,-268637,-19.37453799,8089.84375,2944,128
-2.137108104,-29632,-188734,-13.61180349,16354,1.179477117,128,-268473,-19.36271004,8109.375,3584,128
-2.113740696,-29308,-188863,-13.62110718,15881,1.145363587,128,-268619,-19.3732398,8128.90625,4224,128
-2.140714185,-29682,-188975,-13.6291848,16320,1.177024982,128,-268783,-19.38506775,8148.4375,4864,128
-2.25250271,-31232,-188937,-13.62644418,15918,1.148032087,128,-268572,-19.36985008,8167.96875,5504,128
-2.105374587,-29192,-188965,-13.62846358,16124,1.162889142,128,-268579,-19.37035493,8187.5,6144,128
-2.215864923,-30724,-188650,-13.60574527,14398,1.038407211,128,-268381,-19.35607485,8207.03125,6784,128
-1.762364121,-24436,-188276,-13.57877178,16380,1.181352279,128,-267144,-19.2668604,8226.5625,7424,128
-1.771956297,-24569,-188150,-13.56968445,16153,1.16498067,128,-267011,-19.25726822,8246.09375,8064,128
-1.440773778,-19977,-188156,-13.57011718,15345,1.106706394,128,-267760,-19.31128732,8265.625,8704,128
-2.321811595,-32193,-188916,-13.62492962,14363,1.035882954,128,-268397,-19.3572288,8285.15625,9344,128
-2.076237449,-28788,-188693,-13.6088465,16241,1.171327373,128,-268415,-19.35852699,8304.6875,9984,128
-2.324407974,-32229,-189861,-13.69308456,13307,0.959722514,128,-269557,-19.44088989,8324.21875,10624,128
-1.329129497,-18429,-183986,-13.26936999,30718,2.215432193,128,-254894,-18.38337045,8343.75,11264,128
-1.199022078,-16625,-185527,-13.38050942,4351,0.313801207,128,-256277,-18.48311466,8363.28125,11904,128
-1.912737717,-26521,-189179,-13.64389761,16263,1.172914049,128,-268231,-19.34525661,8382.8125,12544,128
-2.071477422,-28722,-188726,-13.61122651,14848,1.070861944,128,-267666,-19.30450789,8402.34375,13184,128
-2.072415003,-28735,-188661,-13.60653861,14453,1.042373901,128,-267798,-19.31402794,8421.875,13824,128
-2.084098707,-28897,-188516,-13.59608097,14904,1.074900755,128,-267687,-19.30602244,8441.40625,14464,128
-1.765393229,-24478,-188362,-13.58497424,15247,1.099638474,128,-267175,-19.26909617,8460.9375,15104,128
-1.736400334,-24076,-188213,-13.57422812,15840,1.1424066,128,-266967,-19.25409487,8480.46875,15744,128
-1.436662845,-19920,-187804,-13.54473037,16317,1.176808617,128,-266443,-19.21630314,8500,16384,128
-1.698680723,-23553,-187479,-13.52129084,14367,1.036171441,128,-265666,-19.16026463,8519.53125,17024,128
-1.366272136,-18944,-186834,-13.47477239,16256,1.172409197,128,-264957,-19.1091304,8539.0625,17664,128
-1.403270531,-19457,-186252,-13.4327976,14472,1.043744212,128,-263296,-18.98933637,8558.59375,18304,128
-1.181712887,-16385,-185713,-13.39392404,143,0.010313393,128,-262005,-18.89622735,8578.125,18944,128
-0.588007639,-8153,-185435,-13.37387423,767,0.055317289,128,-261204,-18.83845792,8597.65625,19584,128
-1.181785009,-16386,-186104,-13.4221236,252,0.01817465,128,-262790,-18.95284283,8617.1875,20224,128
-1.21856704,-16896,-186749,-13.46864205,16263,1.172914049,128,-264539,-19.07898355,8636.71875,20864,128
-1.440196805,-19969,-187455,-13.51955992,16380,1.181352279,128,-266669,-19.23260262,8656.25,21504,128
-1.476185498,-20468,-187636,-13.53261394,15935,1.149258155,128,-267089,-19.26289371,8675.78125,22144,128
-1.758036823,-24376,-187421,-13.51710779,15263,1.10079242,128,-266869,-19.24702695,8695.3125,22784,128
-1.45858782,-20224,-187584,-13.52886361,15887,1.145796316,128,-267173,-19.26895192,8714.84375,23424,128
-1.735534875,-24064,-187481,-13.52143508,15982,1.152647871,128,-267020,-19.25791732,8734.375,24064,128
-1.763301702,-24449,-187489,-13.52201206,15359,1.107716096,128,-267110,-19.26440826,8753.90625,24704,128
-1.754070133,-24321,-187657,-13.53412849,15885,1.145652073,128,-267251,-19.27457741,8773.4375,25344,128
-1.708128656,-23684,-187342,-13.51141018,16263,1.172914049,128,-266942,-19.25229183,8792.96875,25984,128
-1.771956297,-24569,-187522,-13.52439207,16143,1.164259453,128,-267000,-19.25647488,8812.5,26624,128
-1.702286804,-23603,-187510,-13.52352661,16155,1.165124913,128,-266956,-19.25330153,8832.03125,27264,128
-1.699546182,-23565,-187449,-13.51912719,15363,1.108004583,128,-267030,-19.25863853,8851.5625,27904,128
-1.698680723,-23553,-187228,-13.50318831,16382,1.181496523,128,-266852,-19.24580088,8871.09375,28544,128
-1.254916341,-17400,-187381,-13.51422292,16353,1.179404995,128,-267039,-19.25928763,8890.625,29184,128
-1.629011229,-22587,-187375,-13.51379019,16378,1.181208036,128,-266986,-19.25546518,8910.15625,29824,128
-1.763301702,-24449,-187574,-13.5281424,16319,1.17695286,128,-267262,-19.27537075,8929.6875,30464,128
-1.767773243,-24511,-187311,-13.50917441,16382,1.181496523,128,-266930,-19.25142637,8949.21875,31104,128
-1.470055159,-20383,-187163,-13.49850041,16383,1.181568644,128,-266547,-19.22380379,8968.75,31744,128
-1.361728473,-18881,-187142,-13.49698585,15873,1.144786614,128,-266619,-19.22899654,8988.28125,32384,128
-1.441134386,-19982,-187197,-13.50095254,16369,1.180558941,128,-266849,-19.24558452,9007.8125,33024,128
-1.468107875,-20356,-187188,-13.50030345,16159,1.165413399,128,-266722,-19.23642507,9027.34375,33664,128
-1.772461149,-24576,-186996,-13.48645609,16287,1.174644968,128,-266507,-19.22091892,9046.875,34304,128
-1.6595908,-23011,-186829,-13.47441178,14358,1.035522346,128,-266127,-19.1935127,9066.40625,34944,128
-1.344996255,-18649,-186524,-13.45241469,16327,1.177529833,128,-265402,-19.14122452,9085.9375,35584,128
-1.320186415,-18305,-186225,-13.43085032,16383,1.181568644,128,-264766,-19.09535516,9105.46875,36224,128
-1.540806477,-21364,-186180,-13.42760485,14944,1.07778562,128,-265530,-19.15045609,9125,36864,128
-1.190728091,-16510,-186636,-13.46049231,16271,1.173491022,128,-266242,-19.20180669,9144.53125,37504,128
-1.625621513,-22540,-186716,-13.46626204,15992,1.153369087,128,-266502,-19.22055831,9164.0625,38144,128
-1.444740468,-20032,-187962,-13.55612559,15472,1.11586584,128,-267495,-19.29217509,9183.59375,38784,128
-1.255565435,-17409,-183429,-13.22919824,2020,0.14568569,128,-256372,-18.48996621,9203.125,39424,128
-0.150012988,-2080,-185936,-13.41000717,15744,1.135482923,128,-259257,-18.69803711,9222.65625,40064,128
-1.255132706,-17403,-186962,-13.48400396,16293,1.175077698,128,-265609,-19.1561537,9242.1875,40704,128
-1.329129497,-18429,-186189,-13.42825394,15876,1.145002978,128,-265564,-19.15290822,9261.71875,41344,128
-1.18979051,-16497,-186393,-13.44296675,14847,1.070789822,128,-265713,-19.16365435,9281.25,41984,128
-1.479286728,-20511,-186163,-13.42637878,16255,1.172337076,128,-265363,-19.13841178,9300.78125,42624,128
-1.325090685,-18373,-185888,-13.40654533,15464,1.115288867,128,-264916,-19.10617341,9320.3125,43264,128
-1.284053479,-17804,-185612,-13.38663976,15999,1.153873939,128,-264596,-19.08309449,9339.84375,43904,128
-1.200176024,-16641,-185354,-13.36803238,16368,1.18048682,128,-263960,-19.03722513,9359.375,44544,128
-1.24734357,-17295,-185247,-13.36031537,14784,1.06624616,128,-263800,-19.02568567,9378.90625,45184,128
-1.187194131,-16461,-184926,-13.33716432,15375,1.108870042,128,-262993,-18.96748352,9398.4375,45824,128
-0.544734662,-7553,-184178,-13.28321734,240,0.017309191,128,-261262,-18.84264098,9417.96875,46464,128
-1.182145617,-16391,-183743,-13.25184444,3231,0.233024983,128,-259950,-18.7480174,9437.5,47104,128
-1.201257849,-16656,-183412,-13.22797218,3584,0.258483918,128,-259072,-18.68469461,9457.03125,47744,128
-1.21770158,-16884,-183764,-13.25335899,2048,0.147705096,128,-259898,-18.74426708,9476.5625,48384,128
-0.553966231,-7681,-185114,-13.35072319,16121,1.162672777,128,-263143,-18.97830176,9496.09375,49024,128
-1.184092901,-16418,-185386,-13.37034027,16259,1.172625562,128,-264313,-19.06268407,9515.625,49664,128
-1.311171211,-18180,-185411,-13.37214331,15935,1.149258155,128,-264457,-19.07306958,9535.15625,50304,128
-1.287875925,-17857,-185527,-13.38050942,15999,1.153873939,128,-264940,-19.10790433,9554.6875,50944,128
-1.325884023,-18384,-185615,-13.38685613,16360,1.179909847,128,-264758,-19.09477819,9574.21875,51584,128
-1.190511726,-16507,-185471,-13.37647061,16133,1.163538237,128,-264699,-19.09052302,9593.75,52224,128
-1.209479715,-16770,-185730,-13.39515011,16377,1.181135914,128,-264903,-19.10523583,9613.28125,52864,128
-1.262489112,-17505,-185541,-13.38151912,16123,1.162817021,128,-264621,-19.08489753,9632.8125,53504,128
-1.309728779,-18160,-185582,-13.38447611,16328,1.177601955,128,-264758,-19.09477819,9652.34375,54144,128
-1.200031781,-16639,-185667,-13.39060645,16258,1.172553441,128,-264544,-19.07934416,9671.875,54784,128
-1.262344868,-17503,-185567,-13.38339429,15989,1.153152722,128,-264587,-19.08244539,9691.40625,55424,128
-1.201257849,-16656,-185677,-13.39132767,16377,1.181135914,128,-264757,-19.09470607,9710.9375,56064,128
-1.328264037,-18417,-185700,-13.39298646,15878,1.145147222,128,-264766,-19.09535516,9730.46875,56704,128
-1.195343875,-16574,-185530,-13.38072579,15907,1.147238749,128,-264666,-19.088143,9750,57344,128
-1.181712887,-16385,-185669,-13.39075069,16128,1.163177629,128,-264567,-19.08100296,9769.53125,57984,128
-1.312685765,-18201,-185433,-13.37372999,15936,1.149330276,128,-264629,-19.0854745,9789.0625,58624,128
-1.181929252,-16388,-185682,-13.39168827,16345,1.178828022,128,-264659,-19.08763815,9808.59375,59264,128
-1.181712887,-16385,-185474,-13.37668698,16144,1.164331575,128,-264432,-19.07126654,9828.125,59904,128
-1.256070287,-17416,-185487,-13.37762456,16095,1.160797615,128,-264546,-19.07948841,9847.65625,60544,128
-1.296530521,-17977,-185272,-13.36211841,16302,1.175726792,128,-264329,-19.06383801,9867.1875,61184,128
-1.253473908,-17380,-185287,-13.36320023,16264,1.17298617,128,-264296,-19.061458,9886.71875,61824,128
-1.264797004,-17537,-185354,-13.36803238,16142,1.164187332,128,-264322,-19.06333316,9906.25,62464,128
-1.186112307,-16446,-185022,-13.344088,14816,1.068554052,128,-263711,-19.01926685,9925.78125,63104,128
-1.181712887,-16385,-184713,-13.32180242,16370,1.180631063,128,-262727,-18.94829916,9945.3125,63744,128
-1.21856704,-16896,-184816,-13.32923094,14856,1.071438917,128,-263576,-19.00953043,9964.84375,64384,128
-1.182506225,-16396,-185096,-13.349425,14458,1.042734509,128,-264161,-19.05172158,9984.375,65024,128
-0.517472686,-7175,-185389,-13.37055664,16382,1.181496523,128,-264682,-19.08929695,10003.90625,128,128
-1.259820611,-17468,-185700,-13.39298646,15623,1.126756206,128,-264884,-19.10386552,10023.4375,768,128
-1.328191916,-18416,-183662,-13.24600258,16367,1.180414698,128,-259660,-18.72710213,10042.96875,1408,128
-1.105840934,-15333,-179174,-12.92232071,15391,1.110023988,128,-246762,-17.79687736,10062.5,2048,128
-0.366449996,-5081,-185670,-13.39082281,63,0.004543663,128,-263306,-18.99005759,10082.03125,2688,128
-1.214528229,-16840,-185224,-13.35865657,14362,1.035810832,128,-264102,-19.0474664,10101.5625,3328,128
-1.233568339,-17104,-184849,-13.33161096,14535,1.048287874,128,-264046,-19.04342759,10121.09375,3968,128
-1.200103903,-16640,-184832,-13.33038489,14843,1.070501336,128,-263869,-19.03066206,10140.625,4608,128
-1.190872334,-16512,-184671,-13.31877331,14791,1.066751011,128,-263731,-19.02070928,10160.15625,5248,128
-1.198084497,-16612,-184547,-13.30983023,15360,1.107788218,128,-262892,-18.96019923,10179.6875,5888,128
-1.191016578,-16514,-185268,-13.36182992,16263,1.172914049,128,-262994,-18.96755564,10199.21875,6528,128
-1.250589043,-17340,-184731,-13.32310061,16123,1.162817021,128,-262119,-18.90444921,10218.75,7168,128
-0.448524409,-6219,-184523,-13.30809931,387,0.02791107,128,-261737,-18.87689875,10238.28125,7808,128
-1.413079073,-19593,-183639,-13.24434379,0,0,128,-260188,-18.76518235,10257.8125,8448,128
-0.212470318,-2946,-183080,-13.2040278,3615,0.260719688,128,-258989,-18.67870852,10277.34375,9088,128
-0.223360684,-3097,-182706,-13.17705431,6336,0.45696264,128,-257959,-18.60442324,10296.875,9728,128
-0.165663381,-2297,-183017,-13.19948413,3127,0.225524333,128,-258651,-18.6543314,10316.40625,10368,128
-0.226173428,-3136,-183609,-13.24218014,7,5.05E-04,128,-260497,-18.78746793,10335.9375,11008,128
-0.517112078,-7170,-184766,-13.32562486,16123,1.162817021,128,-263180,-18.98097026,10355.46875,11648,128
-1.198733592,-16621,-184781,-13.32670669,14336,1.03393567,128,-263679,-19.01695895,10375,12288,128
-1.182217739,-16392,-184936,-13.33788554,14539,1.048576361,128,-263837,-19.02835417,10394.53125,12928,128
-1.24114111,-17209,-185185,-13.35584382,14390,1.037830238,128,-263946,-19.03621543,10414.0625,13568,128
-1.228664068,-17036,-184960,-13.33961646,14823,1.069058903,128,-263824,-19.02741659,10433.59375,14208,128
-1.228375581,-17032,-184976,-13.3407704,14720,1.061630376,128,-263779,-19.02417112,10453.125,14848,128
-1.238688974,-17175,-184887,-13.33435158,14338,1.034079913,128,-263646,-19.01457894,10472.65625,15488,128
-1.246333867,-17281,-184869,-13.33305339,14876,1.07288135,128,-263524,-19.0057801,10492.1875,16128,128
-0.571275422,-7921,-185059,-13.3467565,14720,1.061630376,128,-263928,-19.03491724,10511.71875,16768,128
-1.202051187,-16667,-184869,-13.33305339,15359,1.107716096,128,-263618,-19.01255953,10531.25,17408,128
-1.191449307,-16520,-184759,-13.32512001,14849,1.070934066,128,-263639,-19.01407409,10550.78125,18048,128
-0.549134081,-7614,-184936,-13.33788554,14855,1.071366795,128,-263656,-19.01530016,10570.3125,18688,128
-1.181785009,-16386,-184836,-13.33067338,14897,1.074395904,128,-263631,-19.01349712,10589.84375,19328,128
-1.181712887,-16385,-184889,-13.33449582,14585,1.051893956,128,-263755,-19.0224402,10609.375,19968,128
-0.590820383,-8192,-184824,-13.32980792,14352,1.035089616,128,-263918,-19.03419602,10628.90625,20608,128
-1.209407593,-16769,-184727,-13.32281212,14591,1.052326685,128,-263699,-19.01840139,10648.4375,21248,128
-1.199022078,-16625,-185058,-13.34668438,14401,1.038623576,128,-263999,-19.04003788,10667.96875,21888,128
-1.199743295,-16635,-184795,-13.32771639,14408,1.039128427,128,-263864,-19.03030146,10687.5,22528,128
-1.484335242,-20581,-184971,-13.3404098,14399,1.038479333,128,-263929,-19.03498936,10707.03125,23168,128
-1.183948658,-16416,-184858,-13.33226005,14463,1.043095117,128,-263846,-19.02900327,10726.5625,23808,128
-1.217485215,-16881,-185087,-13.34877591,14339,1.034152035,128,-264242,-19.05756343,10746.09375,24448,128
-1.183371685,-16408,-184727,-13.32281212,14528,1.047783023,128,-263979,-19.03859544,10765.625,25088,128
-0.590315532,-8185,-184810,-13.32879821,14432,1.040859346,128,-263840,-19.02857054,10785.15625,25728,128
-1.182578347,-16397,-184589,-13.31285933,14880,1.073169836,128,-263642,-19.01429045,10804.6875,26368,128
-1.495514094,-20736,-184559,-13.31069569,15358,1.107643975,128,-263172,-18.98039329,10824.21875,27008,128
-0.293390786,-4068,-184047,-13.27376941,16383,1.181568644,128,-262246,-18.91360866,10843.75,27648,128
-0.281562839,-3904,-183869,-13.26093176,16379,1.181280158,128,-262806,-18.95399677,10863.28125,28288,128
-1.200176024,-16641,-184494,-13.30600778,14607,1.053480632,128,-263430,-18.99900067,10882.8125,28928,128
-1.182289861,-16393,-184617,-13.31487874,14428,1.04057086,128,-263723,-19.02013231,10902.34375,29568,128
-1.252031476,-17360,-185055,-13.34646801,16270,1.1734189,128,-264296,-19.061458,10921.875,30208,128
-1.218062188,-16889,-182699,-13.17654946,992,0.071544656,128,-258257,-18.62591548,10941.40625,30848,128
-1.034584765,-14345,-178521,-12.87522529,15966,1.151493925,128,-246178,-17.75475833,10960.9375,31488,128
-0.586781572,-8136,-185104,-13.35000197,15809,1.140170829,128,-262829,-18.95565557,10980.46875,32128,128
-1.193180226,-16544,-184474,-13.30456535,15993,1.153441209,128,-263047,-18.97137808,11000,32768,128
-1.183515928,-16410,-184224,-13.28653494,8,5.77E-04,128,-261954,-18.89254914,11019.53125,33408,128
-1.181712887,-16385,-184129,-13.27968338,17,0.001226068,128,-261961,-18.893054,11039.0625,34048,128
-1.328264037,-18417,-184043,-13.27348092,463,0.033392314,128,-261575,-18.86521505,11058.59375,34688,128
-0.29533807,-4095,-183807,-13.25646022,923,0.066568263,128,-261350,-18.84898768,11078.125,35328,128
-1.32530705,-18376,-183749,-13.25227717,6,4.33E-04,128,-260956,-18.82057176,11097.65625,35968,128
-0.230789212,-3200,-183422,-13.22869339,769,0.055461533,128,-260529,-18.78977582,11117.1875,36608,128
-0.21297517,-2953,-182921,-13.19256046,2079,0.149940866,128,-259809,-18.73784825,11136.71875,37248,128
-1.182506225,-16396,-182349,-13.15130689,4091,0.295049583,128,-258242,-18.62483366,11156.25,37888,128
-0.111355795,-1544,-181776,-13.10998119,8071,0.582093666,128,-256764,-18.51823789,11175.78125,38528,128
-0.016876461,-234,-181457,-13.08697439,6151,0.443620139,128,-255813,-18.44965022,11195.3125,39168,128
-0.101979983,-1414,-181542,-13.09310473,8068,0.581877301,128,-256084,-18.46919518,11214.84375,39808,128
-0.221629765,-3073,-182553,-13.1660197,3587,0.258700282,128,-258309,-18.62966581,11234.375,40448,128
-1.191016578,-16514,-183444,-13.23028007,99,0.007140041,128,-260766,-18.80686865,11253.90625,41088,128
-0.22184613,-3076,-183632,-13.24383894,19,0.001370311,128,-261482,-18.85850774,11273.4375,41728,128
-1.421300938,-19707,-183771,-13.25386384,451,0.032526855,128,-261694,-18.87379752,11292.96875,42368,128
-0.278822217,-3866,-183826,-13.25783053,451,0.032526855,128,-261754,-18.87812482,11312.5,43008,128
-1.214311864,-16837,-183842,-13.25898448,631,0.045508748,128,-261727,-18.87617753,11332.03125,43648,128
-0.249901444,-3465,-183722,-13.25032988,560,0.040388112,128,-261582,-18.8657199,11351.5625,44288,128
-0.259709985,-3601,-183699,-13.24867108,1009,0.072770723,128,-261502,-18.85995017,11371.09375,44928,128
-1.268691572,-17591,-183719,-13.25011352,224,0.016155245,128,-261457,-18.85670469,11390.625,45568,128
-1.25621453,-17418,-183482,-13.23302069,767,0.055317289,128,-261400,-18.85259376,11410.15625,46208,128
-1.292131101,-17916,-183620,-13.24297348,572,0.041253572,128,-261507,-18.86031078,11429.6875,46848,128
-0.258628161,-3586,-183472,-13.23229947,772,0.055677897,128,-261268,-18.84307371,11449.21875,47488,128
-1.183299563,-16407,-183445,-13.23035219,891,0.064260371,128,-261301,-18.84545372,11468.75,48128,128
-0.228553442,-3169,-183649,-13.245065,760,0.054812438,128,-261391,-18.85194467,11488.28125,48768,128
-0.256248147,-3553,-183661,-13.24593046,887,0.063971885,128,-261443,-18.85569499,11507.8125,49408,128
-0.265479716,-3681,-183523,-13.23597768,895,0.064548858,128,-261513,-18.86074351,11527.34375,50048,128
-1.255565435,-17409,-183710,-13.24946442,819,0.059067614,128,-261581,-18.86564778,11546.875,50688,128
-1.215249445,-16850,-183764,-13.25335899,754,0.054379708,128,-261390,-18.85187255,11566.40625,51328,128
-1.265013369,-17540,-183432,-13.22941461,831,0.059933074,128,-261249,-18.8417034,11585.9375,51968,128
-1.436013751,-19911,-183767,-13.25357536,635,0.045797234,128,-261541,-18.86276291,11605.46875,52608,128
-0.295410191,-4096,-183732,-13.2510511,928,0.066928872,128,-261341,-18.84833859,11625,53248,128
-0.295410191,-4096,-183472,-13.23229947,992,0.071544656,128,-261184,-18.83701549,11644.53125,53888,128
-0.285673772,-3961,-183665,-13.24621895,757,0.054596073,128,-261387,-18.85165618,11664.0625,54528,128
-1.403270531,-19457,-183696,-13.24845472,1023,0.073780426,128,-261426,-18.85446892,11683.59375,55168,128
-0.259637864,-3600,-183369,-13.22487095,1024,0.073852548,128,-260962,-18.82100449,11703.125,55808,128
-1.209407593,-16769,-183189,-13.21188905,993,0.071616777,128,-260251,-18.76972601,11722.65625,56448,128
-0.166096111,-2303,-182767,-13.18145373,2463,0.177635572,128,-259649,-18.72630879,11742.1875,57088,128
-1.186040185,-16445,-182693,-13.17611673,798,0.05755306,128,-260266,-18.77080783,11761.71875,57728,128
-1.325234929,-18375,-183429,-13.22919824,3,2.16E-04,128,-261069,-18.8287215,11781.25,58368,128
-1.255565435,-17409,-183636,-13.24412742,764,0.055100924,128,-261448,-18.8560556,11800.78125,59008,128
-0.294328367,-4081,-184636,-13.31624905,63,0.004543663,128,-262438,-18.92745601,11820.3125,59648,128
-1.181424401,-16381,-179917,-12.97590708,1599,0.115322484,128,-250701,-18.08096446,11839.84375,60288,128
-1.172481319,-16257,-180099,-12.98903322,14415,1.039633279,128,-247079,-17.81973992,11859.375,60928,128
-1.320691266,-18312,-183975,-13.26857665,448,0.03231049,128,-260715,-18.80319045,11878.90625,61568,128
-0.239948659,-3327,-183539,-13.23713162,8,5.77E-04,128,-261096,-18.83066879,11898.4375,62208,128
-0.221557644,-3072,-183212,-13.21354785,448,0.03231049,128,-260799,-18.80924866,11917.96875,62848,128
-0.009231568,-128,-182992,-13.19768109,984,0.070967683,128,-260519,-18.78905461,11937.5,63488,128
-0.277019176,-3841,-182897,-13.19082954,960,0.069236764,128,-260334,-18.77571211,11957.03125,64128,128
-1.237102298,-17153,-182787,-13.18289616,2055,0.148209947,128,-260010,-18.7523447,11976.5625,64768,128
-0.036132936,-501,-182597,-13.16919305,2528,0.182323478,128,-259672,-18.72796759,11996.09375,65408,128
-1.182938955,-16402,-182354,-13.15166749,2953,0.21297517,128,-259317,-18.70236441,12015.625,512,128
-0.143305676,-1987,-181827,-13.1136594,3612,0.260503323,128,-258404,-18.63651736,12035.15625,1152,128
-0.075944075,-1053,-181305,-13.07601191,8163,0.588728856,128,-256957,-18.53215737,12054.6875,1792,128
-0.071833142,-996,-180784,-13.03843654,7400,0.533700053,128,-255544,-18.4302495,12074.21875,2432,128
-0.001730919,-24,-180822,-13.04117716,7999,0.576900909,128,-254917,-18.38502924,12093.75,3072,128
-0.016227366,-225,-180972,-13.0519954,6147,0.443331652,128,-255837,-18.45138114,12113.28125,3712,128
-0.036060814,-500,-182197,-13.1403444,6375,0.459775383,128,-259130,-18.68887766,12132.8125,4352,128
-0.16162457,-2241,-182473,-13.16024997,2123,0.153114218,128,-260021,-18.75313804,12152.34375,4992,128
-1.181712887,-16385,-182649,-13.17294337,511,0.036854152,128,-260625,-18.7966995,12171.875,5632,128
-0.148209947,-2055,-182727,-13.17856886,381,0.027478341,128,-260747,-18.80549834,12191.40625,6272,128
-1.181712887,-16385,-182857,-13.18794467,129,0.00930369,128,-260991,-18.82309602,12210.9375,6912,128
-0.230789212,-3200,-182648,-13.17287125,509,0.036709909,128,-260639,-18.7977092,12230.46875,7552,128
-1.182794712,-16400,-182544,-13.1653706,511,0.036854152,128,-260623,-18.79655526,12250,8192,128
-0.017309191,-240,-182512,-13.16306271,1628,0.117414012,128,-260516,-18.78883824,12269.53125,8832,128
-0.198622966,-2754,-182922,-13.19263258,71,0.005120636,128,-261049,-18.82727907,12289.0625,9472,128
-1.255060584,-17402,-182876,-13.18931498,394,0.028415922,128,-260838,-18.81206141,12308.59375,10112,128
-0.168476125,-2336,-182586,-13.16839971,1571,0.113303079,128,-260502,-18.78782854,12328.125,10752,128
-1.186040185,-16445,-182829,-13.18592527,387,0.02791107,128,-260846,-18.81263838,12347.65625,11392,128
-0.147993582,-2052,-182616,-13.17056336,1014,0.073131332,128,-260586,-18.79388676,12367.1875,12032,128
-1.329417983,-18433,-182801,-13.18390586,121,0.008726717,128,-260903,-18.81674931,12386.71875,12672,128
-1.217485215,-16881,-182744,-13.17979493,3,2.16E-04,128,-260925,-18.81833599,12406.25,13312,128
-0.175399801,-2432,-182656,-13.17344823,16,0.001153946,128,-260841,-18.81227777,12425.78125,13952,128
-1.331437389,-18461,-182599,-13.16933729,504,0.036349301,128,-260591,-18.79424736,12445.3125,14592,128
-0.027766827,-385,-182661,-13.17380883,455,0.032815341,128,-260729,-18.80420015,12464.84375,15232,128
-1.218711283,-16898,-182846,-13.18715134,255,0.018391015,128,-260867,-18.81415293,12484.375,15872,128
-1.182794712,-16400,-182685,-13.17553975,511,0.036854152,128,-260779,-18.80780623,12503.90625,16512,128
-0.036854152,-511,-182759,-13.18087675,768,0.055389411,128,-260576,-18.79316554,12523.4375,17152,128
-0.147777217,-2049,-182663,-13.17395308,1017,0.073347696,128,-260535,-18.79020855,12542.96875,17792,128
-0.184559248,-2559,-182621,-13.17092397,1536,0.110778822,128,-260408,-18.78104911,12562.5,18432,128
-0.152393002,-2113,-182615,-13.17049124,2255,0.162634273,128,-259957,-18.74852225,12582.03125,19072,128
-1.31066636,-18173,-181941,-13.12188126,3388,0.244348078,128,-258708,-18.65844234,12601.5625,19712,128
-0.147705096,-2048,-181759,-13.10875512,3198,0.230644969,128,-258834,-18.66752966,12621.09375,20352,128
-1.182794712,-16400,-182573,-13.16746213,2112,0.15232088,128,-260010,-18.7523447,12640.625,20992,128
-0.0230068,-319,-182575,-13.16760637,976,0.07039071,128,-260139,-18.76164839,12660.15625,21632,128
-0.293102299,-4064,-183130,-13.20763388,28,0.002019406,128,-260580,-18.79345403,12679.6875,22272,128
-0.260719688,-3615,-183479,-13.23280433,783,0.056471235,128,-260594,-18.79446373,12699.21875,22912,128
-0.260719688,-3615,-176780,-12.74966153,783,0.056471235,128,-242356,-17.47910946,12718.75,23552,128
0.01817465,252,-182564,-13.16681304,14816,1.068554052,128,-259161,-18.69111344,12757.8125,24832,0
-1.182289861,-16393,-182414,-13.15599479,3974,0.286611353,128,-259094,-18.68628129,12777.34375,25472,128
-0.165951868,-2301,-182361,-13.15217235,4080,0.294256245,128,-258831,-18.6673133,12796.875,26112,128
-7.21E-05,-1,-182157,-13.13745953,4095,0.29533807,128,-258288,-18.62815125,12816.40625,26752,128
-0.143305676,-1987,-181876,-13.11719336,3705,0.267210635,128,-257834,-18.59540803,12835.9375,27392,128
-0.037863855,-525,-181956,-13.12296309,8016,0.578126976,128,-256387,-18.49104804,12855.46875,28032,128
-3.61E-04,-5,-181398,-13.08271922,7283,0.525261822,128,-254510,-18.35567574,12875,28672,128
-2.88E-04,-4,-181177,-13.06678034,14460,1.042878752,128,-253439,-18.27843348,12894.53125,29312,128
-0.071616777,-993,-180655,-13.02913285,15472,1.11586584,128,-251641,-18.14875879,12914.0625,29952,128
-0.034618382,-480,-180429,-13.01283336,16167,1.165990372,128,-250332,-18.05435157,12933.59375,30592,128
-1.147022384,-15904,-179854,-12.97136342,16383,1.181568644,128,-248409,-17.91566168,12953.125,31232,128
-0.590315532,-8185,-179719,-12.961627,16334,1.178034684,128,-247851,-17.87541781,12972.65625,31872,128
-0.014424326,-200,-180709,-13.03302741,14460,1.042878752,128,-250199,-18.0447594,12992.1875,32512,128
-0.02791107,-387,-181337,-13.0783198,14488,1.044898158,128,-251908,-18.16801526,13011.71875,33152,128
-0.073780426,-1023,-182075,-13.13154556,14846,1.070717701,128,-253223,-18.2628552,13031.25,33792,128
-0.1390505,-1928,-181813,-13.11264969,14817,1.068626174,128,-253091,-18.25333515,13050.78125,34432,128
-0.145325082,-2015,-182107,-13.13385345,15332,1.105768812,128,-253204,-18.26148489,13070.3125,35072,128
-2.88E-04,-4,-182116,-13.13450255,15236,1.098845136,128,-253045,-18.25001755,13089.84375,35712,128
-0.143161433,-1985,-182026,-13.1280116,15359,1.107716096,128,-252857,-18.23645869,13109.375,36352,128
-0.137535946,-1907,-181924,-13.12065519,16383,1.181568644,128,-252624,-18.21965435,13128.90625,36992,128
-0.145469325,-2017,-182289,-13.14697959,16316,1.176736495,128,-252914,-18.24056962,13148.4375,37632,128
-0.22271159,-3088,-181973,-13.12418915,15360,1.107788218,128,-250985,-18.101447,13167.96875,38272,128
-0.073852548,-1024,-181973,-13.12418915,16135,1.16368248,128,-250712,-18.08175779,13187.5,38912,128
-0.147705096,-2048,-182095,-13.13298799,16256,1.172409197,128,-250512,-18.06733347,13207.03125,39552,128
-0.073780426,-1023,-182142,-13.13637771,16383,1.181568644,128,-250246,-18.04814911,13226.5625,40192,128
-0.143161433,-1985,-182196,-13.14027228,16135,1.16368248,128,-249879,-18.02168048,13246.09375,40832,128
-0.259060891,-3592,-182261,-13.14496018,16327,1.177529833,128,-249721,-18.01028526,13265.625,41472,128
-0.26259485,-3641,-182467,-13.15981724,14403,1.038767819,128,-249782,-18.01468468,13285.15625,42112,128
-0.071544656,-992,-182293,-13.14726807,14620,1.054418213,128,-249727,-18.01071799,13304.6875,42752,128
-0.138473527,-1920,-182016,-13.12729038,15216,1.097402703,128,-248859,-17.94811642,13324.21875,43392,128
-0.221629765,-3073,-182293,-13.14726807,14911,1.075405607,128,-249076,-17.96376681,13343.75,44032,128
-0.036926274,-512,-182480,-13.16075482,15175,1.094445717,128,-249379,-17.98561966,13363.28125,44672,128
-0.154700894,-2145,-182497,-13.16198089,14963,1.079155931,128,-249102,-17.96564197,13382.8125,45312,128
-0.18463137,-2560,-182467,-13.15981724,14971,1.079732904,128,-249078,-17.96391105,13402.34375,45952,128
-0.150012988,-2080,-182781,-13.18246343,14431,1.040787225,128,-249304,-17.98021054,13421.875,46592,128
-0.22184613,-3076,-182972,-13.19623866,14782,1.066101917,128,-249644,-18.00473189,13441.40625,47232,128
-0.036926274,-512,-182597,-13.16919305,14727,1.062135227,128,-249301,-17.97999418,13460.9375,47872,128
-0.032454733,-450,-182862,-13.18830528,14911,1.075405607,128,-249331,-17.98215782,13480.46875,48512,128
-0.239515929,-3321,-182557,-13.16630818,15107,1.089541446,128,-248919,-17.95244371,13500,49152,128
-2.16E-04,-3,-182426,-13.15686025,16328,1.177601955,128,-247497,-17.84988676,13519.53125,49792,128
-0.147632974,-2047,-182082,-13.13205041,15353,1.107283367,128,-246939,-17.80964289,13539.0625,50432,128
-0.110850943,-1537,-181764,-13.10911573,14720,1.061630376,128,-247414,-17.84390066,13558.59375,51072,128
-0.156864543,-2175,-182956,-13.19508471,16240,1.171255251,128,-248322,-17.9093871,13578.125,51712,128
-0.041469937,-575,-182756,-13.18066039,15935,1.149258155,128,-248109,-17.89402519,13597.65625,52352,128
-0.272403392,-3777,-184230,-13.28696767,13304,0.959506149,128,-249644,-18.00473189,13617.1875,52992,128
-0.226461914,-3140,-179972,-12.97987377,1537,0.110850943,128,-240189,-17.32282189,13636.71875,53632,128
-0.145469325,-2017,-180741,-13.03533531,15399,1.110600962,128,-239074,-17.24240628,13656.25,54272,128
-7.21E-05,-1,-183494,-13.23388615,63,0.004543663,128,-246782,-17.79831979,13675.78125,54912,128
-5.05E-04,-7,-182759,-13.18087675,15359,1.107716096,128,-246785,-17.79853616,13695.3125,55552,128
-7.21E-05,-1,-182784,-13.18267979,16151,1.164836426,128,-246799,-17.79954586,13714.84375,56192,128
-0.071833142,-996,-182675,-13.17481854,15239,1.099061501,128,-246682,-17.79110763,13734.375,56832,128
-0.027550462,-382,-182196,-13.14027228,15919,1.148104208,128,-245934,-17.73716065,13753.90625,57472,128
-7.21E-05,-1,-182154,-13.13724317,16376,1.181063793,128,-245685,-17.71920237,13773.4375,58112,128
-0.146046298,-2025,-181731,-13.10673572,403,0.029065016,128,-244939,-17.66539963,13792.96875,58752,128
-0.007500649,-104,-181739,-13.10731269,1010,0.072842845,128,-244782,-17.65407653,13812.5,59392,128
-0.015578272,-216,-181199,-13.06836701,870,0.062745817,128,-243537,-17.56428511,13832.03125,60032,128
-0.002596379,-36,-180641,-13.02812314,3032,0.218672778,128,-242262,-17.47233003,13851.5625,60672,128
-7.21E-05,-1,-180296,-13.00324118,7759,0.559591718,128,-241077,-17.3868659,13871.09375,61312,128
-0.582165787,-8072,-179927,-12.9766283,8191,0.590748261,128,-239622,-17.28192893,13890.625,61952,128
-0.588584612,-8161,-180259,-13.00057268,8161,0.588584612,128,-240282,-17.32952921,13910.15625,62592,128
-0.032598976,-452,-181474,-13.08820046,3202,0.230933455,128,-243437,-17.55707294,13929.6875,63232,128
-0.007572771,-105,-182046,-13.12945403,506,0.036493544,128,-244967,-17.66741904,13949.21875,63872,128
-0.223865536,-3104,-182163,-13.13789226,1,7.21E-05,128,-245441,-17.70160469,13968.75,64512,128
-0.073852548,-1024,-182225,-13.1423638,3,2.16E-04,128,-245523,-17.70751866,13988.28125,65152,128
-0.287981664,-3993,-182298,-13.14762868,252,0.01817465,128,-245512,-17.70672532,14007.8125,256,128
-0.032454733,-450,-182490,-13.16147604,16376,1.181063793,128,-245482,-17.70456168,14027.34375,896,128
-0.002452135,-34,-182434,-13.15743722,255,0.018391015,128,-245506,-17.70629259,14046.875,1536,128
-0.14258446,-1977,-182543,-13.16529848,515,0.037142639,128,-245515,-17.70694169,14066.40625,2176,128
-0.292092597,-4050,-182102,-13.13349284,192,0.013847353,128,-244956,-17.6666257,14085.9375,2816,128
-0.22271159,-3088,-182472,-13.16017785,48,0.003461838,128,-245097,-17.67679485,14105.46875,3456,128
-0.008077622,-112,-182532,-13.16450514,893,0.064404614,128,-244722,-17.64974924,14125,4096,128
-0.267715486,-3712,-182384,-13.15383114,460,0.033175949,128,-244340,-17.62219878,14144.53125,4736,128
-0.138545649,-1921,-182211,-13.1413541,960,0.069236764,128,-243959,-17.59472043,14164.0625,5376,128
-6.49E-04,-9,-182489,-13.16140391,896,0.064620979,128,-244064,-17.60229321,14183.59375,6016,128
-0.073636183,-1021,-182521,-13.16371181,1023,0.073780426,128,-244151,-17.60856779,14203.125,6656,128
-0.147272366,-2042,-182241,-13.14351775,999,0.072049507,128,-243772,-17.58123369,14222.65625,7296,128
-0.152032393,-2108,-182529,-13.16428878,992,0.071544656,128,-243914,-17.59147496,14242.1875,7936,128
-0.073347696,-1017,-182308,-13.1483499,2105,0.151816029,128,-243471,-17.55952508,14261.71875,8576,128
-0.00223577,-31,-182459,-13.15924026,1022,0.073708305,128,-243792,-17.58267612,14281.25,9216,128
-0.001081824,-15,-182569,-13.16717364,1014,0.073131332,128,-243857,-17.58736403,14300.78125,9856,128
-0.157008786,-2177,-182435,-13.15750935,2166,0.156215448,128,-243642,-17.57185788,14320.3125,10496,128
-0.009231568,-128,-182529,-13.16428878,2169,0.156431813,128,-243619,-17.57019908,14339.84375,11136,128
-0.036926274,-512,-182271,-13.1456814,3713,0.267787608,128,-242553,-17.49331742,14359.375,11776,128
-0.277019176,-3841,-182666,-13.17416944,3586,0.258628161,128,-242679,-17.50240475,14378.90625,12416,128
-0.073275575,-1016,-182331,-13.1500087,3939,0.284087096,128,-242299,-17.47499853,14398.4375,13056,128
-0.294977462,-4090,-182609,-13.17005851,3696,0.26656154,128,-242393,-17.48177796,14417.96875,13696,128
-0.147705096,-2048,-182272,-13.14575352,4065,0.293174421,128,-241734,-17.43424981,14437.5,14336,128
-0.04824937,-669,-181945,-13.12216975,8190,0.59067614,128,-240784,-17.36573426,14457.03125,14976,128
-0.036998396,-513,-181509,-13.09072472,8140,0.587070058,128,-240826,-17.36876337,14476.5625,15616,128
-0.142872947,-1981,-182201,-13.14063288,4083,0.29447261,128,-241801,-17.43908196,14496.09375,16256,128
-0.161840935,-2244,-182566,-13.16695728,3638,0.262378485,128,-242259,-17.47211367,14515.625,16896,128
-0.228697685,-3171,-182637,-13.17207791,4093,0.295193827,128,-242462,-17.48675436,14535.15625,17536,128
-0.294833218,-4088,-181866,-13.11647214,3431,0.247449308,128,-239592,-17.27976528,14554.6875,18176,128
-0.071833142,-996,-176738,-12.74663243,32447,2.340130489,128,-224827,-16.21488943,14574.21875,18816,128
-0.145757812,-2021,-183241,-13.21563938,13248,0.955467338,128,-240141,-17.31936006,14593.75,19456,128
-0.266273053,-3692,-182620,-13.17085185,4033,0.290866529,128,-242066,-17.45819419,14613.28125,20096,128
-0.188237451,-2610,-182822,-13.18542042,3584,0.258483918,128,-242171,-17.46576696,14632.8125,20736,128
-0.223649171,-3101,-182454,-13.15887966,4087,0.294761097,128,-241696,-17.43150919,14652.34375,21376,128
-0.001081824,-15,-182297,-13.14755656,7695,0.554975933,128,-241009,-17.38196163,14671.875,22016,128
-0.221701887,-3074,-182265,-13.14524867,7104,0.512352051,128,-240819,-17.36825852,14691.40625,22656,128
-0.034690503,-481,-182011,-13.12692978,8072,0.582165787,128,-240179,-17.32210068,14710.9375,23296,128
-0.004615784,-64,-181645,-13.10053326,8184,0.59024341,128,-239491,-17.272481,14730.46875,23936,128
-0.004183054,-58,-181343,-13.07875253,6399,0.461506303,128,-238740,-17.21831765,14750,24576,128
-0.073347696,-1017,-181169,-13.06620336,7688,0.554471082,128,-238039,-17.16776039,14769.53125,25216,128
-5.77E-04,-8,-180704,-13.03266681,15351,1.107139123,128,-236396,-17.04926456,14789.0625,25856,128
-0.011467339,-159,-180375,-13.00893879,15364,1.108076705,128,-235244,-16.96618044,14808.59375,26496,128
-0.008366109,-116,-180417,-13.0119679,15359,1.107716096,128,-235057,-16.9526937,14828.125,27136,128
-0.004615784,-64,-180854,-13.04348505,15167,1.093868744,128,-236689,-17.07039619,14847.65625,27776,128
-0.064548858,-895,-182189,-13.13976743,7077,0.510404767,128,-239518,-17.27442828,14867.1875,28416,128
-0.144243258,-2000,-182346,-13.15109052,7928,0.571780273,128,-240446,-17.34135715,14886.71875,29056,128
-0.028488043,-395,-182707,-13.17712643,8166,0.588945221,128,-240428,-17.34005896,14906.25,29696,128
-0.277019176,-3841,-182658,-13.17359247,8187,0.590459775,128,-240493,-17.34474687,14925.78125,30336,128
-0.15232088,-2112,-182692,-13.1760446,8033,0.579353044,128,-240537,-17.34792022,14945.3125,30976,128
-0.233024983,-3231,-182894,-13.19061317,7952,0.573511192,128,-240595,-17.35210328,14964.84375,31616,128
-0.294328367,-4081,-182849,-13.1873677,8183,0.590171288,128,-240457,-17.34215049,14984.375,32256,128
-0.184559248,-2559,-182780,-13.18239131,8191,0.590748261,128,-240509,-17.34590082,15003.90625,32896,128
-0.156936664,-2176,-182694,-13.17618885,8189,0.590604018,128,-240419,-17.33940987,15023.4375,33536,128
-9.38E-04,-13,-182614,-13.17041912,8128,0.586204599,128,-240178,-17.32202856,15042.96875,34176,128
-0.016227366,-225,-182889,-13.19025257,7937,0.572429368,128,-240317,-17.33205346,15062.5,34816,128
-0.034690503,-481,-182626,-13.17128458,8142,0.587214301,128,-240242,-17.32664434,15082.03125,35456,128
-0.277163419,-3843,-182786,-13.18282404,8166,0.588945221,128,-240302,-17.33097164,15101.5625,36096,128
-0.258483918,-3584,-182784,-13.18267979,8137,0.586853693,128,-240423,-17.33969836,15121.09375,36736,128
-7.21E-05,-1,-182794,-13.18340101,8191,0.590748261,128,-240442,-17.34106867,15140.625,37376,128
-0.178861639,-2480,-182699,-13.17654946,8190,0.59067614,128,-240294,-17.33039467,15160.15625,38016,128
-0.07039071,-976,-182904,-13.19133439,7999,0.576900909,128,-240490,-17.3445305,15179.6875,38656,128
-0.040460234,-561,-182828,-13.18585315,7936,0.572357246,128,-240429,-17.34013108,15199.21875,39296,128
-0.20323875,-2818,-183076,-13.20373931,7970,0.574809381,128,-240282,-17.32952921,15218.75,39936,128
-0.286178623,-3968,-182874,-13.18917074,8060,0.581300328,128,-240112,-17.31726853,15238.28125,40576,128
-0.217013981,-3009,-182979,-13.19674351,7998,0.576828787,128,-240082,-17.31510488,15257.8125,41216,128
-0.071833142,-996,-182934,-13.19349804,8129,0.58627672,128,-239934,-17.30443088,15277.34375,41856,128
-0.072698602,-1008,-183082,-13.20417204,7169,0.517039957,128,-240247,-17.32700495,15296.875,42496,128
-0.152609366,-2116,-182879,-13.18953135,8078,0.582598517,128,-239816,-17.29592053,15316.40625,43136,128
-0.266705783,-3698,-182546,-13.16551485,6159,0.444197112,128,-239101,-17.24435356,15335.9375,43776,128
-0.002307892,-32,-182309,-13.14842202,7176,0.517544808,128,-237991,-17.16429855,15355.46875,44416,128
-2.88E-04,-4,-182192,-13.13998379,8176,0.589666437,128,-238541,-17.20396545,15375,45056,128
-0.045941478,-637,-183009,-13.19890716,6202,0.447298342,128,-239382,-17.26461974,15394.53125,45696,128
-0.180015585,-2496,-183033,-13.20063808,6200,0.447154098,128,-239464,-17.27053371,15414.0625,46336,128
-0.008149744,-113,-183410,-13.22782793,7943,0.572862097,128,-239866,-17.29952661,15433.59375,46976,128
-0.040676599,-564,-180989,-13.05322147,16511,1.190800213,128,-233464,-16.83780394,15453.125,47616,128
-7.21E-05,-1,-177484,-12.80043516,7703,0.555552906,128,-222185,-16.02434409,15472.65625,48256,128
-0.212326075,-2944,-183654,-13.24542561,13248,0.955467338,128,-238552,-17.20475879,15492.1875,48896,128
-0.148859042,-2064,-183000,-13.19825807,6391,0.46092933,128,-239111,-17.24507478,15511.71875,49536,128
-0.043777829,-607,-183005,-13.19861867,7047,0.508241118,128,-239092,-17.24370447,15531.25,50176,128
-0.200858736,-2785,-182638,-13.17215004,7207,0.519780579,128,-238852,-17.22639528,15550.78125,50816,128
-0.032094125,-445,-182689,-13.17582824,8176,0.589666437,128,-238495,-17.20064785,15570.3125,51456,128
-0.036421423,-505,-182493,-13.1616924,7195,0.518915119,128,-238036,-17.16754403,15589.84375,52096,128
-0.138545649,-1921,-182186,-13.13955106,14359,1.035594468,128,-237449,-17.12520863,15609.375,52736,128
-0.140853541,-1953,-182222,-13.14214744,14783,1.066174038,128,-237161,-17.1044376,15628.90625,53376,128
-0.036998396,-513,-181937,-13.12159277,15366,1.108220948,128,-236506,-17.05719794,15648.4375,54016,128
-0.036349301,-504,-181587,-13.0963502,16322,1.177169225,128,-235067,-16.95341491,15667.96875,54656,128
-0.073852548,-1024,-180992,-13.05343784,15408,1.111250056,128,-233654,-16.85150705,15687.5,55296,128
-0.036926274,-512,-180718,-13.03367651,16032,1.156253953,128,-232799,-16.78984306,15707.03125,55936,128
-0.058995492,-818,-181134,-13.06367911,15299,1.103388799,128,-233409,-16.83383725,15726.5625,56576,128
-0.03584445,-497,-181729,-13.10659148,14359,1.035594468,128,-235241,-16.96596407,15746.09375,57216,128
-0.002307892,-32,-182771,-13.18174221,15235,1.098773014,128,-237536,-17.13148321,15765.625,57856,128
-0.069308885,-961,-183051,-13.20193627,8177,0.589738558,128,-238267,-17.18420412,15785.15625,58496,128
-0.15232088,-2112,-183022,-13.19984474,7404,0.533988539,128,-238206,-17.1798047,15804.6875,59136,128
-0.295265948,-4094,-183041,-13.20121505,7180,0.517833295,128,-238482,-17.19971027,15824.21875,59776,128
-0.073852548,-1024,-182984,-13.19710412,7360,0.530815188,128,-238456,-17.19783511,15843.75,60416,128
-0.014207961,-197,-183087,-13.20453265,7267,0.524107876,128,-238616,-17.20937457,15863.28125,61056,128
-0.001153946,-16,-182876,-13.18931498,7180,0.517833295,128,-238435,-17.19632056,15882.8125,61696,128
-0.198622966,-2754,-182993,-13.19775321,8191,0.590748261,128,-238646,-17.21153822,15902.34375,62336,128
-0.156503934,-2170,-182906,-13.19147863,7168,0.516967835,128,-238589,-17.20742729,15921.875,62976,128
-0.036782031,-510,-182991,-13.19760897,7743,0.558437772,128,-238798,-17.22250071,15941.40625,63616,128
-0.00223577,-31,-182807,-13.18433859,7105,0.512424172,128,-238649,-17.21175459,15960.9375,64256,128
-0.294328367,-4081,-182634,-13.17186155,8169,0.589161585,128,-238563,-17.20555213,15980.46875,64896,128
-0.256248147,-3553,-182829,-13.18592527,8164,0.588800977,128,-238467,-17.19862845,16000,0,128
-0.147777217,-2049,-183012,-13.19912353,7295,0.526127282,128,-238227,-17.18131926,16019.53125,640,128
-0.001442433,-20,-182896,-13.19075742,7321,0.528002444,128,-238034,-17.16739978,16039.0625,1280,128
-0.01593888,-221,-182741,-13.17957856,8001,0.577045152,128,-237997,-17.16473128,16058.59375,1920,128
-0.148859042,-2064,-182794,-13.18340101,7300,0.52648789,128,-238063,-17.16949131,16078.125,2560,128
-0.013919474,-193,-182930,-13.19320955,7807,0.563053556,128,-237985,-17.16386582,16097.65625,3200,128
-0.072842845,-1010,-182992,-13.19768109,7710,0.556057758,128,-238017,-17.16617372,16117.1875,3840,128
-0.259133012,-3593,-182857,-13.18794467,7712,0.556202001,128,-237984,-17.1637937,16136.71875,4480,128
-0.007212163,-100,-182852,-13.18758406,7966,0.574520895,128,-237990,-17.16422643,16156.25,5120,128
-0.039234166,-544,-182871,-13.18895438,7687,0.55439896,128,-238065,-17.16963555,16175.78125,5760,128
-7.21E-05,-1,-182529,-13.16428878,8127,0.586132477,128,-237762,-17.1477827,16195.3125,6400,128
-0.147777217,-2049,-182752,-13.1803719,7932,0.572068759,128,-237862,-17.15499486,16214.84375,7040,128
-0.147993582,-2052,-182548,-13.16565909,8063,0.581516693,128,-237757,-17.14742209,16234.375,7680,128
-0.294833218,-4088,-182448,-13.15844693,8188,0.590531896,128,-237622,-17.13768567,16253.90625,8320,128
-0.147705096,-2048,-182186,-13.13955106,16352,1.179332874,128,-236823,-17.08006049,16273.4375,8960,128
-0.143161433,-1985,-181634,-13.09973992,16128,1.163177629,128,-235701,-16.99914002,16292.96875,9600,128
-0.109696997,-1521,-181931,-13.12116004,15375,1.108870042,128,-237119,-17.10140849,16312.5,10240,128
-0.15188815,-2106,-182394,-13.15455236,8191,0.590748261,128,-237675,-17.14150812,16332.03125,10880,128
-0.072770723,-1009,-182572,-13.16739001,8191,0.590748261,128,-237874,-17.15586032,16351.5625,11520,128
-0.265479716,-3681,-183393,-13.22660187,7175,0.517472686,128,-238522,-17.20259514,16371.09375,12160,128
-0.004110933,-57,-178987,-12.90883397,25568,1.844005805,128,-227061,-16.37600915,16390.625,12800,128
-0.01860738,-258,-177976,-12.835919,8128,0.586204599,128,-222459,-16.04410542,16410.15625,13440,128
-0.166312476,-2306,-183260,-13.21700969,14326,1.033214454,128,-237370,-17.11951102,16429.6875,14080,128
-0.005553365,-77,-182349,-13.15130689,15292,1.102883947,128,-236884,-17.08445991,16449.21875,14720,128
-0.146623271,-2033,-182259,-13.14481594,15902,1.146878141,128,-237034,-17.09527816,16468.75,15360,128
-0.01904011,-264,-181985,-13.12505461,16335,1.178106806,128,-236790,-17.07768048,16488.28125,16000,128
-0.147200244,-2041,-182041,-13.12909342,16320,1.177024982,128,-236672,-17.06917013,16507.8125,16640,128
-0.034041409,-472,-181981,-13.12476613,15374,1.108797921,128,-236031,-17.02294016,16527.34375,17280,128
-0.036349301,-504,-181624,-13.0990187,15487,1.116947665,128,-235409,-16.97808051,16546.875,17920,128
-0.002307892,-32,-181027,-13.05596209,16159,1.165413399,128,-234491,-16.91187285,16566.40625,18560,128
-0.058923371,-817,-180849,-13.04312444,15839,1.142334478,128,-234214,-16.89189516,16585.9375,19200,128
-5.77E-04,-8,-180616,-13.0263201,15456,1.114711894,128,-233248,-16.82222567,16605.46875,19840,128
-0.138545649,-1921,-179728,-12.9622761,16131,1.163393994,128,-231427,-16.69089218,16625,20480,128
-0.249540836,-3460,-179476,-12.94410145,16128,1.163177629,128,-230576,-16.62951668,16644.53125,21120,128
-0.073996791,-1026,-179699,-12.96018457,16140,1.164043088,128,-231062,-16.66456779,16664.0625,21760,128
-0.036926274,-512,-180508,-13.01853097,15072,1.087017189,128,-232798,-16.78977094,16683.59375,22400,128
-0.075006494,-1040,-181376,-13.08113254,15203,1.096465122,128,-235272,-16.96819985,16703.125,23040,128
-0.035195355,-488,-181735,-13.10702421,15360,1.107788218,128,-236086,-17.02690685,16722.65625,23680,128
-0.074862251,-1038,-181641,-13.10024477,15871,1.14464237,128,-236176,-17.0333978,16742.1875,24320,128
-0.028271678,-392,-181647,-13.1006775,15475,1.116082205,128,-236041,-17.02366138,16761.71875,24960,128
-0.017381313,-241,-181747,-13.10788967,15423,1.112331881,128,-236247,-17.03851843,16781.25,25600,128
-0.143377798,-1988,-181710,-13.10522116,16295,1.175221941,128,-236197,-17.03491235,16800.78125,26240,128
-0.110850943,-1537,-181857,-13.11582304,15375,1.108870042,128,-236402,-17.04969729,16820.3125,26880,128
-0.082579265,-1145,-181541,-13.09303261,15379,1.109158529,128,-236103,-17.02813292,16839.84375,27520,128
-7.21E-05,-1,-181779,-13.11019756,15363,1.108004583,128,-236221,-17.03664327,16859.375,28160,128
-0.034185652,-474,-181612,-13.09815325,15999,1.153873939,128,-235884,-17.01233828,16878.90625,28800,128
-0.12931408,-1793,-181809,-13.11236121,15374,1.108797921,128,-236084,-17.02676261,16898.4375,29440,128
-0.036998396,-513,-181827,-13.1136594,15537,1.120553746,128,-236111,-17.02870989,16917.96875,30080,128
-0.073996791,-1026,-181722,-13.10608662,15366,1.108220948,128,-236186,-17.03411901,16937.5,30720,128
-0.115466728,-1601,-181833,-13.11409213,16368,1.18048682,128,-236206,-17.03556145,16957.03125,31360,128
-0.11777462,-1633,-181551,-13.09375383,15423,1.112331881,128,-236149,-17.03145051,16976.5625,32000,128
-0.111355795,-1544,-181768,-13.10940422,16380,1.181352279,128,-236307,-17.04284573,16996.09375,32640,128
-0.03411353,-473,-181584,-13.09613384,15388,1.109807624,128,-236079,-17.026402,17015.625,33280,128
-0.034834747,-483,-181611,-13.09808112,15887,1.145796316,128,-235990,-17.01998317,17035.15625,33920,128
-0.145757812,-2021,-181547,-13.09346534,15391,1.110023988,128,-235888,-17.01262677,17054.6875,34560,128
-0.036926274,-512,-181563,-13.09461929,15921,1.148248452,128,-235851,-17.00995827,17074.21875,35200,128
-0.088060509,-1221,-181717,-13.10572602,15999,1.153873939,128,-235915,-17.01457405,17093.75,35840,128
-0.073924669,-1025,-181592,-13.09671081,16098,1.16101398,128,-235812,-17.00714552,17113.28125,36480,128
-0.130468026,-1809,-181585,-13.09620596,16332,1.177890441,128,-235700,-16.9990679,17132.8125,37120,128
-0.013919474,-193,-181550,-13.0936817,16354,1.179477117,128,-235789,-17.00548673,17152.34375,37760,128
-0.078251967,-1085,-181557,-13.09418656,15999,1.153873939,128,-235807,-17.00678492,17171.875,38400,128
-0.082002292,-1137,-181492,-13.08949865,15488,1.117019786,128,-235364,-16.97483504,17191.40625,39040,128
-0.01550615,-215,-180951,-13.05048085,15742,1.13533868,128,-234116,-16.88482724,17210.9375,39680,128
-0.008077622,-112,-180688,-13.03151286,15874,1.144858735,128,-233854,-16.86593138,17230.46875,40320,128
-0.032382611,-449,-181185,-13.06735731,14847,1.070789822,128,-235012,-16.94944822,17250,40960,128
-0.006995798,-97,-181347,-13.07904101,14339,1.034152035,128,-235374,-16.97555625,17269.53125,41600,128
-7.21E-05,-1,-181452,-13.08661378,14457,1.042662387,128,-235482,-16.98334539,17289.0625,42240,128
-0.002307892,-32,-182296,-13.14748444,16124,1.162889142,128,-236319,-17.04371119,17308.59375,42880,128
-0.032382611,-449,-175842,-12.68201145,1536,0.110778822,128,-218470,-15.75641224,17328.125,43520,128
-4.726563063,-65536,-180186,-12.9953078,27,0.001947284,128,-227302,-16.39339046,17347.65625,44160,128
-0.078324089,-1086,-181558,-13.09425868,15970,1.151782412,128,-233886,-16.86823927,17367.1875,44800,128
-4.708172048,-65281,-180994,-13.05358208,15745,1.135555045,128,-234201,-16.89095758,17386.71875,45440,128
-9.38E-04,-13,-180749,-13.03591228,16257,1.172481319,128,-233949,-16.87278293,17406.25,46080,128
-8.65E-04,-12,-180546,-13.02127159,16368,1.18048682,128,-233814,-16.86304651,17425.78125,46720,128
-0.036709909,-509,-180586,-13.02415645,16368,1.18048682,128,-233552,-16.84415064,17445.3125,47360,128
-0.009808542,-136,-180242,-12.99934661,16291,1.174933454,128,-233222,-16.82035051,17464.84375,48000,128
-4.724543658,-65508,-180068,-12.98679745,16327,1.177529833,128,-232762,-16.78717456,17484.375,48640,128
-0.268292459,-3720,-179702,-12.96040093,15921,1.148248452,128,-231834,-16.72024569,17503.90625,49280,128
-0.011539461,-160,-179351,-12.93508624,16319,1.17695286,128,-231105,-16.66766902,17523.4375,49920,128
-4.597393226,-63745,-179021,-12.91128611,15870,1.144570249,128,-230042,-16.59100373,17542.96875,50560,128
-4.611168457,-63936,-178493,-12.87320589,1079,0.077819237,128,-228298,-16.46522361,17562.5,51200,128
-4.718485441,-65424,-178445,-12.86974405,1484,0.107028497,128,-227880,-16.43507677,17582.03125,51840,128
-4.585853766,-63585,-178744,-12.89130841,1054,0.076016197,128,-229459,-16.54895682,17601.5625,52480,128
-0.239227443,-3317,-179445,-12.94186568,15425,1.112476124,128,-231359,-16.68598791,17621.09375,53120,128
-0.579857895,-8040,-179948,-12.97814285,14847,1.070789822,128,-232969,-16.80210373,17640.625,53760,128
-0.008943082,-124,-180348,-13.00699151,16316,1.176736495,128,-233544,-16.84357367,17660.15625,54400,128
-0.009015204,-125,-180337,-13.00619817,16356,1.17962136,128,-233492,-16.83982335,17679.6875,55040,128
-2.88E-04,-4,-180296,-13.00324118,16353,1.179404995,128,-233527,-16.8423476,17699.21875,55680,128
-7.21E-05,-1,-180244,-12.99949086,15635,1.127621666,128,-233198,-16.81861959,17718.75,56320,128
-0.293390786,-4068,-180044,-12.98506653,15868,1.144426005,128,-233012,-16.80520496,17738.28125,56960,128
-0.002019406,-28,-180251,-12.99999571,15360,1.107788218,128,-233408,-16.83376513,17757.8125,57600,128
-0.14568569,-2020,-179840,-12.97035372,15864,1.144137519,128,-232998,-16.80419526,17777.34375,58240,128
-0.29137138,-4040,-180112,-12.9899708,15552,1.121635571,128,-233252,-16.82251416,17796.875,58880,128
-4.726346699,-65533,-179992,-12.98131621,15616,1.126251355,128,-233238,-16.82150445,17816.40625,59520,128
-0.147128123,-2040,-180088,-12.98823988,15744,1.135482923,128,-233044,-16.80751286,17835.9375,60160,128
-0.12931408,-1793,-179994,-12.98146045,15903,1.146950262,128,-232934,-16.79957948,17855.46875,60800,128
-0.036637787,-508,-179692,-12.95967972,16280,1.174140116,128,-232518,-16.76957688,17875,61440,128
-0.554543204,-7689,-179724,-12.96198761,16156,1.165197035,128,-232683,-16.78147695,17894.53125,62080,128
-0.138545649,-1921,-179659,-12.9572997,16336,1.178178928,128,-232685,-16.78162119,17914.0625,62720,128
-0.109552754,-1519,-179567,-12.95066451,16320,1.177024982,128,-232762,-16.78717456,17933.59375,63360,128
-0.23778501,-3297,-179599,-12.95297241,16376,1.181063793,128,-232657,-16.77960179,17953.125,64000,128
-4.65292688,-64515,-179407,-12.93912505,15366,1.108220948,128,-232434,-16.76351866,17972.65625,64640,128
-0.033031706,-458,-179546,-12.94914996,15352,1.107211245,128,-232752,-16.78645334,17992.1875,65280,128
-0.222062495,-3079,-179277,-12.92974924,15367,1.108293069,128,-232379,-16.75955197,18011.71875,384,128
-4.726563063,-65536,-179138,-12.91972434,15665,1.129785315,128,-232143,-16.74253127,18031.25,1024,128
-0.034690503,-481,-179169,-12.92196011,15361,1.10786034,128,-232311,-16.7546477,18050.78125,1664,128
-4.718052711,-65418,-179082,-12.91568552,15512,1.118750706,128,-232296,-16.75356588,18070.3125,2304,128
-0.27586523,-3825,-178962,-12.90703093,15424,1.112404002,128,-232117,-16.74065611,18089.84375,2944,128
-0.002307892,-32,-178236,-12.85467063,16320,1.177024982,128,-230719,-16.63983007,18109.375,3584,128
-4.689708911,-65025,-178287,-12.85834883,16131,1.163393994,128,-231121,-16.66882296,18128.90625,4224,128
-4.722524252,-65480,-178376,-12.86476765,16089,1.160364885,128,-231727,-16.71252867,18148.4375,4864,128
-0.221341279,-3069,-178809,-12.89599632,15416,1.111827029,128,-232263,-16.75118586,18167.96875,5504,128
-0.212398197,-2945,-179081,-12.9156134,16320,1.177024982,128,-232512,-16.76914415,18187.5,6144,128
-0.140781419,-1952,-180123,-12.99076414,16159,1.165413399,128,-233648,-16.85107432,18207.03125,6784,128
-4.521160665,-62688,-173470,-12.51093894,0,0,128,-217088,-15.65674015,18226.5625,7424,128
-4.447380238,-61665,-176617,-12.73790571,7692,0.554759569,128,-222984,-16.08196927,18246.09375,8064,128
-4.694396817,-65090,-178964,-12.90717517,16380,1.181352279,128,-232375,-16.75926349,18265.625,8704,128
-0.03584445,-497,-178643,-12.88402413,15743,1.135410802,128,-232068,-16.73712215,18285.15625,9344,128
-0.020771029,-288,-178489,-12.8729174,15378,1.109086407,128,-232138,-16.74217066,18304.6875,9984,128
-4.725192753,-65517,-178414,-12.86750828,16353,1.179404995,128,-231583,-16.70214316,18324.21875,10624,128
-4.691944682,-65056,-178331,-12.86152218,15375,1.108870042,128,-231409,-16.68959399,18343.75,11264,128
-4.726490942,-65535,-178139,-12.84767483,15567,1.122717395,128,-230961,-16.6572835,18363.28125,11904,128
-0.069741615,-967,-177863,-12.82776926,16380,1.181352279,128,-230548,-16.62749727,18382.8125,12544,128
-5.77E-04,-8,-177488,-12.80072365,15552,1.121635571,128,-229873,-16.57881517,18402.34375,13184,128
-0.142079609,-1970,-177316,-12.78831873,224,0.016155245,128,-229144,-16.5262385,18421.875,13824,128
-4.7086769,-65288,-176912,-12.75918159,1267,0.091378104,128,-228221,-16.45967024,18441.40625,14464,128
-4.599628997,-63776,-176412,-12.72312078,3968,0.286178623,128,-226399,-16.32826463,18460.9375,15104,128
-4.578930089,-63489,-176209,-12.70848008,3455,0.249180227,128,-225937,-16.29494444,18480.46875,15744,128
-4.726274577,-65532,-176988,-12.76466283,987,0.071184048,128,-227437,-16.40312688,18500,16384,128
-4.712715711,-65344,-177728,-12.81803284,16319,1.17695286,128,-229978,-16.58638794,18519.53125,17024,128
-0.156720299,-2173,-178525,-12.87551378,16321,1.177097103,128,-231739,-16.71339413,18539.0625,17664,128
-0.044859653,-622,-178794,-12.8949145,16326,1.177457711,128,-232354,-16.75774893,18558.59375,18304,128
-0.210090305,-2913,-179024,-12.91150247,15320,1.104903353,128,-232634,-16.77794299,18578.125,18944,128
-0.292813813,-4060,-179164,-12.9215995,15319,1.104831231,128,-232811,-16.79070852,18597.65625,19584,128
-0.143233555,-1986,-179342,-12.93443715,14791,1.066751011,128,-233001,-16.80441163,18617.1875,20224,128
-0.120226755,-1667,-179847,-12.97085857,14351,1.035017495,128,-233333,-16.82835601,18636.71875,20864,128
-0.036709909,-509,-180597,-13.02494979,16261,1.172769806,128,-234083,-16.88244723,18656.25,21504,128
-4.721658793,-65468,-180924,-13.04853356,16257,1.172481319,128,-234461,-16.9097092,18675.78125,22144,128
-0.082867751,-1149,-181374,-13.0809883,15232,1.09855665,128,-234878,-16.93978392,18695.3125,22784,128
-0.036926274,-512,-181442,-13.08589257,16377,1.181135914,128,-234833,-16.93653845,18714.84375,23424,128
-5.05E-04,-7,-181231,-13.0706749,16352,1.179332874,128,-234654,-16.92362868,18734.375,24064,128
-0.028415922,-394,-181146,-13.06454457,16336,1.178178928,128,-234539,-16.91533469,18753.90625,24704,128
-0.046085721,-639,-180979,-13.05250025,15389,1.109879745,128,-234403,-16.90552615,18773.4375,25344,128
-0.071761021,-995,-180899,-13.04673052,15361,1.10786034,128,-234129,-16.88576482,18792.96875,25984,128
-0.016227366,-225,-180929,-13.04889417,15872,1.144714492,128,-233982,-16.87516294,18812.5,26624,128
-4.690213763,-65032,-180744,-13.03555167,16060,1.158273358,128,-233807,-16.86254166,18832.03125,27264,128
-0.006995798,-97,-180816,-13.04074443,15872,1.144714492,128,-233912,-16.87011443,18851.5625,27904,128
-7.21E-05,-1,-180610,-13.02588737,16381,1.181424401,128,-233735,-16.8573489,18871.09375,28544,128
-0.028848652,-400,-180580,-13.02372372,16380,1.181352279,128,-233580,-16.84617005,18890.625,29184,128
-0.017381313,-241,-180626,-13.02704132,16256,1.172409197,128,-233695,-16.85446404,18910.15625,29824,128
-0.008221866,-114,-180552,-13.02170432,15360,1.107788218,128,-233469,-16.83816455,18929.6875,30464,128
-0.004615784,-64,-180398,-13.01059759,15475,1.116082205,128,-233229,-16.82085536,18949.21875,31104,128
-4.65956207,-64607,-180441,-13.01369882,15367,1.108293069,128,-233209,-16.81941293,18968.75,31744,128
-0.006995798,-97,-180329,-13.0056212,14814,1.068409809,128,-232994,-16.80390677,18988.28125,32384,128
-1.44E-04,-2,-180354,-13.00742424,15880,1.145291465,128,-232936,-16.79972372,19007.8125,33024,128
-0.129891053,-1801,-179753,-12.96407914,16271,1.173491022,128,-231797,-16.71757719,19027.34375,33664,128
-0.079117427,-1097,-179401,-12.93869232,15720,1.133752004,128,-231063,-16.66463991,19046.875,34304,128
-4.611529066,-63941,-179141,-12.9199407,15672,1.130290166,128,-231117,-16.66853448,19066.40625,34944,128
-0.258628161,-3586,-179828,-12.96948826,16272,1.173563143,128,-232304,-16.75414285,19085.9375,35584,128
-0.277235541,-3844,-180092,-12.98852837,16383,1.181568644,128,-232472,-16.76625928,19105.46875,36224,128
-4.715167846,-65378,-180074,-12.98723018,16128,1.163177629,128,-232631,-16.77772662,19125,36864,128
-0.05315364,-737,-180964,-13.05141843,15375,1.108870042,128,-233010,-16.80506072,19144.53125,37504,128
-4.588017415,-63615,-174203,-12.5638041,522,0.03764749,128,-214502,-15.47023362,19164.0625,38144,128
-5.77E-04,-8,-179928,-12.97670042,15,0.001081824,128,-228337,-16.46803635,19183.59375,38784,128
-0.015001299,-208,-179891,-12.97403192,16142,1.164187332,128,-231703,-16.71079775,19203.125,39424,128
-7.21E-05,-1,-180259,-13.00057268,16257,1.172481319,128,-231797,-16.71757719,19222.65625,40064,128
-0.263099702,-3648,-179891,-12.97403192,15996,1.153657574,128,-231692,-16.71000441,19242.1875,40704,128
-0.295410191,-4096,-179936,-12.9772774,16263,1.172914049,128,-231521,-16.69767162,19261.71875,41344,128
-0.139194744,-1930,-179882,-12.97338283,15360,1.107788218,128,-231286,-16.68072303,19281.25,41984,128
-4.708172048,-65281,-179509,-12.94648146,16223,1.170029184,128,-230565,-16.62872334,19300.78125,42624,128
-0.129241959,-1792,-179427,-12.94056749,15484,1.1167313,128,-230308,-16.61018808,19320.3125,43264,128
-4.634031014,-64253,-178826,-12.89722239,60,0.004327298,128,-229315,-16.5385713,19339.84375,43904,128
-0.003750325,-52,-178228,-12.85409365,1279,0.092243563,128,-228137,-16.45361202,19359.375,44544,128
-4.712282981,-65338,-177978,-12.83606325,3526,0.254300863,128,-226866,-16.36194543,19378.90625,45184,128
-0.016732218,-232,-177178,-12.77836594,4031,0.290722286,128,-224861,-16.21734157,19398.4375,45824,128
-4.685165249,-64962,-177488,-12.80072365,6655,0.47996944,128,-224984,-16.22621253,19417.96875,46464,128
-0.009015204,-125,-179285,-12.93032622,16130,1.163321872,128,-230289,-16.60881777,19476.5625,48384,128
-0.110850943,-1537,-179240,-12.92708074,16341,1.178539536,128,-230415,-16.61790509,19496.09375,49024,128
-0.073996791,-1026,-179306,-12.93184077,16371,1.180703185,128,-230406,-16.617256,19515.625,49664,128
-0.073708305,-1022,-179176,-12.92246496,16383,1.181568644,128,-229911,-16.58155579,19535.15625,50304,128
-0.00576973,-80,-179201,-12.924268,15361,1.10786034,128,-230177,-16.60074015,19554.6875,50944,128
-0.001153946,-16,-178945,-12.90580486,15486,1.116875543,128,-229769,-16.57131452,19574.21875,51584,128
-4.698363507,-65145,-179236,-12.92679226,16252,1.172120711,128,-229906,-16.58119519,19593.75,52224,128
-0.008582474,-119,-179084,-12.91582977,15363,1.108004583,128,-229567,-16.55674595,19613.28125,52864,128
-4.725553361,-65522,-179216,-12.92534982,16352,1.179332874,128,-229173,-16.52833003,19632.8125,53504,128
-0.064693101,-897,-179075,-12.91518067,1023,0.073780426,128,-228678,-16.49262983,19652.34375,54144,128
-4.645281988,-64409,-179207,-12.92470073,1023,0.073780426,128,-228596,-16.48671585,19671.875,54784,128
-0.002091527,-29,-179081,-12.9156134,0,0,128,-228392,-16.47200304,19691.40625,55424,128
-4.726563063,-65536,-178908,-12.90313636,355,0.025603178,128,-228106,-16.45137625,19710.9375,56064,128
-9.38E-04,-13,-179239,-12.92700862,127,0.009159447,128,-228422,-16.47416669,19730.46875,56704,128
-4.690790736,-65040,-179089,-12.91619038,1024,0.073852548,128,-228066,-16.44849139,19750,57344,128
-0.028848652,-400,-179080,-12.91554128,227,0.01637161,128,-227896,-16.43623071,19769.53125,57984,128
-4.726346699,-65533,-179253,-12.92801832,32,0.002307892,128,-228339,-16.46818059,19789.0625,58624,128
-4.726346699,-65533,-178947,-12.9059491,1038,0.074862251,128,-227733,-16.42447489,19808.59375,59264,128
-4.652854759,-64514,-179238,-12.9269365,1151,0.083011995,128,-228137,-16.45361202,19828.125,59904,128
-4.711994494,-65334,-178971,-12.90768002,1536,0.110778822,128,-227755,-16.42606156,19847.65625,60544,128
-4.726130334,-65530,-179132,-12.91929161,496,0.035772328,128,-227943,-16.43962043,19867.1875,61184,128
-4.614702417,-63985,-178989,-12.90897821,1024,0.073852548,128,-227694,-16.42166214,19886.71875,61824,128
-4.719423022,-65437,-178613,-12.88186048,2035,0.146767515,128,-226940,-16.36728243,19906.25,62464,128
-4.587296198,-63605,-178337,-12.86195491,3136,0.226173428,128,-225872,-16.29025653,19925.78125,63104,128
-4.596311402,-63730,-178369,-12.8642628,4032,0.290794407,128,-226490,-16.3348277,19945.3125,63744,128
-4.629703716,-64193,-179124,-12.91871463,2048,0.147705096,128,-227312,-16.39411168,19964.84375,64384,128
-4.652710516,-64512,-179071,-12.91489219,2072,0.149436015,128,-227368,-16.39815049,19984.375,65024,128
-4.717403617,-65409,-179578,-12.95145785,780,0.05625487,128,-228049,-16.44726532,20003.90625,128,128
-4.667711814,-64720,-176759,-12.74814698,508,0.036637787,128,-219799,-15.85226188,20023.4375,768,128
-4.283375655,-59391,-174765,-12.60433645,1793,0.12931408,128,-210936,-15.21304789,20042.96875,1408,128
-4.726274577,-65532,-179947,-12.97807073,6080,0.438499503,128,-226339,-16.32393734,20062.5,2048,128
-4.652999002,-64516,-179094,-12.91655098,3184,0.229635266,128,-226866,-16.36194543,20082.03125,2688,128
-4.717403617,-65409,-178914,-12.90356909,3064,0.220980671,128,-226771,-16.35509388,20101.5625,3328,128
-4.615567877,-63997,-178779,-12.89383267,3040,0.219249751,128,-226524,-16.33727984,20121.09375,3968,128
-4.601936889,-63808,-178476,-12.87197982,4093,0.295193827,128,-226119,-16.30807058,20140.625,4608,128
-4.685093127,-64961,-178657,-12.88503383,4063,0.293030178,128,-225925,-16.29407898,20160.15625,5248,128
-4.726563063,-65536,-178266,-12.85683428,3845,0.277307663,128,-225099,-16.23450652,20179.6875,5888,128
-4.577127049,-63464,-178044,-12.84082327,7692,0.554759569,128,-224484,-16.19015171,20199.21875,6528,128
-4.567606994,-63332,-177859,-12.82748077,8160,0.588512491,128,-223937,-16.15070118,20218.75,7168,128
-4.431297115,-61442,-177229,-12.78204415,7327,0.528435174,128,-222083,-16.01698768,20238.28125,7808,128
-4.439302616,-61553,-176867,-12.75593612,8039,0.579785774,128,-221009,-15.93952905,20257.8125,8448,128
-4.638935284,-64321,-176706,-12.74432453,16333,1.177962563,128,-219959,-15.86380134,20277.34375,9088,128
-4.588089536,-63616,-176776,-12.74937305,16255,1.172337076,128,-220399,-15.89553486,20296.875,9728,128
-4.467718538,-61947,-177595,-12.80844066,6531,0.471026358,128,-222333,-16.03501809,20316.40625,10368,128
-4.657614786,-64580,-178487,-12.87277316,7704,0.555625028,128,-224577,-16.19685903,20335.9375,11008,128
-4.68963679,-65024,-178432,-12.86880647,7170,0.517112078,128,-224906,-16.22058704,20355.46875,11648,128
-4.69764229,-65135,-179024,-12.91150247,4027,0.290433799,128,-225351,-16.25268117,20375,12288,128
-4.58736832,-63606,-178742,-12.89116417,7439,0.536512796,128,-224735,-16.20825424,20394.53125,12928,128
-4.643551069,-64385,-179166,-12.92174374,7168,0.516967835,128,-225246,-16.2451084,20414.0625,13568,128
-4.671173653,-64768,-179538,-12.94857299,4083,0.29447261,128,-225692,-16.27727464,20433.59375,14208,128
-4.690213763,-65032,-179782,-12.96617066,3975,0.286683474,128,-225779,-16.28354922,20453.125,14848,128
-0.002091527,-29,-180237,-12.99898601,3120,0.225019482,128,-226103,-16.30691663,20472.65625,15488,128
-4.597321105,-63744,-180346,-13.00684726,3104,0.223865536,128,-226035,-16.30201236,20492.1875,16128,128
-4.671173653,-64768,-180746,-13.03569591,3040,0.219249751,128,-226294,-16.32069186,20511.71875,16768,128
-4.726563063,-65536,-181189,-13.0676458,2860,0.206267858,128,-226823,-16.3588442,20531.25,17408,128
-4.65379234,-64527,-181150,-13.06483305,3613,0.260575445,128,-226702,-16.35011749,20550.78125,18048,128
-0.009231568,-128,-181324,-13.07738222,3584,0.258483918,128,-226537,-16.33821742,20570.3125,18688,128
-4.724471536,-65507,-181219,-13.06980945,3790,0.273340973,128,-226610,-16.3434823,20589.84375,19328,128
-4.641315298,-64354,-180957,-13.05091358,4040,0.29137138,128,-226466,-16.33309678,20609.375,19968,128
-4.722163644,-65475,-181075,-13.05942393,4033,0.290866529,128,-226359,-16.32537977,20628.90625,20608,128
-4.652494151,-64509,-180697,-13.03216195,3202,0.230933455,128,-225746,-16.28116921,20648.4375,21248,128
-4.656244475,-64561,-180839,-13.04240323,3872,0.279254947,128,-225971,-16.29739658,20667.96875,21888,128
-4.592993807,-63684,-180516,-13.01910794,4094,0.295265948,128,-225647,-16.27402917,20687.5,22528,128
-4.587945293,-63614,-180374,-13.00886667,3847,0.277451906,128,-225162,-16.23905018,20707.03125,23168,128
-4.581021617,-63518,-180114,-12.99011505,7172,0.517256322,128,-224376,-16.18236258,20726.5625,23808,128
-4.722019401,-65473,-179645,-12.95629,7811,0.563342042,128,-223420,-16.1134143,20746.09375,24448,128
-4.717403617,-65409,-179621,-12.95455908,7792,0.561971731,128,-224140,-16.16534187,20765.625,25088,128
-4.717908468,-65416,-180218,-12.99761569,6656,0.480041561,128,-224805,-16.21330276,20785.15625,25728,128
-4.431441358,-61444,-180162,-12.99357688,6428,0.46359783,128,-224940,-16.22303918,20804.6875,26368,128
-4.698724115,-65150,-181147,-13.06461669,4039,0.291299259,128,-225846,-16.28838137,20824.21875,27008,128
-4.436706237,-61517,-178466,-12.8712586,14,0.001009703,128,-219134,-15.804301,20843.75,27648,128
-4.154133696,-57599,-177868,-12.82812987,6136,0.442538314,128,-214542,-15.47311848,20863.28125,28288,128
-4.69540652,-65104,-180762,-13.03684986,12320,0.888538467,128,-223892,-16.14745571,20882.8125,28928,128
-4.726130334,-65530,-179954,-12.97857558,7123,0.513722362,128,-224553,-16.19512811,20902.34375,29568,128
-4.723173347,-65489,-179744,-12.96343004,8080,0.582742761,128,-224187,-16.16873159,20921.875,30208,128
-4.708099926,-65280,-179869,-12.97244525,7166,0.516823592,128,-224320,-16.17832377,20941.40625,30848,128
-4.689925276,-65028,-179652,-12.95679485,7695,0.554975933,128,-223481,-16.11781372,20960.9375,31488,128
-4.717692103,-65413,-179475,-12.94402932,7967,0.574593016,128,-223110,-16.0910566,20980.46875,32128,128
-4.718485441,-65424,-179292,-12.93083107,6385,0.4604966,128,-222801,-16.06877101,21000,32768,128
-4.652782637,-64513,-179230,-12.92635953,7163,0.516607227,128,-222036,-16.01359797,21019.53125,33408,128
-4.579002211,-63490,-178504,-12.87399922,15360,1.107788218,128,-220579,-15.90851675,21039.0625,34048,128
-4.579074333,-63491,-178687,-12.88719748,14840,1.070284971,128,-219857,-15.85644494,21058.59375,34688,128
-4.58116586,-63520,-178240,-12.85495911,15877,1.1450751,128,-218419,-15.75273404,21078.125,35328,128
-4.717403617,-65409,-177901,-12.83050988,15360,1.107788218,128,-217563,-15.69099792,21097.65625,35968,128
-4.57539613,-63440,-177865,-12.8279135,15880,1.145291465,128,-218024,-15.72424599,21117.1875,36608,128
-4.725697604,-65524,-179029,-12.91186308,15072,1.087017189,128,-221280,-15.95907402,21136.71875,37248,128
-4.652782637,-64513,-179300,-12.93140804,7966,0.574520895,128,-222776,-16.06696797,21156.25,37888,128
-4.681559167,-64912,-179648,-12.95650637,6145,0.443187409,128,-223478,-16.11759736,21175.78125,38528,128
-4.726202455,-65531,-179582,-12.95174634,8184,0.59024341,128,-223454,-16.11586644,21195.3125,39168,128
-4.68963679,-65024,-179696,-12.9599682,8190,0.59067614,128,-223684,-16.13245441,21214.84375,39808,128
-4.659778435,-64610,-179641,-12.95600151,7951,0.57343907,128,-223312,-16.10562517,21234.375,40448,128
-4.711633886,-65329,-179748,-12.96371853,8185,0.590315532,128,-223621,-16.12791075,21253.90625,41088,128
-4.721153941,-65461,-179538,-12.94857299,7951,0.57343907,128,-223379,-16.11045731,21273.4375,41728,128
-4.722019401,-65473,-179839,-12.9702816,8188,0.590531896,128,-223338,-16.10750033,21292.96875,42368,128
-4.654513556,-64537,-179718,-12.96155488,6175,0.445351058,128,-223322,-16.10634638,21312.5,43008,128
-4.709253873,-65296,-179547,-12.94922208,8079,0.582670639,128,-223256,-16.10158635,21332.03125,43648,128
-4.689708911,-65025,-179790,-12.96674764,7936,0.572357246,128,-223469,-16.11694826,21351.5625,44288,128
-4.724038806,-65501,-179587,-12.95210695,7169,0.517039957,128,-222968,-16.08081532,21371.09375,44928,128
-4.723101225,-65488,-179529,-12.94792389,8089,0.583391855,128,-222701,-16.06155885,21390.625,45568,128
-4.689564668,-65023,-179608,-12.9536215,8179,0.589882802,128,-222188,-16.02456045,21410.15625,46208,128
-4.719495144,-65438,-179766,-12.96501672,8128,0.586204599,128,-222256,-16.02946473,21429.6875,46848,128
-4.68963679,-65024,-179681,-12.95888638,7231,0.521511498,128,-222123,-16.01987255,21449.21875,47488,128
-4.66309603,-64656,-179646,-12.95636212,7288,0.525622431,128,-222126,-16.02008891,21468.75,48128,128
-4.717331495,-65408,-179471,-12.94374084,7180,0.517833295,128,-222054,-16.01489616,21488.28125,48768,128
-4.652782637,-64513,-179755,-12.96422338,7171,0.5171842,128,-222362,-16.03710962,21507.8125,49408,128
-4.710191454,-65309,-179549,-12.94936633,7431,0.535935823,128,-221945,-16.0070349,21527.34375,50048,128
-4.721730914,-65469,-179412,-12.93948566,7330,0.528651539,128,-222023,-16.01266039,21546.875,50688,128
-4.606552673,-63872,-179054,-12.91366612,7984,0.575819084,128,-221327,-15.96246373,21566.40625,51328,128
-4.712210859,-65337,-178759,-12.89239024,16121,1.162672777,128,-220274,-15.88651966,21585.9375,51968,128
-4.615784242,-64000,-178578,-12.87933622,16355,1.179549239,128,-220710,-15.91796469,21605.46875,52608,128
-4.651628691,-64497,-179278,-12.92982136,8161,0.588584612,128,-221582,-15.98085475,21625,53248,128
-4.652782637,-64513,-179429,-12.94071173,8188,0.590531896,128,-221617,-15.983379,21644.53125,53888,128
-4.661725719,-64637,-179321,-12.93292259,8184,0.59024341,128,-221582,-15.98085475,21664.0625,54528,128
-4.4385814,-61543,-179327,-12.93335532,7683,0.554110474,128,-220192,-15.88060568,21683.59375,55168,128
-4.570131251,-63367,-173373,-12.50394315,24670,1.779240582,128,-204074,-14.71814927,21703.125,55808,128
-4.575468251,-63441,-179854,-12.97136342,15351,1.107139123,128,-219132,-15.80415676,21722.65625,56448,128
-4.662446935,-64647,-179367,-12.93624019,14399,1.038479333,128,-221082,-15.94479393,21742.1875,57088,128
-4.63785346,-64306,-179182,-12.92289769,15385,1.109591259,128,-220793,-15.92395078,21761.71875,57728,128
-4.661942084,-64640,-178959,-12.90681456,15463,1.115216746,128,-220336,-15.8909912,21781.25,58368,128
-4.585853766,-63585,-178905,-12.90292,15458,1.114856138,128,-219542,-15.83372662,21800.78125,59008,128
-4.616072728,-64004,-178698,-12.88799082,16256,1.172409197,128,-219062,-15.79910824,21820.3125,59648,128
-4.612466647,-63954,-178452,-12.8702489,15591,1.124448314,128,-218650,-15.76939413,21839.84375,60288,128
-4.653720218,-64526,-178169,-12.84983848,15363,1.108004583,128,-217969,-15.7202793,21859.375,60928,128
-4.725409117,-65520,-178159,-12.84911726,15903,1.146950262,128,-217584,-15.69251248,21878.90625,61568,128
-4.726490942,-65535,-177331,-12.78940055,16351,1.179260752,128,-215864,-15.56846327,21898.4375,62208,128
-4.458919699,-61825,-176946,-12.76163373,15615,1.126179233,128,-214633,-15.47968155,21917.96875,62848,128
-4.708172048,-65281,-176546,-12.73278507,15584,1.123943463,128,-213204,-15.37661974,21937.5,63488,128
-4.431224994,-61441,-176472,-12.72744807,16356,1.17962136,128,-213409,-15.39140468,21957.03125,64128,128
-4.722235766,-65476,-177284,-12.78601084,16355,1.179549239,128,-215229,-15.52266604,21976.5625,64768,128
-4.579074333,-63491,-178362,-12.86375795,15900,1.146733898,128,-218129,-15.73181876,21996.09375,65408,128
-4.652782637,-64513,-178507,-12.87421559,15335,1.105985177,128,-218523,-15.76023468,22015.625,512,128
-4.595085334,-63713,-178597,-12.88070653,15260,1.100576055,128,-218643,-15.76888928,22035.15625,1152,128
-4.717403617,-65409,-178305,-12.85964702,16157,1.165269156,128,-218287,-15.74321398,22054.6875,1792,128
-4.59710474,-63741,-178459,-12.87075375,15357,1.107571853,128,-218371,-15.7492722,22074.21875,2432,128
-4.59623928,-63729,-178611,-12.88171624,15352,1.107211245,128,-218545,-15.76182136,22093.75,3072,128
-4.578930089,-63489,-178522,-12.87529741,15967,1.151566047,128,-218491,-15.75792679,22113.28125,3712,128
-4.59623928,-63729,-178379,-12.86498402,16263,1.172914049,128,-218172,-15.73491999,22132.8125,4352,128
-4.585853766,-63585,-178530,-12.87587439,15456,1.114711894,128,-218044,-15.72568842,22152.34375,4992,128
-4.661869962,-64639,-178204,-12.85236273,15871,1.14464237,128,-217634,-15.69611856,22171.875,5632,128
-4.663817246,-64666,-178588,-12.88005744,15397,1.110456718,128,-217947,-15.71869263,22191.40625,6272,128
-4.688554965,-65009,-178540,-12.8765956,16339,1.178395293,128,-217606,-15.69409915,22210.9375,6912,128
-4.66086026,-64625,-178292,-12.85870944,16257,1.172481319,128,-217327,-15.67397722,22230.46875,7552,128
-4.578930089,-63489,-178416,-12.86765252,16123,1.162817021,128,-217531,-15.68869003,22250,8192,128
-4.58693559,-63600,-178572,-12.87890349,16244,1.171543738,128,-217532,-15.68876215,22269.53125,8832,128
-4.578930089,-63489,-178248,-12.85553609,16263,1.172914049,128,-217177,-15.66315897,22289.0625,9472,128
-4.690285884,-65033,-178304,-12.8595749,15902,1.146878141,128,-217317,-15.673256,22308.59375,10112,128
-4.725409117,-65520,-178156,-12.8489009,15487,1.116947665,128,-216962,-15.64765282,22328.125,10752,128
-4.578930089,-63489,-178086,-12.84385238,16131,1.163393994,128,-217014,-15.65140315,22347.65625,11392,128
-4.705647791,-65246,-177882,-12.82913957,14836,1.069996485,128,-216587,-15.62060721,22367.1875,12032,128
-4.560394831,-63232,-177848,-12.82668743,15612,1.125962868,128,-216764,-15.63337274,22386.71875,12672,128
-4.708099926,-65280,-177912,-12.83130322,14818,1.068698295,128,-216830,-15.63813277,22406.25,13312,128
-4.560394831,-63232,-177894,-12.83000503,14460,1.042878752,128,-217000,-15.65039344,22425.78125,13952,128
-4.725481239,-65521,-177842,-12.8262547,15224,1.097979676,128,-215809,-15.56449658,22445.3125,14592,128
-4.697858655,-65138,-177272,-12.78514538,15487,1.116947665,128,-214689,-15.48372036,22464.84375,15232,128
-4.508467258,-62512,-177104,-12.77302894,15360,1.107788218,128,-214907,-15.49944288,22484.375,15872,128
-4.71047994,-65313,-177957,-12.83454869,15303,1.103677285,128,-216185,-15.59161432,22503.90625,16512,128
-4.440456562,-61569,-178106,-12.84529481,15296,1.103172434,128,-216107,-15.58598883,22523.4375,17152,128
-4.667711814,-64720,-178398,-12.86635433,14735,1.0627122,128,-216769,-15.63373335,22542.96875,17792,128
-4.722524252,-65480,-175599,-12.66448589,33,0.002380014,128,-208943,-15.06930948,22562.5,18432,128
-4.175048968,-57889,-172822,-12.46420413,28927,2.086262356,128,-199146,-14.36273388,22582.03125,19072,128
-4.712571467,-65342,-177962,-12.8349093,26,0.001875162,128,-212910,-15.35541598,22601.5625,19712,128
-4.717403617,-65409,-178017,-12.83887599,16253,1.172192832,128,-216057,-15.58238275,22621.09375,20352,128
-4.433388642,-61471,-177855,-12.82719229,16377,1.181135914,128,-216071,-15.58339245,22640.625,20992,128
-4.574819157,-63432,-177702,-12.81615768,15610,1.125818625,128,-215715,-15.55771715,22660.15625,21632,128
-4.578857968,-63488,-177599,-12.80872915,16241,1.171327373,128,-215209,-15.52122361,22679.6875,22272,128
-4.725481239,-65521,-177377,-12.79271815,16383,1.181568644,128,-214797,-15.4915095,22699.21875,22912,128
-4.560971804,-63240,-177416,-12.79553089,15487,1.116947665,128,-214676,-15.48278278,22718.75,23552,128
-4.467069443,-61938,-177144,-12.77591381,16176,1.166639467,128,-214491,-15.46944028,22738.28125,24192,128
-4.435840778,-61505,-176718,-12.74518999,16129,1.163249751,128,-213047,-15.36529665,22757.8125,24832,128
-4.459713037,-61836,-176524,-12.7311984,1408,0.101547253,128,-211568,-15.25862876,22777.34375,25472,128
-4.724904266,-65513,-175549,-12.66087981,3902,0.281418595,128,-209102,-15.08077682,22796.875,26112,128
-4.688627087,-65010,-175572,-12.66253861,7361,0.530887309,128,-208481,-15.03598929,22816.40625,26752,128
-4.725481239,-65521,-175642,-12.66758712,7169,0.517039957,128,-208933,-15.06858827,22835.9375,27392,128
-4.439591103,-61557,-176502,-12.72961172,480,0.034618382,128,-211125,-15.22667888,22855.46875,28032,128
-4.719711509,-65441,-177257,-12.78406355,123,0.00887096,128,-213369,-15.38851981,22875,28672,128
-4.717259373,-65407,-177569,-12.8065655,16377,1.181135914,128,-214042,-15.43705767,22894.53125,29312,128
-4.467069443,-61938,-177554,-12.80548368,16352,1.179332874,128,-214080,-15.43979829,22914.0625,29952,128
-4.440312319,-61567,-177979,-12.83613537,16366,1.180342577,128,-214092,-15.44066375,22933.59375,30592,128
-4.562991209,-63268,-177703,-12.8162298,15615,1.126179233,128,-213761,-15.41679149,22953.125,31232,128
-4.719423022,-65437,-177706,-12.81644616,16371,1.180703185,128,-213733,-15.41477208,22972.65625,31872,128
-4.433460764,-61472,-177717,-12.8172395,16383,1.181568644,128,-213573,-15.40323262,22992.1875,32512,128
-4.725625482,-65523,-177611,-12.80959461,15457,1.114784016,128,-213476,-15.39623682,23011.71875,33152,128
-4.431224994,-61441,-177806,-12.82365833,15457,1.114784016,128,-213919,-15.42818671,23031.25,33792,128
-4.447235995,-61663,-177885,-12.82935593,15392,1.11009611,128,-213977,-15.43236976,23050.78125,34432,128
-4.54222018,-62980,-178041,-12.84060691,16120,1.162600656,128,-213804,-15.41989272,23070.3125,35072,128
-4.726563063,-65536,-177862,-12.82769714,16320,1.177024982,128,-213613,-15.40611749,23089.84375,35712,128
-4.551740235,-63112,-177974,-12.83577476,16383,1.181568644,128,-213432,-15.39306347,23109.375,36352,128
-4.569626399,-63360,-178046,-12.84096752,16352,1.179332874,128,-213523,-15.39962654,23128.90625,36992,128
-4.722091522,-65474,-178121,-12.84637664,16379,1.181280158,128,-213470,-15.39580409,23148.4375,37632,128
-4.577127049,-63464,-178152,-12.84861241,15360,1.107788218,128,-213711,-15.41318541,23167.96875,38272,128
-4.72598609,-65528,-177982,-12.83635173,15361,1.10786034,128,-213379,-15.38924103,23187.5,38912,128
-4.692016803,-65057,-178215,-12.85315607,15480,1.116442813,128,-213952,-15.43056672,23207.03125,39552,128
-4.458703334,-61822,-178046,-12.84096752,15390,1.109951867,128,-213732,-15.41469996,23226.5625,40192,128
-4.504933298,-62463,-178024,-12.83938084,15361,1.10786034,128,-213414,-15.39176528,23246.09375,40832,128
-4.7086769,-65288,-177926,-12.83231292,16095,1.160797615,128,-213282,-15.38224523,23265.625,41472,128
-4.726202455,-65531,-178178,-12.85048757,15886,1.145724195,128,-213702,-15.41253631,23285.15625,42112,128
-4.726130334,-65530,-178028,-12.83966933,15902,1.146878141,128,-213442,-15.39378469,23304.6875,42752,128
-4.435840778,-61505,-178130,-12.84702573,15998,1.153801817,128,-213612,-15.40604537,23324.21875,43392,128
-4.719567265,-65439,-177847,-12.82661531,15873,1.144786614,128,-213347,-15.38693313,23343.75,44032,128
-4.435840778,-61505,-177729,-12.81810496,31,0.00223577,128,-212929,-15.35678629,23363.28125,44672,128
-4.724327293,-65505,-177482,-12.80029092,192,0.013847353,128,-212026,-15.29166046,23382.8125,45312,128
-4.726563063,-65536,-177392,-12.79379997,127,0.009159447,128,-212635,-15.33558253,23402.34375,45952,128
-4.576622197,-63457,-178171,-12.84998272,15875,1.144930857,128,-213516,-15.39912169,23421.875,46592,128
-4.724543658,-65508,-178147,-12.8482518,15487,1.116947665,128,-213669,-15.4101563,23441.40625,47232,128
-4.596816253,-63737,-179142,-12.92001282,15262,1.100720298,128,-214620,-15.47874397,23460.9375,47872,128
-4.431657723,-61447,-177957,-12.83454869,17415,1.255998165,128,-211881,-15.28120283,23480.46875,48512,128
-4.135886924,-57346,-172294,-12.42612391,7,5.05E-04,128,-196049,-14.1393732,23500,49152,128
-4.652494151,-64509,-179029,-12.91186308,575,0.041469937,128,-212365,-15.31610969,23519.53125,49792,128
-4.583545874,-63553,-178890,-12.90183817,16254,1.172264954,128,-214178,-15.44686621,23539.0625,50432,128
-4.698363507,-65145,-178632,-12.88323079,15330,1.105624569,128,-214210,-15.4491741,23558.59375,51072,128
-4.607706619,-63888,-178591,-12.8802738,16352,1.179332874,128,-214167,-15.44607287,23578.125,51712,128
-4.581310103,-63522,-178506,-12.87414347,15361,1.10786034,128,-213566,-15.40272777,23597.65625,52352,128
-4.615639998,-63998,-178590,-12.88020168,15880,1.145291465,128,-213494,-15.39753501,23617.1875,52992,128
-4.576838562,-63460,-177999,-12.8375778,123,0.00887096,128,-212607,-15.33356313,23636.71875,53632,128
-4.432234696,-61455,-177823,-12.82488439,1010,0.072842845,128,-212026,-15.29166046,23656.25,54272,128
-4.50500542,-62464,-177746,-12.81933103,1280,0.092315685,128,-211694,-15.26771608,23675.78125,54912,128
-4.583762238,-63556,-176970,-12.76336464,3598,0.25949362,128,-209871,-15.13623835,23695.3125,55552,128
-4.431297115,-61442,-176644,-12.73985299,7680,0.553894109,128,-208752,-15.05553425,23714.84375,56192,128
-4.583473752,-63552,-175796,-12.67869385,8063,0.581516693,128,-207079,-14.93487477,23734.375,56832,128
-4.689925276,-65028,-176139,-12.70343157,7542,0.543941324,128,-207500,-14.96523797,23753.90625,57472,128
-4.463535483,-61889,-177070,-12.77057681,4095,0.29533807,128,-210547,-15.18499257,23773.4375,58112,128
-4.691511952,-65050,-177818,-12.82452379,28,0.002019406,128,-212164,-15.30161325,23792.96875,58752,128
-4.569626399,-63360,-178029,-12.83974145,16349,1.179116509,128,-213091,-15.36847,23812.5,59392,128
-4.578713724,-63486,-178046,-12.84096752,16383,1.181568644,128,-213250,-15.37993734,23832.03125,60032,128
-4.568616696,-63346,-178034,-12.84010206,15984,1.152792114,128,-213402,-15.39089982,23851.5625,60672,128
-4.503923595,-62449,-178117,-12.84608815,15968,1.151638168,128,-213462,-15.39522712,23871.09375,61312,128
-4.502986014,-62436,-178096,-12.8445736,15996,1.153657574,128,-213384,-15.38960163,23890.625,61952,128
-4.576694319,-63458,-178012,-12.83851538,16127,1.163105507,128,-213232,-15.37863915,23910.15625,62592,128
-4.498081743,-62368,-177727,-12.81796072,16189,1.167577048,128,-213195,-15.37597065,23929.6875,63232,128
-4.717908468,-65416,-177959,-12.83469294,16381,1.181424401,128,-213437,-15.39342408,23949.21875,63872,128
-4.577776143,-63473,-177814,-12.8242353,16000,1.15394606,128,-213360,-15.38787072,23968.75,64512,128
-4.445000225,-61632,-177854,-12.82712016,16352,1.179332874,128,-213140,-15.37200396,23988.28125,65152,128
-4.570203372,-63368,-177823,-12.82488439,15873,1.144786614,128,-213407,-15.39126043,24007.8125,256,128
-4.708604778,-65287,-177735,-12.81853769,15872,1.144714492,128,-213456,-15.39479439,24027.34375,896,128
-4.560394831,-63232,-177753,-12.81983588,15487,1.116947665,128,-213574,-15.40330474,24046.875,1536,128
-4.570347616,-63370,-177836,-12.82582197,15360,1.107788218,128,-213832,-15.42191212,24066.40625,2176,128
-4.432306818,-61456,-177866,-12.82798562,16131,1.163393994,128,-213913,-15.42775398,24085.9375,2816,128
-4.685021005,-64960,-177466,-12.79913697,15695,1.131948964,128,-213684,-15.41123812,24105.46875,3456,128
-4.560466952,-63233,-177977,-12.83599112,16323,1.177241347,128,-214141,-15.44419771,24125,4096,128
-4.48199862,-62145,-177814,-12.8242353,15384,1.109519137,128,-213991,-15.43337946,24144.53125,4736,128
-4.433532886,-61473,-177697,-12.81579707,16152,1.164908548,128,-213199,-15.37625913,24164.0625,5376,128
-4.726563063,-65536,-177782,-12.82192741,15993,1.153441209,128,-213261,-15.38073067,24183.59375,6016,128
-4.433532886,-61473,-177704,-12.81630192,9,6.49E-04,128,-212917,-15.35592083,24203.125,6656,128
-4.440528684,-61570,-177567,-12.80642126,16377,1.181135914,128,-212946,-15.35801236,24222.65625,7296,128
-4.54308564,-62992,-177696,-12.81572495,120,0.008654595,128,-212879,-15.35318021,24242.1875,7936,128
-4.569626399,-63360,-177669,-12.81377766,0,0,128,-212206,-15.30464236,24261.71875,8576,128
-4.576622197,-63457,-177611,-12.80959461,1157,0.083444724,128,-211787,-15.27442339,24281.25,9216,128
-4.431224994,-61441,-177281,-12.78579447,2046,0.147560852,128,-211216,-15.23324194,24300.78125,9856,128
-4.468367632,-61956,-176835,-12.75362822,3073,0.221629765,128,-209831,-15.13335349,24320.3125,10496,128
-4.487479864,-62221,-176921,-12.75983068,3844,0.277235541,128,-210364,-15.17179432,24339.84375,11136,128
-4.487768351,-62225,-177884,-12.82928381,799,0.057625181,128,-211371,-15.2444208,24359.375,11776,128
-4.70824417,-65282,-177968,-12.83534203,1551,0.111860646,128,-211412,-15.24737778,24378.90625,12416,128
-4.652782637,-64513,-178773,-12.89339994,62,0.004471541,128,-212488,-15.32498066,24398.4375,13056,128
-4.449111158,-61689,-176379,-12.72074076,17407,1.255421192,128,-205834,-14.84508334,24417.96875,13696,128
-4.172813198,-57858,-172682,-12.4541071,4032,0.290794407,128,-193843,-13.98027289,24437.5,14336,128
-4.68963679,-65024,-178677,-12.88647626,2179,0.157153029,128,-210014,-15.14655175,24457.03125,14976,128
-4.50500542,-62464,-177714,-12.81702314,3580,0.258195431,128,-210444,-15.17756405,24476.5625,15616,128
-4.449183279,-61690,-178106,-12.84529481,2018,0.145541447,128,-211038,-15.22040429,24496.09375,16256,128
-4.482070742,-62146,-177866,-12.82798562,3345,0.241246848,128,-210671,-15.19393566,24515.625,16896,128
-4.687401019,-64993,-177531,-12.80382488,3099,0.223504928,128,-209733,-15.12628557,24535.15625,17536,128
-4.692882263,-65069,-177194,-12.77951989,4028,0.290505921,128,-209352,-15.09880723,24554.6875,18176,128
-4.69143983,-65049,-177308,-12.78774175,3585,0.258556039,128,-209399,-15.10219694,24574.21875,18816,128
-4.651628691,-64497,-176886,-12.75730643,7534,0.543364351,128,-208530,-15.03952325,24593.75,19456,128
-4.431224994,-61441,-176683,-12.74266574,7648,0.551586217,128,-207576,-14.97071921,24613.28125,20096,128
-4.586070131,-63588,-176227,-12.70977827,8190,0.59067614,128,-206114,-14.86527739,24632.8125,20736,128
-4.412761857,-61185,-175472,-12.65532644,15879,1.145219343,128,-204577,-14.75442645,24652.34375,21376,128
-4.213706161,-58425,-175230,-12.63787301,16324,1.177313468,128,-203506,-14.67718419,24671.875,22016,128
-4.431152872,-61440,-175424,-12.65186461,15992,1.153369087,128,-204086,-14.71901473,24691.40625,22656,128
-4.421993425,-61313,-176495,-12.72910687,7137,0.514732065,128,-207310,-14.95153486,24710.9375,23296,128
-4.504500568,-62457,-176986,-12.76451859,6428,0.46359783,128,-208611,-15.0453651,24730.46875,23936,128
-4.46339124,-61887,-177447,-12.79776666,4088,0.294833218,128,-209551,-15.11315943,24750,24576,128
-4.715023603,-65376,-177504,-12.80187759,4095,0.29533807,128,-209805,-15.13147833,24769.53125,25216,128
-4.516328516,-62621,-177309,-12.78781388,3260,0.23511651,128,-209732,-15.12621345,24789.0625,25856,128
-4.462453659,-61874,-177462,-12.79884849,4095,0.29533807,128,-210017,-15.14676811,24808.59375,26496,128
-4.467790659,-61948,-177531,-12.80382488,3841,0.277019176,128,-210159,-15.15700938,24828.125,27136,128
-4.466997321,-61937,-177549,-12.80512307,4000,0.288486515,128,-210152,-15.15650453,24847.65625,27776,128
-4.439879589,-61561,-177609,-12.80945037,3599,0.259565742,128,-210308,-15.1677555,24867.1875,28416,128
-4.464112456,-61897,-177436,-12.79697332,3968,0.286178623,128,-210042,-15.14857115,24886.71875,29056,128
-4.43901413,-61549,-177389,-12.79358361,3131,0.22581282,128,-209477,-15.10782243,24906.25,29696,128
-4.652854759,-64514,-177456,-12.79841576,3968,0.286178623,128,-208987,-15.07248283,24925.78125,30336,128
-4.697137439,-65128,-177389,-12.79358361,7170,0.517112078,128,-208798,-15.05885185,24945.3125,30976,128
-4.726490942,-65535,-177389,-12.79358361,7298,0.526343647,128,-208746,-15.05510152,24964.84375,31616,128
-4.707450832,-65271,-177039,-12.76834104,7168,0.516967835,128,-208458,-15.03433049,24984.375,32256,128
-4.726563063,-65536,-177416,-12.79553089,7168,0.516967835,128,-208827,-15.06094337,25003.90625,32896,128
-4.72375032,-65497,-177492,-12.80101213,4089,0.29490534,128,-208802,-15.05914033,25023.4375,33536,128
-4.435840778,-61505,-177492,-12.80101213,7236,0.521872106,128,-208827,-15.06094337,25042.96875,34176,128
-4.541931694,-62976,-177632,-12.81110916,4080,0.294256245,128,-209104,-15.08092106,25062.5,34816,128
-4.724615779,-65509,-177253,-12.78377507,4060,0.292813813,128,-208996,-15.07313193,25082.03125,35456,128
-4.689348303,-65020,-177499,-12.80151699,3952,0.285024677,128,-209071,-15.07854105,25101.5625,36096,128
-4.717619981,-65412,-177288,-12.78629932,7424,0.535430972,128,-208624,-15.04630268,25121.09375,36736,128
-4.468007024,-61951,-177471,-12.79949758,3903,0.281490717,128,-209097,-15.08041621,25140.625,37376,128
-4.711850251,-65332,-177298,-12.78702054,7200,0.519275727,128,-208687,-15.05084634,25160.15625,38016,128
-4.434758953,-61490,-176996,-12.76523981,8096,0.583896707,128,-207962,-14.99855816,25179.6875,38656,128
-4.446442657,-61652,-177048,-12.76899013,7674,0.553461379,128,-207374,-14.95615065,25199.21875,39296,128
-4.692593776,-65065,-176809,-12.75175306,7183,0.518049659,128,-206769,-14.91251706,25218.75,39936,128
-4.716898765,-65402,-176746,-12.7472094,7295,0.526127282,128,-207398,-14.95788156,25238.28125,40576,128
-4.431224994,-61441,-177153,-12.7765629,8180,0.589954923,128,-208028,-15.00331819,25257.8125,41216,128
-4.652854759,-64514,-177284,-12.78601084,7712,0.556202001,128,-208349,-15.02646923,25277.34375,41856,128
-4.583762238,-63556,-178271,-12.85719488,4088,0.294833218,128,-208976,-15.0716895,25296.875,42496,128
-4.138050573,-57376,-172829,-12.46470898,120,0.008654595,128,-194597,-14.03465259,25316.40625,43136,128
-3.527036134,-48904,-177083,-12.77151439,16264,1.17298617,128,-203441,-14.67249628,25335.9375,43776,128
-4.509116353,-62521,-177507,-12.80209396,7165,0.51675147,128,-208191,-15.01507402,25355.46875,44416,128
-4.648455339,-64453,-177101,-12.77281258,7951,0.57343907,128,-208113,-15.00944853,25375,45056,128
-4.588089536,-63616,-176888,-12.75745067,8135,0.58670945,128,-208057,-15.00540972,25394.53125,45696,128
-4.722019401,-65473,-176645,-12.73992512,7231,0.521511498,128,-207809,-14.98752355,25414.0625,46336,128
-4.435624413,-61502,-176766,-12.74865183,7176,0.517544808,128,-207862,-14.991346,25433.59375,46976,128
-4.703772629,-65220,-176779,-12.74958941,8086,0.58317549,128,-207948,-14.99754846,25453.125,47616,128
-4.588378023,-63620,-176382,-12.72095713,8191,0.590748261,128,-206969,-14.92694139,25472.65625,48256,128
-4.726346699,-65533,-176086,-12.69960912,7616,0.549278325,128,-206446,-14.88922177,25492.1875,48896,128
-4.413050343,-61189,-175622,-12.66614469,8161,0.588584612,128,-205399,-14.81371043,25511.71875,49536,128
-4.691728317,-65053,-175166,-12.63325723,15872,1.144714492,128,-203622,-14.68555029,25531.25,50176,128
-3.526026431,-48890,-174834,-12.60931285,16259,1.172625562,128,-202461,-14.60181708,25550.78125,50816,128
-4.17072167,-57829,-174510,-12.58594544,16136,1.163754602,128,-201942,-14.56438596,25570.3125,51456,128
-4.265201004,-59139,-175107,-12.62900205,15423,1.112331881,128,-203397,-14.66932293,25589.84375,52096,128
-4.65335961,-64521,-176284,-12.71388921,6176,0.445423179,128,-206556,-14.89715515,25609.375,52736,128
-4.45365482,-61752,-176438,-12.72499594,7168,0.516967835,128,-207584,-14.97129619,25628.90625,53376,128
-4.648166853,-64449,-176713,-12.74482939,8160,0.588512491,128,-208128,-15.01053035,25648.4375,54016,128
-4.496422946,-62345,-176779,-12.74958941,7951,0.57343907,128,-208369,-15.02791167,25667.96875,54656,128
-4.657614786,-64580,-176600,-12.73667964,8092,0.58360822,128,-208356,-15.02697409,25687.5,55296,128
-4.467502173,-61944,-176469,-12.72723171,7678,0.553749866,128,-208394,-15.02971471,25707.03125,55936,128
-4.491230189,-62273,-176705,-12.74425241,7423,0.53535885,128,-208726,-15.05365909,25726.5625,56576,128
-4.589892577,-63641,-176569,-12.73444387,7552,0.544662541,128,-208604,-15.04486025,25746.09375,57216,128
-4.696848952,-65124,-176748,-12.74735364,3966,0.28603438,128,-209080,-15.07919014,25765.625,57856,128
-4.432234696,-61455,-176587,-12.73574206,4089,0.29490534,128,-208982,-15.07212222,25785.15625,58496,128
-4.582103441,-63533,-176681,-12.74252149,7417,0.534926121,128,-208647,-15.04796148,25804.6875,59136,128
-4.59710474,-63741,-176857,-12.7552149,7294,0.52605516,128,-208548,-15.04082144,25824.21875,59776,128
-4.708172048,-65281,-176981,-12.76415798,7687,0.55439896,128,-208284,-15.02178133,25843.75,60416,128
-4.707667197,-65274,-176812,-12.75196943,8191,0.590748261,128,-208097,-15.00829458,25863.28125,61056,128
-4.615856363,-64001,-176721,-12.74540636,7876,0.568029948,128,-208164,-15.01312673,25882.8125,61696,128
-4.69454106,-65092,-176724,-12.74562272,8191,0.590748261,128,-208038,-15.00403941,25902.34375,62336,128
-4.710696305,-65316,-176680,-12.74244937,7199,0.519203606,128,-207745,-14.98290777,25921.875,62976,128
-4.726563063,-65536,-176623,-12.73833844,7211,0.520069065,128,-207830,-14.98903811,25941.40625,63616,128
-4.588666509,-63624,-176520,-12.73090991,7175,0.517472686,128,-207817,-14.98810053,25960.9375,64256,128
-4.661942084,-64640,-176488,-12.72860202,7998,0.576828787,128,-208012,-15.00216424,25980.46875,64896,128
-4.432955913,-61465,-176601,-12.73675176,8176,0.589666437,128,-207936,-14.996683,26000,0,128
-4.597321105,-63744,-176608,-12.73725661,7795,0.562188096,128,-208141,-15.01146794,26019.53125,640,128
-4.583473752,-63552,-176227,-12.70977827,7231,0.521511498,128,-207617,-14.9736762,26039.0625,1280,128
-4.708388413,-65284,-176479,-12.72795292,7359,0.530743066,128,-207682,-14.97836411,26058.59375,1920,128
-4.466780957,-61934,-176622,-12.73826632,7233,0.521655741,128,-207529,-14.9673295,26078.125,2560,128
-4.583617995,-63554,-176094,-12.7001861,7647,0.551514095,128,-206267,-14.876312,26097.65625,3200,128
-4.724327293,-65505,-175952,-12.68994483,8180,0.589954923,128,-205836,-14.84522758,26117.1875,3840,128
-0.013775231,-191,-175757,-12.67588111,15388,1.109807624,128,-206137,-14.86693619,26136.71875,4480,0
-4.46115547,-61856,-176452,-12.72600564,8163,0.588728856,128,-207012,-14.93004262,26175.78125,5760,128
-4.495485365,-62332,-177659,-12.81305645,6653,0.479825196,128,-208347,-15.02632499,26195.3125,6400,128
-4.661942084,-64640,-174135,-12.55889983,18304,1.320114293,128,-200041,-14.42728274,26214.84375,7040,128
-2.936720602,-40719,-174352,-12.57455022,8182,0.590099167,128,-197852,-14.2694085,26234.375,7680,128
-4.61484666,-63987,-176922,-12.75990281,13186,0.950995797,128,-206389,-14.88511084,26253.90625,8320,128
-4.680837951,-64902,-176449,-12.72578928,8176,0.589666437,128,-207271,-14.94872212,26273.4375,8960,128
-4.726563063,-65536,-176202,-12.70797523,7295,0.526127282,128,-206552,-14.89686667,26292.96875,9600,128
-4.435768656,-61504,-176075,-12.69881579,7168,0.516967835,128,-206234,-14.87393199,26312.5,10240,128
-4.726490942,-65535,-175934,-12.68864664,7168,0.516967835,128,-205639,-14.83101962,26332.03125,10880,128
-4.417594006,-61252,-175646,-12.66787561,7663,0.552668041,128,-205051,-14.7886121,26351.5625,11520,128
-4.42797952,-61396,-175592,-12.66398104,15440,1.113557948,128,-204639,-14.75889799,26371.09375,12160,128
-4.430071048,-61425,-175225,-12.6375124,15868,1.144426005,128,-204017,-14.71403834,26390.625,12800,128
-4.359391851,-60445,-174842,-12.60988982,16280,1.174140116,128,-202584,-14.61068804,26410.15625,13440,128
-4.319292226,-59889,-174584,-12.59128244,16207,1.168875238,128,-201493,-14.53200335,26429.6875,14080,128
-4.154205817,-57600,-174084,-12.55522162,16380,1.181352279,128,-199972,-14.42230635,26449.21875,14720,128
-4.251065165,-58943,-173418,-12.50718862,16369,1.180558941,128,-198517,-14.31736938,26468.75,15360,128
-4.144902127,-57471,-173850,-12.53834516,16128,1.163177629,128,-199384,-14.37989883,26488.28125,16000,128
-4.338620822,-60157,-174997,-12.62106867,15352,1.107211245,128,-202615,-14.61292381,26507.8125,16640,128
-4.357444567,-60418,-175501,-12.65741797,16320,1.177024982,128,-204081,-14.71865412,26527.34375,17280,128
-4.405766059,-61088,-175495,-12.65698524,15366,1.108220948,128,-204453,-14.74548337,26546.875,17920,128
-4.408146072,-61121,-175824,-12.68071326,8161,0.588584612,128,-204916,-14.77887568,26566.40625,18560,128
-4.397688436,-60976,-175872,-12.6841751,8188,0.590531896,128,-204762,-14.76776895,26585.9375,19200,128
-4.708172048,-65281,-175923,-12.6878533,8064,0.581588814,128,-204938,-14.78046236,26605.46875,19840,128
-4.428917101,-61409,-175820,-12.68042477,8183,0.590171288,128,-204955,-14.78168843,26625,20480,128
-4.726563063,-65536,-175797,-12.67876597,8126,0.586060355,128,-204939,-14.78053448,26644.53125,21120,128
-4.417089154,-61245,-175840,-12.6818672,8160,0.588512491,128,-204802,-14.77065382,26664.0625,21760,128
-4.708604778,-65287,-175997,-12.6931903,8161,0.588584612,128,-204956,-14.78176055,26683.59375,22400,128
-4.431152872,-61440,-175907,-12.68669935,8056,0.581011841,128,-204753,-14.76711986,26703.125,23040,128
-4.414997627,-61216,-175708,-12.67234715,14560,1.050090915,128,-204562,-14.75334463,26722.65625,23680,128
-4.715095724,-65377,-175945,-12.68943997,7680,0.553894109,128,-205049,-14.78846786,26742.1875,24320,128
-4.409949113,-61146,-175939,-12.68900725,8190,0.59067614,128,-204992,-14.78435693,26761.71875,24960,128
-4.42884498,-61408,-175929,-12.68828603,15375,1.108870042,128,-204897,-14.77750537,26781.25,25600,128
-4.413266708,-61192,-175804,-12.67927083,8143,0.587286423,128,-205054,-14.78882847,26800.78125,26240,128
-4.689708911,-65025,-175982,-12.69210848,8190,0.59067614,128,-205247,-14.80274794,26820.3125,26880,128
-4.430648021,-61433,-175883,-12.68496843,7367,0.531320039,128,-205379,-14.812268,26839.84375,27520,128
-4.724110928,-65502,-175889,-12.68540116,7361,0.530887309,128,-205174,-14.79748306,26859.375,28160,128
-4.698868358,-65152,-175856,-12.68302115,7943,0.572862097,128,-205276,-14.80483947,26878.90625,28800,128
-4.426609209,-61377,-175941,-12.68915149,7288,0.525622431,128,-205352,-14.81032071,26898.4375,29440,128
-4.42307525,-61328,-176038,-12.69614729,8188,0.590531896,128,-205686,-14.83440934,26917.96875,30080,128
-4.423652223,-61336,-176032,-12.69571456,7175,0.517472686,128,-206046,-14.86037312,26937.5,30720,128
-4.717908468,-65416,-176078,-12.69903215,7999,0.576900909,128,-205899,-14.84977124,26957.03125,31360,128
-4.431152872,-61440,-175977,-12.69174787,7183,0.518049659,128,-205262,-14.80382977,26976.5625,32000,128
-4.394515085,-60932,-175617,-12.66578408,15877,1.1450751,128,-204125,-14.72182747,26996.09375,32640,128
-4.430936507,-61437,-175119,-12.62986751,15456,1.114711894,128,-202849,-14.62980028,27015.625,33280,128
-4.200435782,-58241,-175009,-12.62193413,15390,1.109951867,128,-202376,-14.59568675,27035.15625,33920,128
-4.427474669,-61389,-175364,-12.64753731,16287,1.174644968,128,-203457,-14.67365023,27054.6875,34560,128
-4.395380544,-60944,-175754,-12.67566474,16255,1.172337076,128,-203761,-14.6955752,27074.21875,35200,128
-4.710407819,-65312,-175895,-12.68583389,16352,1.179332874,128,-203751,-14.69485398,27093.75,35840,128
-4.689997398,-65029,-177169,-12.77771685,14367,1.036171441,128,-204889,-14.7769284,27113.28125,36480,128
-3.429671935,-47554,-169904,-12.25375322,14,0.001009703,128,-186874,-13.47765726,27132.8125,37120,128
-2.917247762,-40449,-174013,-12.55010099,14211,1.024920467,128,-195082,-14.06963158,27152.34375,37760,128
-4.468079146,-61952,-175866,-12.68374237,16316,1.176736495,128,-203073,-14.64595552,27171.875,38400,128
-4.408146072,-61121,-175661,-12.66895743,16351,1.179260752,128,-202544,-14.60780318,27191.40625,39040,128
-4.394370841,-60930,-175654,-12.66845258,15489,1.117091908,128,-202603,-14.61205835,27210.9375,39680,128
-4.357372446,-60417,-175458,-12.65431674,15584,1.123943463,128,-202297,-14.58998914,27230.46875,40320,128
-4.361050649,-60468,-175109,-12.62914629,16144,1.164331575,128,-201643,-14.54282159,27250,40960,128
-4.431152872,-61440,-175115,-12.62957902,16256,1.172409197,128,-201706,-14.54736525,27269.53125,41600,128
-4.285755668,-59424,-174814,-12.60787041,15552,1.121635571,128,-201093,-14.5031547,27289.0625,42240,128
-4.308906711,-59745,-174151,-12.56005377,15713,1.133247153,128,-200069,-14.42930215,27308.59375,42880,128
-3.537998621,-49056,-174082,-12.55507738,16352,1.179332874,128,-199497,-14.38804858,27328.125,43520,128
-4.209739472,-58370,-173320,-12.5001207,16271,1.173491022,128,-198131,-14.28953043,27347.65625,44160,128
-3.542686527,-49121,-173071,-12.48216241,15672,1.130290166,128,-196738,-14.189065,27367.1875,44800,128
-3.305550612,-45833,-172842,-12.46564656,48,0.003461838,128,-196124,-14.14478232,27386.71875,45440,128
-4.144469398,-57465,-173364,-12.50329405,16380,1.181352279,128,-197934,-14.27532247,27406.25,46080,128
-4.282942925,-59385,-174335,-12.57332415,15879,1.145219343,128,-200123,-14.43319672,27425.78125,46720,128
-4.301406062,-59641,-174921,-12.61558743,16191,1.167721292,128,-202081,-14.57441086,27445.3125,47360,128
-4.154205817,-57600,-175227,-12.63765665,14832,1.069707998,128,-202501,-14.60470195,27464.84375,48000,128
-4.365450068,-60529,-175217,-12.63693543,15583,1.123871341,128,-202529,-14.60672135,27484.375,48640,128
-4.283519898,-59393,-175354,-12.64681609,15360,1.107788218,128,-202772,-14.62424691,27503.90625,49280,128
-4.248901516,-58913,-175271,-12.64083,15361,1.10786034,128,-202739,-14.6218669,27523.4375,49920,128
-4.356146378,-60400,-175276,-12.64119061,14624,1.054706699,128,-202489,-14.60383649,27542.96875,50560,128
-4.417233398,-61247,-175165,-12.6331851,14823,1.069058903,128,-202567,-14.60946198,27562.5,51200,128
-4.210460688,-58380,-175257,-12.63982029,15365,1.108148826,128,-202552,-14.60838015,27582.03125,51840,128
-4.375330731,-60666,-175348,-12.64638336,15392,1.11009611,128,-202677,-14.61739536,27601.5625,52480,128
-4.380379245,-60736,-175526,-12.65922101,16368,1.18048682,128,-203087,-14.64696522,27621.09375,53120,128
-4.426609209,-61377,-175433,-12.6525137,16159,1.165413399,128,-203066,-14.64545067,27640.625,53760,128
-4.227409271,-58615,-175301,-12.64299365,16380,1.181352279,128,-202827,-14.6282136,27660.15625,54400,128
-4.426897696,-61381,-175579,-12.66304346,15935,1.149258155,128,-203307,-14.66283198,27679.6875,55040,128
-4.357444567,-60418,-175446,-12.65345128,16127,1.163105507,128,-203114,-14.64891251,27699.21875,55680,128
-4.655018408,-64544,-175791,-12.67833324,16335,1.178106806,128,-203709,-14.69182488,27718.75,56320,128
-4.39429872,-60929,-175414,-12.65114339,15412,1.111538543,128,-203315,-14.66340895,27738.28125,56960,128
-4.373744055,-60644,-175491,-12.65669676,15384,1.109519137,128,-203436,-14.67213567,27757.8125,57600,128
-4.366027041,-60537,-175465,-12.65482159,15884,1.145579951,128,-203299,-14.66225501,27777.34375,58240,128
-4.422786763,-61324,-175516,-12.6584998,15879,1.145219343,128,-203260,-14.65944226,27796.875,58880,128
-4.225750473,-58592,-175239,-12.63852211,16335,1.178106806,128,-203169,-14.6528792,27816.40625,59520,128
-4.424229196,-61344,-175549,-12.66087981,15383,1.109447015,128,-203497,-14.67653509,27835.9375,60160,128
-4.393144774,-60913,-175566,-12.66210588,16380,1.181352279,128,-203625,-14.68576666,27855.46875,60800,128
-4.250920922,-58941,-175458,-12.65431674,15481,1.116514935,128,-203398,-14.66939505,27875,61440,128
-4.396029639,-60953,-175092,-12.62792023,16131,1.163393994,128,-202611,-14.61263533,27894.53125,62080,128
-4.208441282,-58352,-174616,-12.59359033,16351,1.179260752,128,-201604,-14.54000885,27914.0625,62720,128
-4.20036366,-58240,-174444,-12.58118541,16383,1.181568644,128,-202399,-14.59734554,27933.59375,63360,128
-4.403458167,-61056,-175414,-12.65114339,16253,1.172192832,128,-203464,-14.67415508,27953.125,64000,128
-4.413987924,-61202,-175382,-12.6488355,15425,1.112476124,128,-203451,-14.6732175,27972.65625,64640,128
-4.422065547,-61314,-175722,-12.67335685,16364,1.180198333,128,-203861,-14.70278736,27992.1875,65280,128
-4.281644736,-59367,-176007,-12.69391152,24600,1.774192068,128,-203727,-14.69312307,28011.71875,384,128
-2.936215751,-40712,-170381,-12.28815523,249,0.017958286,128,-186528,-13.45270317,28031.25,1024,128
-3.540378635,-49089,-175921,-12.68770906,769,0.055461533,128,-199819,-14.41127174,28050.78125,1664,128
-4.28229383,-59376,-175327,-12.64486881,16356,1.17962136,128,-202804,-14.6265548,28070.3125,2304,128
-4.283375655,-59391,-175349,-12.64645548,15601,1.125169531,128,-202623,-14.61350079,28089.84375,2944,128
-4.414997627,-61216,-175166,-12.63325723,15616,1.126251355,128,-202430,-14.59958131,28109.375,3584,128
-4.21010008,-58375,-175018,-12.62258323,16127,1.163105507,128,-202050,-14.57217509,28128.90625,4224,128
-4.154205817,-57600,-174842,-12.60988982,15375,1.108870042,128,-201684,-14.54577858,28148.4375,4864,128
-4.200507903,-58242,-174704,-12.59993703,15503,1.118101611,128,-201034,-14.49889952,28167.96875,5504,128
-4.153989453,-57597,-174326,-12.57267506,15360,1.107788218,128,-199672,-14.40066986,28187.5,6144,128
-4.156441588,-57631,-174162,-12.56084711,15841,1.142478721,128,-198817,-14.33900587,28207.03125,6784,128
-3.525954309,-48889,-173703,-12.52774328,15868,1.144426005,128,-197747,-14.26183573,28226.5625,7424,128
-3.489100157,-48378,-173283,-12.4974522,29,0.002091527,128,-196229,-14.15235509,28246.09375,8064,128
-3.542325919,-49116,-172852,-12.46636778,0,0,128,-195399,-14.09249414,28265.625,8704,128
-3.514414849,-48729,-172761,-12.45980471,251,0.018102529,128,-195605,-14.1073512,28285.15625,9344,128
-3.475685534,-48192,-173747,-12.53091663,16135,1.16368248,128,-198221,-14.29602138,28304.6875,9984,128
-4.292607223,-59519,-174459,-12.58226723,15234,1.098700893,128,-200186,-14.43774038,28324.21875,10624,128
-4.142161505,-57433,-174789,-12.60606737,15584,1.123943463,128,-201261,-14.51527113,28343.75,11264,128
-4.17245259,-57853,-174939,-12.61688562,15411,1.111466421,128,-201889,-14.56056351,28363.28125,11904,128
-4.194810294,-58163,-174821,-12.60837526,16158,1.165341278,128,-201906,-14.56178958,28382.8125,12544,128
-4.196324849,-58184,-174856,-12.61089952,16373,1.180847428,128,-201852,-14.55789501,28402.34375,13184,128
-4.417377641,-61249,-174658,-12.59661944,16382,1.181496523,128,-201876,-14.55962593,28421.875,13824,128
-4.193367862,-58143,-174736,-12.60224493,16324,1.177313468,128,-202056,-14.57260782,28441.40625,14464,128
-3.509438456,-48660,-174611,-12.59322972,16175,1.166567345,128,-201941,-14.56431384,28460.9375,15104,128
-4.187021159,-58055,-174848,-12.61032255,16380,1.181352279,128,-202284,-14.58905156,28480.46875,15744,128
-4.20613339,-58320,-174927,-12.61602016,15808,1.140098708,128,-202295,-14.58984489,28500,16384,128
-4.186516307,-58048,-174711,-12.60044189,16293,1.175077698,128,-202236,-14.58558972,28519.53125,17024,128
-4.297367251,-59585,-174556,-12.58926303,15871,1.14464237,128,-202089,-14.57498784,28539.0625,17664,128
-4.136896627,-57360,-174864,-12.61147649,15372,1.108653678,128,-202612,-14.61270745,28558.59375,18304,128
-4.319869199,-59897,-174650,-12.59604247,15408,1.111250056,128,-202295,-14.58984489,28578.125,18944,128
-4.151970047,-57569,-175086,-12.6274875,16096,1.160869737,128,-203037,-14.64335914,28597.65625,19584,128
