Device,Device,Device,Device,Device,Device,Device,Device,Device,Device,Device,Device
ECG Vx-RL,ECG Vx-RL,ECG LA-RA,ECG LA-RA,ExG2 CH1,ExG2 CH1,EXG1 Status,ECG LL-RA,ECG LL-RA,Timestamp,Timestamp,EXG2 Status
CAL,RAW,CAL,RAW,CAL,RAW,RAW,RAW,CAL,CAL,RAW,RAW
mV,No Units,mV,No Units,mV,No Units,No Units,No Units,mV,mSecs,No Units,No Units
-605.0000721,-8388608,-31.98356235,-443467,0.986696003,13681,128,-480723,-34.67052575,6195.3125,6400,128
-605.0000721,-8388608,-31.98024475,-443421,0.990590571,13735,128,-484281,-34.92713451,6214.84375,7040,128
-605.0000721,-8388608,-31.95694947,-443098,0.988931774,13712,128,-488098,-35.20242276,6234.375,7680,128
-605.0000721,-8388608,-31.9273796,-442688,1.022107723,14172,128,-490850,-35.40090148,6253.90625,8320,128
-605.0000721,-8388608,-31.91684984,-442542,1.031195048,14298,128,-494698,-35.67842551,6273.4375,8960,128
-605.0000721,-8388608,-31.91360437,-442497,1.030545954,14289,128,-495649,-35.74701318,6292.96875,9600,128
-605.0000721,-8388608,-31.90711342,-442407,1.04453755,14483,128,-495747,-35.7540811,6312.5,10240,128
-605.0000721,-8388608,-31.92874991,-442707,1.004654289,13930,128,-496168,-35.78444431,6332.03125,10880,128
-605.0000721,-8388608,-31.97433078,-443339,1.009414316,13996,128,-497044,-35.84762285,6351.5625,11520,128
-605.0000721,-8388608,-31.97916293,-443406,1.02549744,14219,128,-497102,-35.85180591,6371.09375,12160,128
-605.0000721,-8388608,-31.99625575,-443643,1.009342195,13995,128,-497199,-35.85880171,6390.625,12800,128
-605.0000721,-8388608,-31.99849153,-443674,1.024127129,14200,128,-497339,-35.86889873,6410.15625,13440,128
-605.0000721,-8388608,-31.98111021,-443433,1.027949575,14253,128,-497276,-35.86435507,6429.6875,14080,128
-605.0000721,-8388608,-31.98637509,-443506,1.014102222,14061,128,-496546,-35.81170628,6449.21875,14720,128
-605.0000721,-8388608,-31.93689965,-442820,1.04987455,14557,128,-496450,-35.80478261,6468.75,15360,128
-605.0000721,-8388608,-31.91843652,-442564,1.027949575,14253,128,-495900,-35.76511571,6488.28125,16000,128
-605.0000721,-8388608,-31.94649183,-442953,1.00955856,13998,128,-496950,-35.84084342,6507.8125,16640,128
-605.0000721,-8388608,-31.99055815,-443564,1.00292337,13906,128,-497491,-35.87986122,6527.34375,17280,128
-605.0000721,-8388608,-31.98399508,-443473,1.009197951,13993,128,-497087,-35.85072408,6546.875,17920,128
-605.0000721,-8388608,-31.9770714,-443377,1.023333791,14189,128,-496804,-35.83031366,6566.40625,18560,128
-605.0000721,-8388608,-31.67358359,-439169,1.231548933,17076,128,-495421,-35.73056945,6585.9375,19200,128
-605.0000721,-8388608,-31.46962362,-436341,1.108220948,15366,128,-487710,-35.17443957,6605.46875,19840,128
-605.0000721,-8388608,-32.07227195,-444697,0.935994498,12978,128,-497376,-35.87156723,6625,20480,128
-605.0000721,-8388608,-31.97901869,-443404,1.029968981,14281,128,-497271,-35.86399446,6644.53125,21120,128
-605.0000721,-8388608,-31.98024475,-443421,1.02239621,14176,128,-496759,-35.82706819,6664.0625,21760,128
-605.0000721,-8388608,-31.94216453,-442893,1.047999388,14531,128,-496431,-35.80341229,6683.59375,22400,128
-605.0000721,-8388608,-31.90920495,-442436,1.051389104,14578,128,-496059,-35.77658305,6703.125,23040,128
-605.0000721,-8388608,-31.92499959,-442655,1.030041102,14282,128,-496077,-35.77788124,6722.65625,23680,128
-605.0000721,-8388608,-31.93336569,-442771,1.012299181,14036,128,-496056,-35.77636668,6742.1875,24320,128
-605.0000721,-8388608,-31.89845883,-442287,1.013381006,14051,128,-495736,-35.75328776,6761.71875,24960,128
-605.0000721,-8388608,-31.87054776,-441900,1.03083444,14293,128,-495241,-35.71758756,6781.25,25600,128
-605.0000721,-8388608,-31.85359917,-441665,1.037109022,14380,128,-494764,-35.68318554,6800.78125,26240,128
-605.0000721,-8388608,-31.78407392,-440701,1.054778821,14625,128,-493931,-35.62310822,6820.3125,26880,128
-605.0000721,-8388608,-31.7936661,-440834,1.030257467,14285,128,-493640,-35.60212083,6839.84375,27520,128
-605.0000721,-8388608,-31.78450665,-440707,1.036243562,14368,128,-493401,-35.58488376,6859.375,28160,128
-605.0000721,-8388608,-31.865355,-441828,0.985037206,13658,128,-494399,-35.65686115,6878.90625,28800,128
-605.0000721,-8388608,-31.89081393,-442181,1.017852547,14113,128,-495347,-35.72523245,6898.4375,29440,128
-605.0000721,-8388608,-31.92550444,-442662,1.00559187,13943,128,-496144,-35.78271339,6917.96875,30080,128
-605.0000721,-8388608,-31.91858076,-442566,1.040787225,14431,128,-496221,-35.78826675,6937.5,30720,128
-605.0000721,-8388608,-31.94476091,-442929,1.017852547,14113,128,-496639,-35.81841359,6957.03125,31360,128
-605.0000721,-8388608,-31.94028937,-442867,1.035017495,14351,128,-496454,-35.80507109,6976.5625,32000,128
-605.0000721,-8388608,-31.94043361,-442869,1.01532829,14078,128,-496546,-35.81170628,6996.09375,32640,128
-605.0000721,-8388608,-31.90026187,-442312,1.040282373,14424,128,-495826,-35.75977871,7015.625,33280,128
-605.0000721,-8388608,-31.90062248,-442317,1.055427916,14634,128,-495909,-35.7657648,7035.15625,33920,128
-605.0000721,-8388608,-31.9327166,-442762,1.01756406,14109,128,-496425,-35.80297957,7054.6875,34560,128
-605.0000721,-8388608,-31.92348503,-442634,1.038767819,14403,128,-496306,-35.79439709,7074.21875,35200,128
-605.0000721,-8388608,-31.94425606,-442922,1.004437924,13927,128,-496642,-35.81862996,7093.75,35840,128
-605.0000721,-8388608,-31.92507171,-442656,1.03040171,14287,128,-496476,-35.80665777,7113.28125,36480,128
-605.0000721,-8388608,-31.92435049,-442646,1.037613873,14387,128,-496398,-35.80103228,7132.8125,37120,128
-605.0000721,-8388608,-31.89081393,-442181,1.050667888,14568,128,-496169,-35.78451643,7152.34375,37760,128
-605.0000721,-8388608,-31.92233109,-442618,1.026146534,14228,128,-496484,-35.80723474,7171.875,38400,128
-605.0000721,-8388608,-31.95053064,-443009,1.015977385,14087,128,-496766,-35.82757304,7191.40625,39040,128
-605.0000721,-8388608,-31.89283334,-442209,1.042590266,14456,128,-495768,-35.75559565,7210.9375,39680,128
-605.0000721,-8388608,-31.89946853,-442301,1.032925967,14322,128,-495823,-35.75956234,7230.46875,40320,128
-605.0000721,-8388608,-31.84617065,-441562,1.024271372,14202,128,-495450,-35.73266098,7250,40960,128
-605.0000721,-8388608,-31.84941612,-441607,1.048720604,14541,128,-495780,-35.75646111,7269.53125,41600,128
-605.0000721,-8388608,-31.94461667,-442927,0.978906867,13573,128,-497123,-35.85332046,7289.0625,42240,128
-605.0000721,-8388608,-31.91007041,-442448,1.030545954,14289,128,-496966,-35.84199737,7308.59375,42880,128
-605.0000721,-8388608,-31.91901349,-442572,1.0343684,14342,128,-496886,-35.83622764,7328.125,43520,128
-605.0000721,-8388608,-31.96783983,-443249,1.014751317,14070,128,-496521,-35.80990324,7347.65625,44160,128
-605.0000721,-8388608,-31.43529373,-435865,1.320547023,18310,128,-493284,-35.57644553,7367.1875,44800,128
-605.0000721,-8388608,-31.59006674,-438011,0.755185575,10471,128,-489563,-35.30808095,7386.71875,45440,128
-605.0000721,-8388608,-31.95702159,-443099,0.992609977,13763,128,-498549,-35.9561659,7406.25,46080,128
-605.0000721,-8388608,-31.92600929,-442669,1.042446022,14454,128,-496931,-35.83947311,7425.78125,46720,128
-605.0000721,-8388608,-31.8980261,-442281,1.045619374,14498,128,-496858,-35.83420823,7445.3125,47360,128
-605.0000721,-8388608,-31.86910532,-441880,1.055355794,14633,128,-496234,-35.78920433,7464.84375,48000,128
-605.0000721,-8388608,-31.8957182,-442249,1.028021697,14254,128,-496758,-35.82699607,7484.375,48640,128
-605.0000721,-8388608,-31.86838411,-441870,1.045042401,14490,128,-496539,-35.81120143,7503.90625,49280,128
-605.0000721,-8388608,-31.84407912,-441533,1.064443119,14759,128,-496182,-35.78545401,7523.4375,49920,128
-605.0000721,-8388608,-31.86759077,-441859,1.034945373,14350,128,-496469,-35.80615292,7542.96875,50560,128
-605.0000721,-8388608,-31.8113359,-441079,1.033070211,14324,128,-496091,-35.77889094,7562.5,51200,128
-605.0000721,-8388608,-31.76193258,-440394,1.092714798,15151,128,-495267,-35.71946272,7582.03125,51840,128
-605.0000721,-8388608,-31.76344714,-440415,1.072953471,14877,128,-494982,-35.69890805,7601.5625,52480,128
-605.0000721,-8388608,-31.73481485,-440018,1.060981281,14711,128,-494436,-35.65952965,7621.09375,53120,128
-605.0000721,-8388608,-31.79806552,-440895,1.010568262,14012,128,-494962,-35.69746562,7640.625,53760,128
-605.0000721,-8388608,-31.85929678,-441744,0.993547558,13776,128,-496471,-35.80629716,7660.15625,54400,128
-605.0000721,-8388608,-31.85511373,-441686,1.020232561,14146,128,-496893,-35.83673249,7679.6875,55040,128
-605.0000721,-8388608,-31.9010552,-442323,1.011866452,14030,128,-497281,-35.86471568,7699.21875,55680,128
-605.0000721,-8388608,-31.87646173,-441982,1.051893956,14585,128,-497426,-35.87517332,7718.75,56320,128
-605.0000721,-8388608,-31.88475572,-442097,1.041724806,14444,128,-497449,-35.87683211,7738.28125,56960,128
-605.0000721,-8388608,-31.87682234,-441987,1.033286575,14327,128,-497404,-35.87358664,7757.8125,57600,128
-605.0000721,-8388608,-31.87162958,-441915,1.038551454,14400,128,-497420,-35.87474059,7777.34375,58240,128
-605.0000721,-8388608,-31.87913023,-442019,1.046701198,14513,128,-497285,-35.86500417,7796.875,58880,128
-605.0000721,-8388608,-31.89593457,-442252,1.030690197,14291,128,-497286,-35.86507629,7816.40625,59520,128
-605.0000721,-8388608,-31.86924957,-441882,1.051244861,14576,128,-496930,-35.83940099,7835.9375,60160,128
-605.0000721,-8388608,-31.86326347,-441799,1.046484834,14510,128,-496879,-35.83572278,7855.46875,60800,128
-605.0000721,-8388608,-31.88987635,-442168,1.046701198,14513,128,-497221,-35.86038838,7875,61440,128
-605.0000721,-8388608,-31.87574051,-441972,1.03126717,14299,128,-497100,-35.85166166,7894.53125,62080,128
-605.0000721,-8388608,-31.89405941,-442226,1.06184674,14723,128,-497199,-35.85880171,7914.0625,62720,128
-605.0000721,-8388608,-31.87956296,-442025,1.042013293,14448,128,-497279,-35.86457144,7933.59375,63360,128
-605.0000721,-8388608,-31.88201509,-442059,1.043095117,14463,128,-496999,-35.84437738,7953.125,64000,128
-605.0000721,-8388608,-31.88648664,-442121,1.020448926,14149,128,-497214,-35.85988353,7972.65625,64640,128
-605.0000721,-8388608,-31.85641192,-441704,1.053192145,14603,128,-496602,-35.81574509,7992.1875,65280,128
-605.0000721,-8388608,-31.87379323,-441945,1.055067307,14629,128,-496381,-35.79980621,8011.71875,384,128
-605.0000721,-8388608,-31.84956036,-441609,1.047494536,14524,128,-496160,-35.78386733,8031.25,1024,128
-605.0000721,-8388608,-31.83477543,-441404,1.054346091,14619,128,-496321,-35.79547892,8050.78125,1664,128
-605.0000721,-8388608,-31.86499439,-441823,1.028310183,14258,128,-497011,-35.84524284,8070.3125,2304,128
-605.0000721,-8388608,-31.8733605,-441939,1.047783023,14528,128,-497332,-35.86839388,8089.84375,2944,128
-605.0000721,-8388608,-31.89348243,-442218,1.047061807,14518,128,-497419,-35.87466846,8109.375,3584,128
-605.0000721,-8388608,-31.9113686,-442466,1.038695698,14402,128,-496879,-35.83572278,8128.90625,4224,128
-605.0000721,-8388608,-31.71786627,-439783,1.306411184,18114,128,-496596,-35.81531236,8148.4375,4864,128
-605.0000721,-8388608,-31.6412731,-438721,0.960515852,13318,128,-491417,-35.44179445,8167.96875,5504,128
-605.0000721,-8388608,-32.01745951,-443937,1.002202153,13896,128,-499112,-35.99677038,8187.5,6144,128
-605.0000721,-8388608,-31.89391516,-442224,1.045979982,14503,128,-496931,-35.83947311,8207.03125,6784,128
-605.0000721,-8388608,-31.89420365,-442228,1.061269767,14715,128,-496936,-35.83983372,8226.5625,7424,128
-605.0000721,-8388608,-31.87480293,-441959,1.047855144,14529,128,-496759,-35.82706819,8246.09375,8064,128
-605.0000721,-8388608,-31.87747143,-441996,1.045691496,14499,128,-496759,-35.82706819,8265.625,8704,128
-605.0000721,-8388608,-31.82518325,-441271,1.060620673,14706,128,-496196,-35.78646371,8285.15625,9344,128
-605.0000721,-8388608,-31.83441482,-441399,1.039489036,14413,128,-496622,-35.81718753,8304.6875,9984,128
-605.0000721,-8388608,-31.85554646,-441692,1.04677332,14514,128,-496378,-35.79958985,8324.21875,10624,128
-605.0000721,-8388608,-31.82251475,-441234,1.044898158,14488,128,-496055,-35.77629456,8343.75,11264,128
-605.0000721,-8388608,-31.75075373,-440239,1.049009091,14545,128,-495160,-35.7117457,8363.28125,11904,128
-605.0000721,-8388608,-31.71317836,-439718,1.068049201,14809,128,-494406,-35.657366,8382.8125,12544,128
-605.0000721,-8388608,-31.71325048,-439719,1.030906562,14294,128,-493892,-35.62029548,8402.34375,13184,128
-605.0000721,-8388608,-31.75710043,-440327,1.023622277,14193,128,-494400,-35.65693327,8421.875,13824,128
-605.0000721,-8388608,-31.80736921,-441024,1.010856749,14016,128,-495639,-35.74629196,8441.40625,14464,128
-605.0000721,-8388608,-31.82648144,-441289,1.011938573,14031,128,-495853,-35.76172599,8460.9375,15104,128
-605.0000721,-8388608,-31.84703611,-441574,1.045835739,14501,128,-496516,-35.80954263,8480.46875,15744,128
-605.0000721,-8388608,-31.8583592,-441731,1.032132629,14311,128,-496673,-35.82086573,8500,16384,128
-605.0000721,-8388608,-31.85727738,-441716,1.058817632,14681,128,-496706,-35.82324574,8519.53125,17024,128
-605.0000721,-8388608,-31.88655876,-442122,1.041724806,14444,128,-497141,-35.85461865,8539.0625,17664,128
-605.0000721,-8388608,-31.86571561,-441833,1.043311482,14466,128,-496678,-35.82122634,8558.59375,18304,128
-605.0000721,-8388608,-31.8750193,-441962,1.023838642,14196,128,-496825,-35.83182822,8578.125,18944,128
-605.0000721,-8388608,-31.85280584,-441654,1.05074001,14569,128,-496667,-35.820433,8597.65625,19584,128
-605.0000721,-8388608,-31.86095558,-441767,1.042446022,14454,128,-496638,-35.81834147,8617.1875,20224,128
-605.0000721,-8388608,-31.86982654,-441890,1.028887156,14266,128,-496911,-35.83803068,8636.71875,20864,128
-605.0000721,-8388608,-31.85785435,-441724,1.050884253,14571,128,-496452,-35.80492685,8656.25,21504,128
-605.0000721,-8388608,-31.85951315,-441747,1.040210252,14423,128,-496701,-35.82288513,8675.78125,22144,128
-605.0000721,-8388608,-31.88367389,-442082,1.035882954,14363,128,-496764,-35.8274288,8695.3125,22784,128
-605.0000721,-8388608,-31.8750193,-441962,1.046845442,14515,128,-497051,-35.8481277,8714.84375,23424,128
-605.0000721,-8388608,-31.85951315,-441747,1.064010389,14753,128,-496626,-35.81747601,8734.375,24064,128
-605.0000721,-8388608,-31.8690332,-441879,1.039777522,14417,128,-496833,-35.83240519,8753.90625,24704,128
-605.0000721,-8388608,-31.86412893,-441811,1.049946672,14558,128,-496496,-35.8081002,8773.4375,25344,128
-605.0000721,-8388608,-31.86477803,-441820,1.044465428,14482,128,-496217,-35.78797827,8792.96875,25984,128
-605.0000721,-8388608,-31.83549664,-441414,1.048648482,14540,128,-495846,-35.76122114,8812.5,26624,128
-605.0000721,-8388608,-31.78342483,-440692,1.063649781,14748,128,-495474,-35.7343919,8832.03125,27264,128
-605.0000721,-8388608,-31.84927188,-441605,1.020593169,14151,128,-496386,-35.80016682,8851.5625,27904,128
-605.0000721,-8388608,-31.87913023,-442019,1.021458628,14163,128,-496793,-35.82952032,8871.09375,28544,128
-605.0000721,-8388608,-31.87646173,-441982,1.023694399,14194,128,-496722,-35.82439969,8890.625,29184,128
-605.0000721,-8388608,-31.91951834,-442579,1.023261669,14188,128,-496663,-35.82014451,8910.15625,29824,128
-605.0000721,-8388608,-31.79344973,-440831,1.07908381,14962,128,-495971,-35.77023635,8929.6875,30464,128
-605.0000721,-8388608,-31.17536738,-432261,1.188564442,16480,128,-489021,-35.26899103,8949.21875,31104,128
-605.0000721,-8388608,-32.01659405,-443925,0.724678126,10048,128,-497543,-35.88361155,8968.75,31744,128
-605.0000721,-8388608,-31.88533269,-442105,1.065885552,14779,128,-497278,-35.86449931,8988.28125,32384,128
-605.0000721,-8388608,-31.87913023,-442019,1.048143631,14533,128,-496046,-35.77564547,9007.8125,33024,128
-605.0000721,-8388608,-31.86023436,-441757,1.046917563,14516,128,-495939,-35.76792845,9027.34375,33664,128
-605.0000721,-8388608,-31.87624536,-441979,1.037613873,14387,128,-496092,-35.77896306,9046.875,34304,128
-605.0000721,-8388608,-31.82576022,-441279,1.061630376,14720,128,-495425,-35.73085794,9066.40625,34944,128
-605.0000721,-8388608,-31.86196528,-441781,1.053769118,14611,128,-495916,-35.76626966,9085.9375,35584,128
-605.0000721,-8388608,-31.81169651,-441084,1.065092214,14768,128,-495401,-35.72912702,9105.46875,36224,128
-605.0000721,-8388608,-31.8316742,-441361,1.053696996,14610,128,-495321,-35.72335729,9125,36864,128
-605.0000721,-8388608,-31.80037341,-440927,1.04634059,14508,128,-494846,-35.68909951,9144.53125,37504,128
-605.0000721,-8388608,-31.74108943,-440105,1.06891466,14821,128,-493854,-35.61755486,9164.0625,38144,128
-605.0000721,-8388608,-31.70748075,-439639,1.058601267,14678,128,-493294,-35.57716675,9183.59375,38784,128
-605.0000721,-8388608,-31.7279633,-439923,1.029319886,14272,128,-493152,-35.56692547,9203.125,39424,128
-605.0000721,-8388608,-31.76654837,-440458,1.018213155,14118,128,-493597,-35.5990196,9222.65625,40064,128
-605.0000721,-8388608,-31.8486949,-441597,0.99008572,13728,128,-494996,-35.69991776,9242.1875,40704,128
-605.0000721,-8388608,-31.86045073,-441760,1.035378103,14356,128,-495340,-35.7247276,9261.71875,41344,128
-605.0000721,-8388608,-31.8540319,-441671,1.043455725,14468,128,-495634,-35.74593136,9281.25,41984,128
-605.0000721,-8388608,-31.88201509,-442059,1.033719305,14333,128,-495650,-35.7470853,9300.78125,42624,128
-605.0000721,-8388608,-31.83491967,-441406,1.068842538,14820,128,-495383,-35.72782883,9320.3125,43264,128
-605.0000721,-8388608,-31.86239801,-441787,1.047710901,14527,128,-495281,-35.72047242,9339.84375,43904,128
-605.0000721,-8388608,-31.85331069,-441661,1.026146534,14228,128,-495502,-35.7364113,9359.375,44544,128
-605.0000721,-8388608,-31.86319135,-441798,1.043311482,14466,128,-495177,-35.71297177,9378.90625,45184,128
-605.0000721,-8388608,-31.84840642,-441593,1.045475131,14496,128,-495467,-35.73388704,9398.4375,45824,128
-605.0000721,-8388608,-31.83044813,-441344,1.059394605,14689,128,-495132,-35.7097263,9417.96875,46464,128
-605.0000721,-8388608,-31.85352705,-441664,1.045186644,14492,128,-495306,-35.72227546,9437.5,47104,128
-605.0000721,-8388608,-31.85742162,-441718,1.046268469,14507,128,-495447,-35.73244461,9457.03125,47744,128
-605.0000721,-8388608,-31.82994328,-441337,1.026939872,14239,128,-495224,-35.71636149,9476.5625,48384,128
-605.0000721,-8388608,-31.87552415,-441969,1.041292076,14438,128,-495546,-35.73958465,9496.09375,49024,128
-605.0000721,-8388608,-31.8520125,-441643,1.044465428,14482,128,-495457,-35.73316583,9515.625,49664,128
-605.0000721,-8388608,-31.83513604,-441409,1.037181143,14381,128,-494893,-35.69248923,9535.15625,50304,128
-605.0000721,-8388608,-31.83088086,-441350,1.050884253,14571,128,-494899,-35.69292196,9554.6875,50944,128
-605.0000721,-8388608,-31.80758557,-441027,1.045979982,14503,128,-494272,-35.6477017,9574.21875,51584,128
-605.0000721,-8388608,-31.80044553,-440928,1.035810832,14362,128,-494122,-35.63688345,9593.75,52224,128
-605.0000721,-8388608,-31.78717515,-440744,1.035017495,14351,128,-494406,-35.657366,9613.28125,52864,128
-605.0000721,-8388608,-31.86347984,-441802,0.998019099,13838,128,-495332,-35.72415062,9632.8125,53504,128
-605.0000721,-8388608,-31.84537731,-441551,1.020881655,14155,128,-495377,-35.7273961,9652.34375,54144,128
-605.0000721,-8388608,-31.87098049,-441906,1.019655588,14138,128,-495470,-35.73410341,9671.875,54784,128
-605.0000721,-8388608,-31.88922726,-442159,1.039344792,14411,128,-495334,-35.72429487,9691.40625,55424,128
-605.0000721,-8388608,-31.65165861,-438865,1.272514018,17644,128,-494778,-35.68419524,9710.9375,56064,128
-605.0000721,-8388608,-31.58848007,-437989,1.064082511,14754,128,-489910,-35.33310715,9730.46875,56704,128
-605.0000721,-8388608,-31.99748182,-443660,0.950130337,13174,128,-496918,-35.83853553,9750,57344,128
-605.0000721,-8388608,-31.88576542,-442111,1.055932767,14641,128,-495723,-35.75235018,9769.53125,57984,128
-605.0000721,-8388608,-31.84977673,-441612,1.063000687,14739,128,-494691,-35.67792066,9789.0625,58624,128
-605.0000721,-8388608,-31.82994328,-441337,1.058673389,14679,128,-494295,-35.6493605,9808.59375,59264,128
-605.0000721,-8388608,-31.83174632,-441362,1.060404308,14703,128,-494269,-35.64748533,9828.125,59904,128
-605.0000721,-8388608,-31.81523047,-441133,1.063217051,14742,128,-494300,-35.6497211,9847.65625,60544,128
-605.0000721,-8388608,-31.79135821,-440802,1.054346091,14619,128,-493869,-35.61863668,9867.1875,61184,128
-605.0000721,-8388608,-31.79849825,-440901,1.055427916,14634,128,-493685,-35.6053663,9886.71875,61824,128
-605.0000721,-8388608,-31.7626538,-440404,1.077713499,14943,128,-493161,-35.56757457,9906.25,62464,128
-605.0000721,-8388608,-31.74534461,-440164,1.073169836,14880,128,-492742,-35.53735561,9925.78125,63104,128
-605.0000721,-8388608,-31.68771943,-439365,1.072376498,14869,128,-491694,-35.46177214,9945.3125,63744,128
-605.0000721,-8388608,-31.66730901,-439082,1.04987455,14557,128,-490832,-35.3996033,9964.84375,64384,128
-605.0000721,-8388608,-31.70942804,-439666,1.042373901,14453,128,-491173,-35.42419677,9984.375,65024,128
-605.0000721,-8388608,-31.78558848,-440722,1.030545954,14289,128,-492269,-35.50324208,10003.90625,128,128
-605.0000721,-8388608,-31.80592678,-441004,1.033719305,14333,128,-492921,-35.55026538,10023.4375,768,128
-605.0000721,-8388608,-31.80672011,-441015,1.051821834,14584,128,-493392,-35.58423466,10042.96875,1408,128
-605.0000721,-8388608,-31.83628998,-441425,1.06184674,14723,128,-493570,-35.59707231,10062.5,2048,128
-605.0000721,-8388608,-31.81912503,-441187,1.049658185,14554,128,-493257,-35.57449825,10082.03125,2688,128
-605.0000721,-8388608,-31.87134109,-441911,1.010135533,14006,128,-493408,-35.58538861,10101.5625,3328,128
-605.0000721,-8388608,-31.81227348,-441092,1.06624616,14784,128,-492997,-35.55574662,10121.09375,3968,128
-605.0000721,-8388608,-31.81407652,-441117,1.046845442,14515,128,-492659,-35.53136951,10140.625,4608,128
-605.0000721,-8388608,-31.83628998,-441425,1.029608372,14276,128,-493149,-35.56670911,10160.15625,5248,128
-605.0000721,-8388608,-31.82164929,-441222,1.027444724,14246,128,-492708,-35.53490347,10179.6875,5888,128
-605.0000721,-8388608,-31.82648144,-441289,1.032998089,14323,128,-492547,-35.52329189,10199.21875,6528,128
-605.0000721,-8388608,-31.80037341,-440927,1.032493238,14316,128,-492307,-35.5059827,10218.75,7168,128
-605.0000721,-8388608,-31.8306645,-441347,1.033286575,14327,128,-492457,-35.51680094,10238.28125,7808,128
-605.0000721,-8388608,-31.8380209,-441449,1.030762318,14292,128,-492333,-35.50785786,10257.8125,8448,128
-605.0000721,-8388608,-31.79308913,-440826,1.044249063,14479,128,-491772,-35.46739763,10277.34375,9088,128
-605.0000721,-8388608,-31.85244523,-441649,1.065092214,14768,128,-492046,-35.48715895,10296.875,9728,128
-605.0000721,-8388608,-31.7679908,-440478,1.090118419,15115,128,-491432,-35.44287627,10316.40625,10368,128
-605.0000721,-8388608,-31.78407392,-440701,1.048864847,14543,128,-491473,-35.44583326,10335.9375,11008,128
-605.0000721,-8388608,-31.80571041,-441001,1.039056306,14407,128,-492056,-35.48788017,10355.46875,11648,128
-605.0000721,-8388608,-31.83138571,-441357,1.03480113,14348,128,-492197,-35.49804932,10375,12288,128
-605.0000721,-8388608,-31.84213183,-441506,1.033647184,14332,128,-492096,-35.49076503,10394.53125,12928,128
-605.0000721,-8388608,-31.88634239,-442119,0.995783329,13807,128,-491941,-35.47958618,10414.0625,13568,128
-605.0000721,-8388608,-31.41372936,-435566,1.197074794,16598,128,-487862,-35.18540206,10433.59375,14208,128
-605.0000721,-8388608,-31.59641345,-438099,0.827307204,11471,128,-484728,-34.95937287,10453.125,14848,128
-605.0000721,-8388608,-31.98175931,-443442,0.92546474,12832,128,-493109,-35.56382424,10472.65625,15488,128
-605.0000721,-8388608,-31.84653125,-441567,1.070717701,14846,128,-491352,-35.43710654,10492.1875,16128,128
-605.0000721,-8388608,-31.85100279,-441629,1.055716402,14638,128,-491141,-35.42188888,10511.71875,16768,128
-605.0000721,-8388608,-31.82489477,-441267,1.054634578,14623,128,-490585,-35.38178925,10531.25,17408,128
-605.0000721,-8388608,-31.81811533,-441173,1.047999388,14531,128,-490344,-35.36440794,10550.78125,18048,128
-605.0000721,-8388608,-31.83246754,-441372,1.029824737,14279,128,-490685,-35.38900142,10570.3125,18688,128
-605.0000721,-8388608,-31.76820716,-440481,1.054850942,14626,128,-489987,-35.33866052,10589.84375,19328,128
-605.0000721,-8388608,-31.81018195,-441063,1.05254305,14594,128,-489821,-35.32668833,10609.375,19968,128
-605.0000721,-8388608,-31.77080354,-440517,1.045330887,14494,128,-489136,-35.27728501,10628.90625,20608,128
-605.0000721,-8388608,-31.707625,-439641,1.084925662,15043,128,-488386,-35.22319379,10648.4375,21248,128
-605.0000721,-8388608,-31.68497881,-439327,1.074107417,14893,128,-487558,-35.16347708,10667.96875,21888,128
-605.0000721,-8388608,-31.64430221,-438763,1.067616471,14803,128,-486701,-35.10166885,10687.5,22528,128
-605.0000721,-8388608,-31.69781646,-439505,1.010063411,14005,128,-487198,-35.1375133,10707.03125,23168,128
-605.0000721,-8388608,-31.78919456,-440772,1.00292337,13906,128,-488372,-35.22218409,10726.5625,23808,128
-605.0000721,-8388608,-31.8210002,-441213,1.021602872,14165,128,-489404,-35.29661361,10746.09375,24448,128
-605.0000721,-8388608,-31.78948305,-440776,1.053985483,14614,128,-489352,-35.29286328,10765.625,25088,128
-605.0000721,-8388608,-31.83347724,-441386,1.015472533,14080,128,-489787,-35.32423619,10785.15625,25728,128
-605.0000721,-8388608,-31.81119166,-441077,1.025713804,14222,128,-489409,-35.29697422,10804.6875,26368,128
-605.0000721,-8388608,-31.83513604,-441409,1.019655588,14138,128,-489934,-35.33483807,10824.21875,27008,128
-605.0000721,-8388608,-31.82273112,-441237,1.067904957,14807,128,-489784,-35.32401983,10843.75,27648,128
-605.0000721,-8388608,-31.80780194,-441030,1.041364198,14439,128,-489534,-35.30598942,10863.28125,28288,128
-605.0000721,-8388608,-31.78371331,-440696,1.058024294,14670,128,-489639,-35.31356219,10882.8125,28928,128
-605.0000721,-8388608,-31.78962729,-440778,1.045547252,14497,128,-489496,-35.3032488,10902.34375,29568,128
-605.0000721,-8388608,-31.80325828,-440967,1.048792726,14542,128,-489522,-35.30512396,10921.875,30208,128
-605.0000721,-8388608,-31.80354676,-440971,1.02816594,14256,128,-489891,-35.33173684,10941.40625,30848,128
-605.0000721,-8388608,-31.78414604,-440702,1.019871953,14141,128,-489532,-35.30584518,10960.9375,31488,128
-605.0000721,-8388608,-31.81970201,-441195,1.045330887,14494,128,-489983,-35.33837203,10980.46875,32128,128
-605.0000721,-8388608,-31.7973443,-440885,1.035378103,14356,128,-489404,-35.29661361,11000,32768,128
-605.0000721,-8388608,-31.78537211,-440719,1.033286575,14327,128,-488785,-35.25197032,11019.53125,33408,128
-605.0000721,-8388608,-31.71087047,-439686,1.082329283,15007,128,-488204,-35.21006765,11039.0625,34048,128
-605.0000721,-8388608,-31.76229319,-440399,1.029752616,14278,128,-488627,-35.2405751,11058.59375,34688,128
-605.0000721,-8388608,-31.78695879,-440741,1.017780425,14112,128,-489344,-35.29228631,11078.125,35328,128
-605.0000721,-8388608,-31.82323597,-441244,1.014246465,14063,128,-490005,-35.33995871,11097.65625,35968,128
-605.0000721,-8388608,-31.81220136,-441091,1.016842844,14099,128,-489913,-35.33332352,11117.1875,36608,128
-605.0000721,-8388608,-31.83398209,-441393,1.029824737,14279,128,-489371,-35.2942336,11136.71875,37248,128
-605.0000721,-8388608,-31.29891173,-433974,1.228880433,17039,128,-484734,-34.9598056,11156.25,37888,128
-605.0000721,-8388608,-31.53345126,-437226,0.842813354,11686,128,-483358,-34.86056624,11175.78125,38528,128
-605.0000721,-8388608,-31.86109982,-441769,0.92986416,12893,128,-491286,-35.43234651,11195.3125,39168,128
-605.0000721,-8388608,-31.78796849,-440755,1.066029795,14781,128,-489139,-35.27750138,11214.84375,39808,128
-605.0000721,-8388608,-31.78529999,-440718,1.061125524,14713,128,-489174,-35.28002563,11234.375,40448,128
-605.0000721,-8388608,-31.79864249,-440903,1.041147833,14436,128,-488915,-35.26134613,11253.90625,41088,128
-605.0000721,-8388608,-31.75046524,-440235,1.079228053,14964,128,-488616,-35.23978177,11273.4375,41728,128
-605.0000721,-8388608,-31.74260399,-440126,1.059755213,14694,128,-488376,-35.22247258,11292.96875,42368,128
-605.0000721,-8388608,-31.76171622,-440391,1.029824737,14279,128,-488571,-35.23653629,11312.5,43008,128
-605.0000721,-8388608,-31.73568031,-440030,1.045330887,14494,128,-488304,-35.21727982,11332.03125,43648,128
-605.0000721,-8388608,-31.73560819,-440029,1.047855144,14529,128,-488087,-35.20162942,11351.5625,44288,128
-605.0000721,-8388608,-31.67336722,-439166,1.070429214,14842,128,-487229,-35.13974907,11371.09375,44928,128
-605.0000721,-8388608,-31.60557289,-438226,1.080093513,14976,128,-485960,-35.04822672,11390.625,45568,128
-605.0000721,-8388608,-31.65526469,-438915,1.011650087,14027,128,-485942,-35.04692853,11410.15625,46208,128
-605.0000721,-8388608,-31.6659387,-439063,1.031195048,14298,128,-485901,-35.04397154,11429.6875,46848,128
-605.0000721,-8388608,-31.7353197,-440025,1.000254869,13869,128,-487509,-35.15994312,11449.21875,47488,128
-605.0000721,-8388608,-31.74606582,-440174,1.014679195,14069,128,-488202,-35.20992341,11468.75,48128,128
-605.0000721,-8388608,-31.74224338,-440121,1.015039803,14074,128,-488279,-35.21547678,11488.28125,48768,128
-605.0000721,-8388608,-31.7363294,-440039,1.008837343,13988,128,-488222,-35.21136584,11507.8125,49408,128
-605.0000721,-8388608,-31.74707553,-440188,1.029247764,14271,128,-488368,-35.2218956,11527.34375,50048,128
-605.0000721,-8388608,-31.77260658,-440542,1.015616776,14082,128,-488652,-35.24237814,11546.875,50688,128
-605.0000721,-8388608,-31.72969422,-439947,1.057880051,14668,128,-488107,-35.20307186,11566.40625,51328,128
-605.0000721,-8388608,-31.76438472,-440428,1.011577965,14026,128,-488285,-35.21590951,11585.9375,51968,128
-605.0000721,-8388608,-31.74859008,-440209,1.023622277,14193,128,-488073,-35.20061972,11605.46875,52608,128
-605.0000721,-8388608,-31.74685916,-440185,1.030545954,14289,128,-488000,-35.19535484,11625,53248,128
-605.0000721,-8388608,-31.71988567,-439811,1.031772021,14306,128,-487864,-35.1855463,11644.53125,53888,128
-605.0000721,-8388608,-31.70733651,-439637,1.06184674,14723,128,-487804,-35.181219,11664.0625,54528,128
-605.0000721,-8388608,-31.75955257,-440361,1.021242263,14160,128,-488232,-35.21208706,11683.59375,55168,128
-605.0000721,-8388608,-31.73055967,-439959,1.029319886,14272,128,-488092,-35.20199003,11703.125,55808,128
-605.0000721,-8388608,-31.74411854,-440147,1.024704102,14208,128,-488121,-35.20408156,11722.65625,56448,128
-605.0000721,-8388608,-31.73467061,-440016,1.026579264,14234,128,-487535,-35.16181829,11742.1875,57088,128
-605.0000721,-8388608,-31.69118127,-439413,1.04677332,14514,128,-487085,-35.12936355,11761.71875,57728,128
-605.0000721,-8388608,-31.66875144,-439102,1.047422415,14523,128,-487038,-35.12597384,11781.25,58368,128
-605.0000721,-8388608,-31.69925889,-439525,1.020016196,14143,128,-488058,-35.1995379,11800.78125,59008,128
-605.0000721,-8388608,-31.73488697,-440019,1.032060508,14310,128,-488524,-35.23314658,11820.3125,59648,128
-605.0000721,-8388608,-31.72349175,-439861,1.055932767,14641,128,-488158,-35.20675006,11839.84375,60288,128
-605.0000721,-8388608,-31.73221847,-439982,1.050090915,14560,128,-488079,-35.20105245,11859.375,60928,128
-605.0000721,-8388608,-31.56136233,-437613,1.207243944,16739,128,-487293,-35.14436485,11878.90625,61568,128
-605.0000721,-8388608,-31.15394725,-431964,1.172048589,16251,128,-478239,-34.49137562,11898.4375,62208,128
-605.0000721,-8388608,-31.81804321,-441172,0.916233172,12704,128,-489267,-35.28673295,11917.96875,62848,128
-605.0000721,-8388608,-31.74700341,-440187,1.042950874,14461,128,-488417,-35.22542956,11937.5,63488,128
-605.0000721,-8388608,-31.7466428,-440182,1.04367209,14471,128,-487492,-35.15871706,11957.03125,64128,128
-605.0000721,-8388608,-31.7226263,-439849,1.032493238,14316,128,-487002,-35.12337746,11976.5625,64768,128
-605.0000721,-8388608,-31.69983586,-439533,1.057735808,14666,128,-486861,-35.11320831,11996.09375,65408,128
-605.0000721,-8388608,-31.72392448,-439867,1.023694399,14194,128,-487179,-35.13614299,12015.625,512,128
-605.0000721,-8388608,-31.67892059,-439243,1.042590266,14456,128,-486662,-35.0988561,12035.15625,1152,128
-605.0000721,-8388608,-31.69247945,-439431,1.03126717,14299,128,-486261,-35.06993533,12054.6875,1792,128
-605.0000721,-8388608,-31.62107904,-438441,1.057014591,14656,128,-485624,-35.02399385,12074.21875,2432,128
-605.0000721,-8388608,-31.65180286,-438867,1.035882954,14363,128,-485381,-35.0064683,12093.75,3072,128
-605.0000721,-8388608,-31.59619708,-438096,1.043888455,14474,128,-484531,-34.94516491,12113.28125,3712,128
-605.0000721,-8388608,-31.57174785,-437757,1.048143631,14533,128,-484178,-34.91970598,12132.8125,4352,128
-605.0000721,-8388608,-31.56583387,-437675,1.022251966,14174,128,-483659,-34.88227485,12152.34375,4992,128
-605.0000721,-8388608,-31.65324529,-438887,1.0086931,13986,128,-484909,-34.97242689,12171.875,5632,128
-605.0000721,-8388608,-31.66846295,-439098,1.013813736,14057,128,-485574,-35.02038777,12191.40625,6272,128
-605.0000721,-8388608,-31.67069872,-439129,1.044176941,14478,128,-486015,-35.05219341,12210.9375,6912,128
-605.0000721,-8388608,-31.71772202,-439781,1.01222706,14035,128,-486688,-35.10073127,12230.46875,7552,128
-605.0000721,-8388608,-31.71469292,-439739,1.02730048,14244,128,-486909,-35.11667015,12250,8192,128
-605.0000721,-8388608,-31.71844324,-439791,1.03083444,14293,128,-486836,-35.11140527,12269.53125,8832,128
-605.0000721,-8388608,-31.72017416,-439815,1.034729008,14347,128,-486504,-35.08746089,12289.0625,9472,128
-605.0000721,-8388608,-31.68851276,-439376,1.03126717,14299,128,-486039,-35.05392433,12308.59375,10112,128
-605.0000721,-8388608,-31.68404122,-439314,1.049946672,14558,128,-486064,-35.05572737,12328.125,10752,128
-605.0000721,-8388608,-31.66218837,-439011,1.040931468,14433,128,-485679,-35.02796054,12347.65625,11392,128
-605.0000721,-8388608,-31.71108683,-439689,1.013741614,14056,128,-486189,-35.06474257,12367.1875,12032,128
-605.0000721,-8388608,-31.68223818,-439289,1.03790236,14391,128,-485806,-35.03711999,12386.71875,12672,128
-605.0000721,-8388608,-31.70445164,-439597,0.997658491,13833,128,-486349,-35.07628203,12406.25,13312,128
-605.0000721,-8388608,-31.67242964,-439153,1.038118725,14394,128,-485985,-35.05002976,12425.78125,13952,128
-605.0000721,-8388608,-31.69327279,-439442,1.027228359,14243,128,-486027,-35.05305887,12445.3125,14592,128
-605.0000721,-8388608,-31.68678185,-439352,1.041796928,14445,128,-486244,-35.06870926,12464.84375,15232,128
-605.0000721,-8388608,-31.68332001,-439304,1.04280663,14459,128,-485924,-35.04563034,12484.375,15872,128
-605.0000721,-8388608,-31.68346425,-439306,1.045979982,14503,128,-485417,-35.00906468,12503.90625,16512,128
-605.0000721,-8388608,-31.63622458,-438651,1.080309877,14979,128,-485101,-34.98627424,12523.4375,17152,128
-605.0000721,-8388608,-31.64199431,-438731,1.049586064,14553,128,-485609,-35.02291203,12542.96875,17792,128
-605.0000721,-8388608,-31.63975854,-438700,1.038479333,14399,128,-485775,-35.03488422,12562.5,18432,128
-605.0000721,-8388608,-31.67358359,-439169,1.016121628,14089,128,-485916,-35.04505337,12582.03125,19072,128
-605.0000721,-8388608,-31.70841833,-439652,1.018790128,14126,128,-486524,-35.08890332,12601.5625,19712,128
-605.0000721,-8388608,-31.72623238,-439899,1.028238061,14257,128,-486241,-35.0684929,12621.09375,20352,128
-605.0000721,-8388608,-31.2861462,-433797,1.313911833,18218,128,-483068,-34.83965097,12640.625,20992,128
-605.0000721,-8388608,-31.2951614,-433922,0.978041408,13561,128,-477682,-34.45120388,12660.15625,21632,128
-605.0000721,-8388608,-31.76373562,-440419,0.825648406,11448,128,-487652,-35.17025652,12679.6875,22272,128
-605.0000721,-8388608,-31.71779415,-439782,0.825648406,11448,128,-486302,-35.07289232,12699.21875,22912,128
-605.0000721,-8388608,-31.66348656,-439029,1.04367209,14471,128,-485604,-35.02255142,12718.75,23552,128
-605.0000721,-8388608,-31.67978605,-439255,1.044753914,14486,128,-485804,-35.03697575,12738.28125,24192,128
-605.0000721,-8388608,-31.69507583,-439467,1.03660417,14373,128,-485427,-35.00978589,12757.8125,24832,128
-605.0000721,-8388608,-31.62800272,-438537,1.058024294,14670,128,-485010,-34.97971117,12777.34375,25472,128
-605.0000721,-8388608,-31.6679581,-439091,1.024343494,14203,128,-485304,-35.00091493,12796.875,26112,128
-605.0000721,-8388608,-31.61905964,-438413,1.06314493,14741,128,-484572,-34.9481219,12816.40625,26752,128
-605.0000721,-8388608,-31.64343675,-438751,1.028021697,14254,128,-484806,-34.96499836,12835.9375,27392,128
-605.0000721,-8388608,-31.57131512,-437751,1.056293375,14646,128,-483508,-34.87138449,12855.46875,28032,128
-605.0000721,-8388608,-31.56035263,-437599,1.050595766,14567,128,-482691,-34.81246112,12875,28672,128
-605.0000721,-8388608,-31.52486879,-437107,1.032204751,14312,128,-481942,-34.75844202,12894.53125,29312,128
-605.0000721,-8388608,-31.59013886,-438012,1.008188249,13979,128,-482524,-34.8004168,12914.0625,29952,128
-605.0000721,-8388608,-31.62432452,-438486,1.00162518,13888,128,-483196,-34.84888254,12933.59375,30592,128
-605.0000721,-8388608,-31.66276534,-439019,1.015688898,14083,128,-484464,-34.94033276,12953.125,31232,128
-605.0000721,-8388608,-31.66355868,-439030,1.031050805,14296,128,-484701,-34.95742559,12972.65625,31872,128
-605.0000721,-8388608,-31.71375534,-439726,0.980277178,13592,128,-485207,-34.99391913,12992.1875,32512,128
-605.0000721,-8388608,-31.65504833,-438912,1.064659484,14762,128,-484879,-34.97026324,13011.71875,33152,128
-605.0000721,-8388608,-31.7059662,-439618,1.011000992,14018,128,-485474,-35.01317561,13031.25,33792,128
-605.0000721,-8388608,-31.64978345,-438839,1.055139429,14630,128,-484790,-34.96384441,13050.78125,34432,128
-605.0000721,-8388608,-31.65988048,-438979,1.036820535,14376,128,-484659,-34.95439648,13070.3125,35072,128
-605.0000721,-8388608,-31.67610784,-439204,1.039921765,14419,128,-484934,-34.97422993,13089.84375,35712,128
-605.0000721,-8388608,-31.68180545,-439283,1.033430819,14329,128,-484777,-34.96290683,13109.375,36352,128
-605.0000721,-8388608,-31.67185267,-439145,1.019511344,14136,128,-484668,-34.95504558,13128.90625,36992,128
-605.0000721,-8388608,-31.68707033,-439356,1.011938573,14031,128,-485147,-34.98959184,13148.4375,37632,128
-605.0000721,-8388608,-31.65988048,-438979,1.02859867,14262,128,-484569,-34.94790553,13167.96875,38272,128
-605.0000721,-8388608,-31.65050467,-438849,1.029752616,14278,128,-484531,-34.94516491,13187.5,38912,128
-605.0000721,-8388608,-31.68533941,-439332,1.017852547,14113,128,-484841,-34.96752262,13207.03125,39552,128
-605.0000721,-8388608,-31.67408844,-439176,1.019871953,14141,128,-484829,-34.96665716,13226.5625,40192,128
-605.0000721,-8388608,-31.65757259,-438947,1.029608372,14276,128,-484602,-34.95028555,13246.09375,40832,128
-605.0000721,-8388608,-31.6449513,-438772,1.035738711,14361,128,-484082,-34.9127823,13265.625,41472,128
-605.0000721,-8388608,-31.62100692,-438440,1.046629077,14512,128,-483656,-34.88205849,13285.15625,42112,128
-605.0000721,-8388608,-31.62756999,-438531,1.021314385,14161,128,-484054,-34.9107629,13304.6875,42752,128
-605.0000721,-8388608,-31.64733131,-438805,1.01842952,14121,128,-484287,-34.92756723,13324.21875,43392,128
-605.0000721,-8388608,-31.69219097,-439427,1.014679195,14069,128,-484896,-34.97148931,13343.75,44032,128
-605.0000721,-8388608,-31.69110914,-439412,1.024055007,14199,128,-484859,-34.96882081,13363.28125,44672,128
-605.0000721,-8388608,-31.68151697,-439279,0.992609977,13763,128,-484407,-34.93622183,13382.8125,45312,128
-605.0000721,-8388608,-31.30093113,-434002,1.272225532,17640,128,-482984,-34.83359275,13402.34375,45952,128
-605.0000721,-8388608,-31.18784442,-432434,1.04453755,14483,128,-476395,-34.35838334,13421.875,46592,128
-605.0000721,-8388608,-31.78162179,-440667,0.932388417,12928,128,-486921,-35.11753561,13441.40625,47232,128
-605.0000721,-8388608,-31.71050986,-439681,1.027661088,14249,128,-485416,-35.00899255,13460.9375,47872,128
-605.0000721,-8388608,-31.68519517,-439330,1.023910764,14197,128,-484801,-34.96463775,13480.46875,48512,128
-605.0000721,-8388608,-31.63341184,-438612,1.050163037,14561,128,-484146,-34.91739809,13500,49152,128
-605.0000721,-8388608,-31.67459329,-439183,1.008188249,13979,128,-484378,-34.9341303,13519.53125,49792,128
-605.0000721,-8388608,-31.66024109,-438984,1.024848345,14210,128,-484437,-34.93838548,13539.0625,50432,128
-605.0000721,-8388608,-31.63809975,-438677,1.037758116,14389,128,-483959,-34.90391134,13558.59375,51072,128
-605.0000721,-8388608,-31.62922879,-438554,1.038984184,14406,128,-483596,-34.87773119,13578.125,51712,128
-605.0000721,-8388608,-31.62872393,-438547,1.019511344,14136,128,-483687,-34.88429426,13597.65625,52352,128
-605.0000721,-8388608,-31.57052178,-437740,1.059466727,14690,128,-482879,-34.82601998,13617.1875,52992,128
-605.0000721,-8388608,-31.54715437,-437416,1.030473832,14288,128,-482189,-34.77625606,13636.71875,53632,128
-605.0000721,-8388608,-31.52825851,-437154,1.029392008,14273,128,-481637,-34.73644492,13656.25,54272,128
-605.0000721,-8388608,-31.55616958,-437541,1.022251966,14174,128,-481715,-34.74207041,13675.78125,54912,128
-605.0000721,-8388608,-31.60485168,-438216,1.000038505,13866,128,-482179,-34.77553484,13695.3125,55552,128
-605.0000721,-8388608,-31.66226049,-439012,1.017852547,14113,128,-483724,-34.88696276,13714.84375,56192,128
-605.0000721,-8388608,-31.69406613,-439453,1.006529451,13956,128,-483934,-34.9021083,13734.375,56832,128
-605.0000721,-8388608,-31.68454608,-439321,1.028526548,14261,128,-483796,-34.89215552,13753.90625,57472,128
-605.0000721,-8388608,-31.69615766,-439482,1.025569561,14220,128,-484404,-34.93600547,13773.4375,58112,128
-605.0000721,-8388608,-31.67437693,-439180,1.037325387,14383,128,-483994,-34.9064356,13792.96875,58752,128
-605.0000721,-8388608,-31.70077344,-439546,1.02859867,14262,128,-484006,-34.90730106,13812.5,59392,128
-605.0000721,-8388608,-31.67307874,-439162,1.02816594,14256,128,-483758,-34.88941489,13832.03125,60032,128
-605.0000721,-8388608,-31.70091769,-439548,0.999894261,13864,128,-484296,-34.92821633,13851.5625,60672,128
-605.0000721,-8388608,-31.68872913,-439379,1.024776223,14209,128,-484083,-34.91285442,13871.09375,61312,128
-605.0000721,-8388608,-31.68923398,-439386,1.020593169,14151,128,-484582,-34.94884312,13890.625,61952,128
-605.0000721,-8388608,-31.68368062,-439309,1.014823439,14071,128,-484137,-34.91674899,13910.15625,62592,128
-605.0000721,-8388608,-31.69947525,-439528,1.00955856,13998,128,-484166,-34.91884052,13929.6875,63232,128
-605.0000721,-8388608,-31.69154187,-439418,1.022107723,14172,128,-484326,-34.93037998,13949.21875,63872,128
-605.0000721,-8388608,-31.66651567,-439071,0.996143937,13812,128,-483963,-34.90419983,13968.75,64512,128
-605.0000721,-8388608,-31.70409104,-439592,1.014246465,14063,128,-484360,-34.93283211,13988.28125,65152,128
-605.0000721,-8388608,-31.68908974,-439384,1.013597371,14054,128,-484310,-34.92922603,14007.8125,256,128
-605.0000721,-8388608,-31.66925629,-439109,1.031411413,14301,128,-483432,-34.86590324,14027.34375,896,128
-605.0000721,-8388608,-31.65137013,-438861,1.02730048,14244,128,-483593,-34.87751482,14046.875,1536,128
-605.0000721,-8388608,-31.61942024,-438418,1.03350294,14330,128,-483421,-34.8651099,14066.40625,2176,128
-605.0000721,-8388608,-31.70171102,-439559,0.969026204,13436,128,-484475,-34.9411261,14085.9375,2816,128
-605.0000721,-8388608,-31.69832131,-439512,0.999677896,13861,128,-484591,-34.94949221,14105.46875,3456,128
-605.0000721,-8388608,-31.70769712,-439642,1.004798532,13932,128,-484722,-34.95894014,14125,4096,128
-605.0000721,-8388608,-31.72738632,-439915,0.996432423,13816,128,-484644,-34.95331466,14144.53125,4736,128
-605.0000721,-8388608,-31.38242857,-435132,1.210850026,16789,128,-483091,-34.84130977,14164.0625,5376,128
-605.0000721,-8388608,-31.19830205,-432579,0.781726334,10839,128,-476297,-34.35131542,14183.59375,6016,128
-605.0000721,-8388608,-31.8023207,-440954,0.896039116,12424,128,-486373,-35.07801295,14203.125,6656,128
-605.0000721,-8388608,-31.70906743,-439661,1.032204751,14312,128,-485233,-34.9957943,14222.65625,7296,128
-605.0000721,-8388608,-31.73185786,-439977,1.008837343,13988,128,-484835,-34.96708989,14242.1875,7936,128
-605.0000721,-8388608,-31.72716996,-439912,1.002779126,13904,128,-484709,-34.95800256,14261.71875,8576,128
-605.0000721,-8388608,-31.63802762,-438676,1.022901061,14183,128,-483766,-34.88999187,14281.25,9216,128
-605.0000721,-8388608,-31.67069872,-439129,1.011505844,14025,128,-483977,-34.90520953,14300.78125,9856,128
-605.0000721,-8388608,-31.67286237,-439159,0.994557261,13790,128,-484280,-34.92706238,14320.3125,10496,128
-605.0000721,-8388608,-31.66615506,-439066,1.009270073,13994,128,-484177,-34.91963386,14339.84375,11136,128
-605.0000721,-8388608,-31.61350627,-438336,1.034656886,14346,128,-483485,-34.86972569,14359.375,11776,128
-605.0000721,-8388608,-31.60607774,-438233,1.011073114,14019,128,-483049,-34.83828066,14378.90625,12416,128
-605.0000721,-8388608,-31.5632375,-437639,1.033719305,14333,128,-482274,-34.7823864,14398.4375,13056,128
-605.0000721,-8388608,-31.53633613,-437266,1.032204751,14312,128,-481552,-34.73031458,14417.96875,13696,128
-605.0000721,-8388608,-31.59316797,-438054,1.002779126,13904,128,-481947,-34.75880262,14437.5,14336,128
-605.0000721,-8388608,-31.592591,-438046,1.005087019,13936,128,-482466,-34.79623375,14457.03125,14976,128
-605.0000721,-8388608,-31.67084297,-439131,1.023910764,14197,128,-483804,-34.89273249,14476.5625,15616,128
-605.0000721,-8388608,-31.70207163,-439564,1.008188249,13979,128,-484537,-34.94559764,14496.09375,16256,128
-605.0000721,-8388608,-31.69536432,-439471,1.047061807,14518,128,-484714,-34.95836317,14515.625,16896,128
-605.0000721,-8388608,-31.70091769,-439548,1.036243562,14368,128,-484639,-34.95295405,14535.15625,17536,128
-605.0000721,-8388608,-31.6926237,-439433,1.042229657,14451,128,-484318,-34.92980301,14554.6875,18176,128
-605.0000721,-8388608,-31.70445164,-439597,1.022973183,14184,128,-484425,-34.93752002,14574.21875,18816,128
-605.0000721,-8388608,-31.67747816,-439223,1.015400412,14079,128,-483952,-34.90340649,14593.75,19456,128
-605.0000721,-8388608,-31.68122848,-439275,1.032348994,14314,128,-484427,-34.93766426,14613.28125,20096,128
-605.0000721,-8388608,-31.68584426,-439339,1.01532829,14078,128,-484551,-34.94660734,14632.8125,20736,128
-605.0000721,-8388608,-31.65858229,-438961,1.061486132,14718,128,-484861,-34.96896505,14652.34375,21376,128
-605.0000721,-8388608,-31.67538663,-439194,1.037253265,14382,128,-485206,-34.99384701,14671.875,22016,128
-605.0000721,-8388608,-31.70603832,-439619,1.013236763,14049,128,-485522,-35.01663745,14691.40625,22656,128
-605.0000721,-8388608,-31.70459589,-439599,1.027949575,14253,128,-485339,-35.00343919,14710.9375,23296,128
-605.0000721,-8388608,-31.70351406,-439584,1.037397508,14384,128,-485787,-35.03574968,14730.46875,23936,128
-605.0000721,-8388608,-31.6926237,-439433,1.042373901,14453,128,-485099,-34.98613,14750,24576,128
-605.0000721,-8388608,-31.7069759,-439632,1.043455725,14468,128,-484631,-34.95237708,14769.53125,25216,128
-605.0000721,-8388608,-31.62901242,-438551,1.057158835,14658,128,-483617,-34.87924574,14789.0625,25856,128
-605.0000721,-8388608,-31.6149487,-438356,1.046196347,14506,128,-483066,-34.83950673,14808.59375,26496,128
-605.0000721,-8388608,-31.68115636,-439274,0.999894261,13864,128,-483787,-34.89150642,14828.125,27136,128
-605.0000721,-8388608,-31.69824918,-439511,1.011433722,14024,128,-483701,-34.88530396,14847.65625,27776,128
-605.0000721,-8388608,-31.68952247,-439390,1.028526548,14261,128,-483839,-34.89525675,14867.1875,28416,128
-605.0000721,-8388608,-31.70149466,-439556,1.025858048,14224,128,-483603,-34.87823604,14886.71875,29056,128
-605.0000721,-8388608,-31.59929831,-438139,1.260902436,17483,128,-483537,-34.87347601,14906.25,29696,128
-605.0000721,-8388608,-31.32018761,-434269,1.04280663,14459,128,-476381,-34.35737364,14925.78125,30336,128
-605.0000721,-8388608,-31.82597659,-441282,0.928421727,12873,128,-485711,-35.03026843,14945.3125,30976,128
-605.0000721,-8388608,-31.68476244,-439324,1.040931468,14433,128,-484165,-34.9187684,14964.84375,31616,128
-605.0000721,-8388608,-31.71490928,-439742,1.023838642,14196,128,-484006,-34.90730106,14984.375,32256,128
-605.0000721,-8388608,-31.67560299,-439197,1.029824737,14279,128,-483710,-34.88595306,15003.90625,32896,128
-605.0000721,-8388608,-31.66918417,-439108,1.023982885,14198,128,-483612,-34.87888514,15023.4375,33536,128
-605.0000721,-8388608,-31.67105933,-439134,1.021674993,14166,128,-483825,-34.89424704,15042.96875,34176,128
-605.0000721,-8388608,-31.65504833,-438912,1.013092519,14047,128,-483761,-34.88963126,15062.5,34816,128
-605.0000721,-8388608,-31.65086527,-438854,1.020737412,14153,128,-483656,-34.88205849,15082.03125,35456,128
-605.0000721,-8388608,-31.59468253,-438075,1.054923064,14627,128,-483345,-34.85962866,15101.5625,36096,128
-605.0000721,-8388608,-31.62079056,-438437,1.048215753,14534,128,-482856,-34.82436118,15121.09375,36736,128
-605.0000721,-8388608,-31.52753729,-437144,1.059394605,14689,128,-481763,-34.74553224,15140.625,37376,128
-605.0000721,-8388608,-31.54239435,-437350,1.04367209,14471,128,-481638,-34.73651704,15160.15625,38016,128
-605.0000721,-8388608,-31.56965632,-437728,1.010135533,14006,128,-481328,-34.71415934,15179.6875,38656,128
-605.0000721,-8388608,-31.63882096,-438687,0.984099625,13645,128,-482478,-34.79709921,15199.21875,39296,128
-605.0000721,-8388608,-31.67935332,-439249,1.006745816,13959,128,-483577,-34.87636088,15218.75,39936,128
-605.0000721,-8388608,-31.69702312,-439494,0.999533653,13859,128,-483853,-34.89626645,15238.28125,40576,128
-605.0000721,-8388608,-31.68851276,-439376,1.031772021,14306,128,-484011,-34.90766167,15257.8125,41216,128
-605.0000721,-8388608,-31.712962,-439715,1.016121628,14089,128,-484404,-34.93600547,15277.34375,41856,128
-605.0000721,-8388608,-31.71974143,-439809,1.005447627,13941,128,-484504,-34.94321763,15296.875,42496,128
-605.0000721,-8388608,-31.71151956,-439695,1.019222858,14132,128,-484132,-34.91638838,15316.40625,43136,128
-605.0000721,-8388608,-31.70358619,-439585,1.036964779,14378,128,-484118,-34.91537868,15335.9375,43776,128
-605.0000721,-8388608,-31.70748075,-439639,1.037397508,14384,128,-484386,-34.93470728,15355.46875,44416,128
-605.0000721,-8388608,-31.70120617,-439552,1.024559858,14206,128,-484232,-34.92360055,15375,45056,128
-605.0000721,-8388608,-31.73034331,-439956,1.029752616,14278,128,-484614,-34.95115101,15394.53125,45696,128
-605.0000721,-8388608,-31.72702571,-439910,1.011505844,14025,128,-484529,-34.94502067,15414.0625,46336,128
-605.0000721,-8388608,-31.66680415,-439075,1.028454426,14260,128,-484096,-34.913792,15433.59375,46976,128
-605.0000721,-8388608,-31.71577474,-439754,1.023478034,14191,128,-484359,-34.93275999,15453.125,47616,128
-605.0000721,-8388608,-31.72644874,-439902,1.017347696,14106,128,-484701,-34.95742559,15472.65625,48256,128
-605.0000721,-8388608,-31.7406567,-440099,1.016337993,14092,128,-484388,-34.93485152,15492.1875,48896,128
-605.0000721,-8388608,-31.65750046,-438946,1.068337687,14813,128,-483201,-34.84924315,15511.71875,49536,128
-605.0000721,-8388608,-31.6769733,-439216,1.021819236,14168,128,-483909,-34.90030526,15531.25,50176,128
-605.0000721,-8388608,-31.69572493,-439476,1.032493238,14316,128,-484361,-34.93290424,15550.78125,50816,128
-605.0000721,-8388608,-31.76121137,-440384,0.996937275,13823,128,-484774,-34.96269047,15570.3125,51456,128
-605.0000721,-8388608,-31.77210173,-440535,1.026651386,14235,128,-485121,-34.98771667,15589.84375,52096,128
-605.0000721,-8388608,-31.74981615,-440226,1.016987087,14101,128,-484546,-34.94624674,15609.375,52736,128
-605.0000721,-8388608,-31.49803954,-436735,1.144570249,15870,128,-483961,-34.90405558,15628.90625,53376,128
-605.0000721,-8388608,-31.12372829,-431545,1.314633049,18228,128,-475964,-34.32729892,15648.4375,54016,128
-605.0000721,-8388608,-31.87422596,-441951,0.808194972,11206,128,-485261,-34.9978137,15667.96875,54656,128
-605.0000721,-8388608,-31.76178834,-440392,1.040210252,14423,128,-485327,-35.00257373,15687.5,55296,128
-605.0000721,-8388608,-31.75421557,-440287,1.034512643,14344,128,-484294,-34.92807209,15707.03125,55936,128
-605.0000721,-8388608,-31.7739769,-440561,1.035522346,14358,128,-484631,-34.95237708,15726.5625,56576,128
-605.0000721,-8388608,-31.74476764,-440156,1.041219955,14437,128,-484417,-34.93694305,15746.09375,57216,128
-605.0000721,-8388608,-31.73683426,-440046,1.044826036,14487,128,-484214,-34.92230236,15765.625,57856,128
-605.0000721,-8388608,-31.72125598,-439830,1.016987087,14101,128,-484099,-34.91400837,15785.15625,58496,128
-605.0000721,-8388608,-31.71087047,-439686,1.045186644,14492,128,-483550,-34.87441359,15804.6875,59136,128
-605.0000721,-8388608,-31.70625469,-439622,1.044321185,14480,128,-483399,-34.86352323,15824.21875,59776,128
-605.0000721,-8388608,-31.6919746,-439424,1.051677591,14582,128,-483231,-34.85140679,15843.75,60416,128
-605.0000721,-8388608,-31.60016377,-438151,1.079155931,14963,128,-481549,-34.73009822,15863.28125,61056,128
-605.0000721,-8388608,-31.59771163,-438117,1.031339291,14300,128,-481417,-34.72057816,15882.8125,61696,128
-605.0000721,-8388608,-31.65735622,-438944,1.036964779,14378,128,-481669,-34.73875281,15902.34375,62336,128
-605.0000721,-8388608,-31.67387207,-439173,1.009774924,14001,128,-481859,-34.75245592,15921.875,62976,128
-605.0000721,-8388608,-31.78724727,-440745,1.002634883,13902,128,-483758,-34.88941489,15941.40625,63616,128
-605.0000721,-8388608,-31.76236531,-440400,1.048071509,14532,128,-483974,-34.90499317,15960.9375,64256,128
-605.0000721,-8388608,-31.76373562,-440419,1.030906562,14294,128,-484037,-34.90953683,15980.46875,64896,128
-605.0000721,-8388608,-31.75522527,-440301,1.04280663,14459,128,-483876,-34.89792525,16000,0,128
-605.0000721,-8388608,-31.77477023,-440572,1.022468331,14177,128,-484197,-34.92107629,16019.53125,640,128
-605.0000721,-8388608,-31.75089797,-440241,1.044753914,14486,128,-483739,-34.88804458,16039.0625,1280,128
-605.0000721,-8388608,-31.75522527,-440301,1.040642982,14429,128,-483744,-34.88840519,16058.59375,1920,128
-605.0000721,-8388608,-31.74007973,-440091,1.03660417,14373,128,-483688,-34.88436638,16078.125,2560,128
-605.0000721,-8388608,-31.73055967,-439959,1.043022995,14462,128,-483506,-34.87124024,16097.65625,3200,128
-605.0000721,-8388608,-31.76784656,-440476,1.038839941,14404,128,-483726,-34.887107,16117.1875,3840,128
-605.0000721,-8388608,-31.74548885,-440166,1.042301779,14452,128,-483731,-34.88746761,16136.71875,4480,128
-605.0000721,-8388608,-31.73106453,-439966,1.001697302,13889,128,-483188,-34.84830556,16156.25,5120,128
-605.0000721,-8388608,-31.77181325,-440531,1.028454426,14260,128,-483748,-34.88869368,16175.78125,5760,128
-605.0000721,-8388608,-31.78652606,-440735,1.036748414,14375,128,-483539,-34.87362026,16195.3125,6400,128
-605.0000721,-8388608,-31.73488697,-440019,1.053192145,14603,128,-482781,-34.81895206,16214.84375,7040,128
-605.0000721,-8388608,-31.69868191,-439517,1.061918862,14724,128,-482594,-34.80546532,16234.375,7680,128
-605.0000721,-8388608,-31.74267611,-440127,1.01532829,14078,128,-482996,-34.83445821,16253.90625,8320,128
-605.0000721,-8388608,-31.77224598,-440537,1.000326991,13870,128,-483436,-34.86619173,16273.4375,8960,128
-605.0000721,-8388608,-31.78876183,-440766,1.016554358,14095,128,-483861,-34.89684342,16292.96875,9600,128
-605.0000721,-8388608,-31.8070086,-441019,1.00955856,13998,128,-483893,-34.89915131,16312.5,10240,128
-605.0000721,-8388608,-31.81248984,-441095,0.989436625,13719,128,-483254,-34.85306559,16332.03125,10880,128
-605.0000721,-8388608,-31.27172187,-433597,1.239482312,17186,128,-479491,-34.5816719,16351.5625,11520,128
-605.0000721,-8388608,-31.49501043,-436693,0.767302009,10639,128,-477207,-34.4169461,16371.09375,12160,128
-605.0000721,-8388608,-31.85554646,-441692,0.925392619,12831,128,-485385,-35.00675678,16390.625,12800,128
-605.0000721,-8388608,-31.77051506,-440513,1.047278171,14521,128,-483420,-34.86503778,16410.15625,13440,128
-605.0000721,-8388608,-31.78493938,-440713,1.035594468,14359,128,-483123,-34.84361766,16429.6875,14080,128
-605.0000721,-8388608,-31.77361629,-440556,1.021386507,14162,128,-482804,-34.82061086,16449.21875,14720,128
-605.0000721,-8388608,-31.76438472,-440428,1.022179845,14173,128,-482749,-34.81664417,16468.75,15360,128
-605.0000721,-8388608,-31.72579965,-439893,1.031555656,14303,128,-482297,-34.78404519,16488.28125,16000,128
-605.0000721,-8388608,-31.76445684,-440429,1.032709602,14319,128,-482626,-34.80777321,16507.8125,16640,128
-605.0000721,-8388608,-31.71188017,-439700,1.042373901,14453,128,-481809,-34.74884984,16527.34375,17280,128
-605.0000721,-8388608,-31.71570262,-439753,1.023694399,14194,128,-481546,-34.72988185,16546.875,17920,128
-605.0000721,-8388608,-31.66759749,-439086,1.037541752,14386,128,-481059,-34.69475862,16566.40625,18560,128
-605.0000721,-8388608,-31.64076825,-438714,1.036676292,14374,128,-480246,-34.63612373,16585.9375,19200,128
-605.0000721,-8388608,-31.59324009,-438055,1.0316999,14305,128,-479684,-34.59559138,16605.46875,19840,128
-605.0000721,-8388608,-31.62980576,-438562,1.029247764,14271,128,-479867,-34.60878964,16625,20480,128
-605.0000721,-8388608,-31.71938082,-439804,0.990157841,13729,128,-481212,-34.70579323,16644.53125,21120,128
-605.0000721,-8388608,-31.73113665,-439967,1.036243562,14368,128,-481957,-34.75952384,16664.0625,21760,128
-605.0000721,-8388608,-31.74375793,-440142,1.023838642,14196,128,-482472,-34.79666648,16683.59375,22400,128
-605.0000721,-8388608,-31.74282035,-440129,1.009414316,13996,128,-482367,-34.78909371,16703.125,23040,128
-605.0000721,-8388608,-31.73705062,-440049,1.020304682,14147,128,-482258,-34.78123245,16722.65625,23680,128
-605.0000721,-8388608,-31.74253186,-440125,1.002418518,13899,128,-482196,-34.77676091,16742.1875,24320,128
-605.0000721,-8388608,-31.75241253,-440262,1.027084115,14241,128,-482316,-34.7854155,16761.71875,24960,128
-605.0000721,-8388608,-31.73070392,-439961,1.030257467,14285,128,-481877,-34.75375411,16781.25,25600,128
-605.0000721,-8388608,-31.74209914,-440119,1.016987087,14101,128,-482031,-34.76486084,16800.78125,26240,128
-605.0000721,-8388608,-31.755658,-440307,0.992465734,13761,128,-482231,-34.77928517,16820.3125,26880,128
-605.0000721,-8388608,-31.72486207,-439880,1.044249063,14479,128,-481827,-34.75014803,16839.84375,27520,128
-605.0000721,-8388608,-31.73192999,-439978,1.016265871,14091,128,-482099,-34.76976511,16859.375,28160,128
-605.0000721,-8388608,-31.71375534,-439726,1.015400412,14079,128,-481819,-34.74957106,16878.90625,28800,128
-605.0000721,-8388608,-31.75306162,-440271,1.001048207,13880,128,-482449,-34.79500768,16898.4375,29440,128
-605.0000721,-8388608,-31.71591898,-439756,0.99008572,13728,128,-481911,-34.75620624,16917.96875,30080,128
-605.0000721,-8388608,-31.70553347,-439612,1.029536251,14275,128,-481304,-34.71242842,16937.5,30720,128
-605.0000721,-8388608,-31.70207163,-439564,1.039561157,14414,128,-481254,-34.70882233,16957.03125,31360,128
-605.0000721,-8388608,-31.67502602,-439189,1.03126717,14299,128,-480882,-34.68199309,16976.5625,32000,128
-605.0000721,-8388608,-31.66903993,-439106,1.001553059,13887,128,-481437,-34.72202059,16996.09375,32640,128
-605.0000721,-8388608,-31.75940833,-440359,0.985037206,13658,128,-482434,-34.79392586,17015.625,33280,128
-605.0000721,-8388608,-31.75717256,-440328,1.017852547,14113,128,-482991,-34.8340976,17035.15625,33920,128
-605.0000721,-8388608,-31.75234041,-440261,1.026723507,14236,128,-482531,-34.80092165,17054.6875,34560,128
-605.0000721,-8388608,-31.80462859,-440986,1.023333791,14189,128,-482114,-34.77084694,17074.21875,35200,128
-605.0000721,-8388608,-31.22787192,-432989,1.409689356,19546,128,-479031,-34.54849595,17093.75,35840,128
-605.0000721,-8388608,-31.75753316,-440333,0.804733134,11158,128,-481306,-34.71257266,17113.28125,36480,128
-605.0000721,-8388608,-31.7759963,-440589,1.018790128,14126,128,-483866,-34.89720403,17132.8125,37120,128
-605.0000721,-8388608,-31.74628219,-440177,1.059755213,14694,128,-482264,-34.78166518,17152.34375,37760,128
-605.0000721,-8388608,-31.71743354,-439777,1.05917824,14686,128,-482060,-34.76695237,17171.875,38400,128
-605.0000721,-8388608,-31.74245974,-440124,1.026939872,14239,128,-482252,-34.78079972,17191.40625,39040,128
-605.0000721,-8388608,-31.73301181,-439993,1.027228359,14243,128,-482127,-34.77178452,17210.9375,39680,128
-605.0000721,-8388608,-31.68389698,-439312,1.03393567,14336,128,-481621,-34.73529097,17230.46875,40320,128
-605.0000721,-8388608,-31.6722854,-439151,1.010640384,14013,128,-481556,-34.73060307,17250,40960,128
-605.0000721,-8388608,-31.69788858,-439506,1.029536251,14275,128,-481830,-34.75036439,17269.53125,41600,128
-605.0000721,-8388608,-31.64639373,-438792,1.04367209,14471,128,-481129,-34.69980713,17289.0625,42240,128
-605.0000721,-8388608,-31.63629671,-438652,1.055500037,14635,128,-480804,-34.6763676,17308.59375,42880,128
-605.0000721,-8388608,-31.59021098,-438013,1.048936969,14544,128,-479771,-34.60186596,17328.125,43520,128
-605.0000721,-8388608,-31.60802503,-438260,1.028454426,14260,128,-479892,-34.61059268,17347.65625,44160,128
-605.0000721,-8388608,-31.61271293,-438325,1.02419925,14201,128,-480167,-34.63042612,17367.1875,44800,128
-605.0000721,-8388608,-31.65822168,-438956,1.015039803,14074,128,-481074,-34.69584044,17386.71875,45440,128
-605.0000721,-8388608,-31.73741123,-440054,1.007971884,13976,128,-482516,-34.79983983,17406.25,46080,128
-605.0000721,-8388608,-31.72623238,-439899,1.004870654,13933,128,-482779,-34.81880782,17425.78125,46720,128
-605.0000721,-8388608,-31.71490928,-439742,1.02773321,14250,128,-482468,-34.79637799,17445.3125,47360,128
-605.0000721,-8388608,-31.71418806,-439732,1.023405912,14190,128,-482487,-34.7977483,17464.84375,48000,128
-605.0000721,-8388608,-31.73625728,-440038,1.026362899,14231,128,-482872,-34.82551513,17484.375,48640,128
-605.0000721,-8388608,-31.71108683,-439689,1.042301779,14452,128,-482721,-34.81462476,17503.90625,49280,128
-605.0000721,-8388608,-31.74750826,-440194,1.030906562,14294,128,-482992,-34.83416973,17523.4375,49920,128
-605.0000721,-8388608,-31.73813245,-440064,1.042446022,14454,128,-482725,-34.81491325,17542.96875,50560,128
-605.0000721,-8388608,-31.7406567,-440099,1.017636182,14110,128,-483252,-34.85292135,17562.5,51200,128
-605.0000721,-8388608,-31.73200211,-439979,1.016121628,14089,128,-482946,-34.83085213,17582.03125,51840,128
-605.0000721,-8388608,-31.73849305,-440069,1.004870654,13933,128,-483231,-34.85140679,17601.5625,52480,128
-605.0000721,-8388608,-31.7246457,-439877,1.014679195,14069,128,-482827,-34.82226966,17621.09375,53120,128
-605.0000721,-8388608,-31.73467061,-440016,1.031050805,14296,128,-483187,-34.84823344,17640.625,53760,128
-605.0000721,-8388608,-31.73322817,-439996,1.039561157,14414,128,-482849,-34.82385633,17660.15625,54400,128
-605.0000721,-8388608,-31.71411594,-439731,1.056365497,14647,128,-482670,-34.81094656,17679.6875,55040,128
-605.0000721,-8388608,-31.72522267,-439885,1.030329589,14286,128,-482069,-34.76760146,17699.21875,55680,128
-605.0000721,-8388608,-31.70661529,-439627,1.036964779,14378,128,-481934,-34.75786504,17718.75,56320,128
-605.0000721,-8388608,-31.70913955,-439662,1.022251966,14174,128,-482263,-34.78159306,17738.28125,56960,128
-605.0000721,-8388608,-31.72644874,-439902,0.976094124,13534,128,-482886,-34.82652483,17757.8125,57600,128
-605.0000721,-8388608,-31.77058718,-440514,1.004005194,13921,128,-483336,-34.85897957,17777.34375,58240,128
-605.0000721,-8388608,-31.76359138,-440417,1.018934371,14128,128,-483196,-34.84888254,17796.875,58880,128
-605.0000721,-8388608,-31.75349435,-440277,1.009630681,13999,128,-483069,-34.83972309,17816.40625,59520,128
-605.0000721,-8388608,-31.5305664,-437186,1.260902436,17483,128,-482454,-34.79536829,17835.9375,60160,128
-605.0000721,-8388608,-31.09120144,-431094,1.069707998,14832,128,-474305,-34.20764914,17855.46875,60800,128
-605.0000721,-8388608,-31.88194297,-442058,0.898923981,12464,128,-485144,-34.98937547,17875,61440,128
-605.0000721,-8388608,-31.76842353,-440484,1.041147833,14436,128,-483967,-34.90448831,17894.53125,62080,128
-605.0000721,-8388608,-31.76171622,-440391,1.024704102,14208,128,-482967,-34.83236668,17914.0625,62720,128
-605.0000721,-8388608,-31.74794099,-440200,1.024415615,14204,128,-482932,-34.82984243,17933.59375,63360,128
-605.0000721,-8388608,-31.73135301,-439970,1.042662387,14457,128,-482620,-34.80734048,17953.125,64000,128
-605.0000721,-8388608,-31.75385496,-440282,1.030545954,14289,128,-483057,-34.83885763,17972.65625,64640,128
-605.0000721,-8388608,-31.70892319,-439659,1.047710901,14527,128,-482439,-34.79428646,17992.1875,65280,128
-605.0000721,-8388608,-31.71382746,-439727,1.081608067,14997,128,-482442,-34.79450283,18011.71875,384,128
-605.0000721,-8388608,-31.71808263,-439786,1.044753914,14486,128,-482327,-34.78620884,18031.25,1024,128
-605.0000721,-8388608,-31.70106193,-439550,1.065308579,14771,128,-481666,-34.73853645,18050.78125,1664,128
-605.0000721,-8388608,-31.64798041,-438814,1.060260065,14701,128,-480905,-34.68365189,18070.3125,2304,128
-605.0000721,-8388608,-31.65122588,-438859,1.057230956,14659,128,-480366,-34.64477833,18089.84375,2944,128
-605.0000721,-8388608,-31.65173073,-438866,1.014751317,14070,128,-480295,-34.63965769,18109.375,3584,128
-605.0000721,-8388608,-31.70877894,-439657,0.99628818,13814,128,-481179,-34.70341321,18128.90625,4224,128
-605.0000721,-8388608,-31.75760529,-440334,0.994268774,13786,128,-482232,-34.77935729,18148.4375,4864,128
-605.0000721,-8388608,-31.77743873,-440609,1.037613873,14387,128,-482782,-34.81902418,18167.96875,5504,128
-605.0000721,-8388608,-31.77888117,-440629,1.033863549,14335,128,-482804,-34.82061086,18187.5,6144,128
-605.0000721,-8388608,-31.8000128,-440922,1.026579264,14234,128,-483076,-34.84022794,18207.03125,6784,128
-605.0000721,-8388608,-31.7946758,-440848,1.028742913,14264,128,-483049,-34.83828066,18226.5625,7424,128
-605.0000721,-8388608,-31.79893098,-440907,1.015833141,14085,128,-483368,-34.86128746,18246.09375,8064,128
-605.0000721,-8388608,-31.76027379,-440371,1.058961875,14683,128,-482565,-34.80337379,18265.625,8704,128
-605.0000721,-8388608,-31.76157197,-440389,1.044826036,14487,128,-482685,-34.81202839,18285.15625,9344,128
-605.0000721,-8388608,-31.77152476,-440527,1.023622277,14193,128,-482980,-34.83330427,18304.6875,9984,128
-605.0000721,-8388608,-31.77491448,-440574,1.009774924,14001,128,-482755,-34.8170769,18324.21875,10624,128
-605.0000721,-8388608,-31.8000128,-440922,1.025353196,14217,128,-483184,-34.84801708,18343.75,11264,128
-605.0000721,-8388608,-31.81638441,-441149,1.009197951,13993,128,-483127,-34.84390615,18363.28125,11904,128
-605.0000721,-8388608,-31.75205192,-440257,1.063794024,14750,128,-482467,-34.79630587,18382.8125,12544,128
-605.0000721,-8388608,-31.78335271,-440691,1.020809534,14154,128,-482797,-34.82010601,18402.34375,13184,128
-605.0000721,-8388608,-31.81688926,-441156,1.022612574,14179,128,-483067,-34.83957885,18421.875,13824,128
-605.0000721,-8388608,-31.80477283,-440988,1.02153075,14164,128,-482501,-34.79875801,18441.40625,14464,128
-605.0000721,-8388608,-31.760995,-440381,1.061486132,14718,128,-481778,-34.74661407,18460.9375,15104,128
-605.0000721,-8388608,-31.78306422,-440687,1.019583466,14137,128,-481852,-34.75195107,18480.46875,15744,128
-605.0000721,-8388608,-31.79683945,-440878,0.99852395,13845,128,-482874,-34.82565937,18500,16384,128
-605.0000721,-8388608,-31.78227088,-440676,1.038262968,14396,128,-482629,-34.80798957,18519.53125,17024,128
-605.0000721,-8388608,-31.84270881,-441514,0.993836045,13780,128,-483257,-34.85328196,18539.0625,17664,128
-605.0000721,-8388608,-31.80722497,-441022,1.043816333,14473,128,-482789,-34.81952904,18558.59375,18304,128
-605.0000721,-8388608,-31.84833429,-441592,1.043455725,14468,128,-482801,-34.82039449,18578.125,18944,128
-605.0000721,-8388608,-31.23998836,-433157,1.111250056,15408,128,-473468,-34.14728333,18597.65625,19584,128
-605.0000721,-8388608,-31.9290384,-442711,0.738453357,10239,128,-482791,-34.81967328,18617.1875,20224,128
-605.0000721,-8388608,-31.85742162,-441718,1.027156237,14242,128,-483560,-34.87513481,18636.71875,20864,128
-605.0000721,-8388608,-31.83455906,-441401,1.041796928,14445,128,-482549,-34.80221984,18656.25,21504,128
-605.0000721,-8388608,-31.83318875,-441382,1.035810832,14362,128,-482256,-34.78108821,18675.78125,22144,128
-605.0000721,-8388608,-31.82186566,-441225,1.034873251,14349,128,-482054,-34.76651964,18695.3125,22784,128
-605.0000721,-8388608,-31.77823207,-440620,1.040210252,14423,128,-481471,-34.72447273,18714.84375,23424,128
-605.0000721,-8388608,-31.81198499,-441088,1.008476735,13983,128,-481942,-34.75844202,18734.375,24064,128
-605.0000721,-8388608,-31.80318615,-440966,1.01265979,14041,128,-481831,-34.75043651,18753.90625,24704,128
-605.0000721,-8388608,-31.76027379,-440371,1.021458628,14163,128,-481231,-34.70716354,18773.4375,25344,128
-605.0000721,-8388608,-31.74794099,-440200,1.016410114,14093,128,-480552,-34.65819295,18792.96875,25984,128
-605.0000721,-8388608,-31.70618256,-439621,1.015400412,14079,128,-479917,-34.61239572,18812.5,26624,128
-605.0000721,-8388608,-31.68404122,-439314,1.006168843,13951,128,-479394,-34.57467611,18832.03125,27264,128
-605.0000721,-8388608,-31.72868451,-439933,1.011577965,14026,128,-479391,-34.57445974,18851.5625,27904,128
-605.0000721,-8388608,-31.76553866,-440444,0.980421422,13594,128,-480125,-34.62739702,18871.09375,28544,128
-605.0000721,-8388608,-31.82525537,-441272,0.992465734,13761,128,-481078,-34.69612893,18890.625,29184,128
-605.0000721,-8388608,-31.83174632,-441362,1.014246465,14063,128,-481356,-34.71617874,18910.15625,29824,128
-605.0000721,-8388608,-31.849344,-441606,0.987272976,13689,128,-481894,-34.75498018,18929.6875,30464,128
-605.0000721,-8388608,-31.83405421,-441394,1.002634883,13902,128,-481862,-34.75267229,18949.21875,31104,128
-605.0000721,-8388608,-31.85655616,-441706,0.995278477,13800,128,-481961,-34.75981233,18968.75,31744,128
-605.0000721,-8388608,-31.87631749,-441980,1.002274275,13897,128,-481961,-34.75981233,18988.28125,32384,128
-605.0000721,-8388608,-31.84941612,-441607,1.019439223,14135,128,-481611,-34.73456976,19007.8125,33024,128
-605.0000721,-8388608,-31.82049535,-441206,1.008909465,13989,128,-481686,-34.73997888,19027.34375,33664,128
-605.0000721,-8388608,-31.82525537,-441272,1.028526548,14261,128,-481827,-34.75014803,19046.875,34304,128
-605.0000721,-8388608,-31.833333,-441384,1.017203452,14104,128,-481710,-34.7417098,19066.40625,34944,128
-605.0000721,-8388608,-31.84919975,-441604,0.995134234,13798,128,-481675,-34.73918554,19085.9375,35584,128
-605.0000721,-8388608,-31.83838151,-441454,1.005447627,13941,128,-481869,-34.75317714,19105.46875,36224,128
-605.0000721,-8388608,-31.85778223,-441723,1.012154938,14034,128,-482066,-34.7673851,19125,36864,128
-605.0000721,-8388608,-31.83823727,-441452,1.011577965,14026,128,-481909,-34.756062,19144.53125,37504,128
-605.0000721,-8388608,-31.83917485,-441465,1.008332492,13981,128,-482038,-34.76536569,19164.0625,38144,128
-605.0000721,-8388608,-31.84833429,-441592,0.996865153,13822,128,-482000,-34.76262507,19183.59375,38784,128
-605.0000721,-8388608,-31.84292517,-441517,1.017131331,14103,128,-481233,-34.70730778,19203.125,39424,128
-605.0000721,-8388608,-31.75601861,-440312,1.041580563,14442,128,-480707,-34.6693718,19222.65625,40064,128
-605.0000721,-8388608,-31.83095298,-441351,0.985614179,13666,128,-481661,-34.73817584,19242.1875,40704,128
-605.0000721,-8388608,-31.87090836,-441905,0.977392313,13552,128,-482232,-34.77935729,19261.71875,41344,128
-605.0000721,-8388608,-31.86391257,-441808,0.996432423,13816,128,-482215,-34.77813122,19281.25,41984,128
-605.0000721,-8388608,-31.87833689,-442008,0.999894261,13864,128,-482461,-34.79587314,19300.78125,42624,128
-605.0000721,-8388608,-31.9267305,-442679,0.975300786,13523,128,-481937,-34.75808141,19320.3125,43264,128
-605.0000721,-8388608,-31.5449186,-437385,1.258089692,17444,128,-480998,-34.6903592,19339.84375,43904,128
-605.0000721,-8388608,-31.74859008,-440209,0.731024829,10136,128,-478989,-34.54546685,19359.375,44544,128
-605.0000721,-8388608,-31.94944882,-442994,0.724029031,10039,128,-483929,-34.90174769,19378.90625,45184,128
-605.0000721,-8388608,-31.87537991,-441967,1.02066529,14152,128,-481959,-34.75966808,19398.4375,45824,128
-605.0000721,-8388608,-31.87537991,-441967,1.038695698,14402,128,-481959,-34.75966808,19417.96875,46464,128
-605.0000721,-8388608,-31.8513634,-441634,1.022973183,14184,128,-481351,-34.71581813,19437.5,47104,128
-605.0000721,-8388608,-31.84105001,-441491,1.024920467,14211,128,-481578,-34.73218974,19457.03125,47744,128
-605.0000721,-8388608,-31.80715284,-441021,1.055355794,14633,128,-480998,-34.6903592,19476.5625,48384,128
-605.0000721,-8388608,-31.80296979,-440963,1.029968981,14281,128,-480960,-34.68761858,19496.09375,49024,128
-605.0000721,-8388608,-31.81140802,-441080,1.024343494,14203,128,-481122,-34.69930228,19515.625,49664,128
-605.0000721,-8388608,-31.79676733,-440877,1.015688898,14083,128,-480747,-34.67225667,19535.15625,50304,128
-605.0000721,-8388608,-31.74188277,-440116,1.057663686,14665,128,-480017,-34.61960788,19554.6875,50944,128
-605.0000721,-8388608,-31.70690378,-439631,1.034656886,14346,128,-479342,-34.57092578,19574.21875,51584,128
-605.0000721,-8388608,-31.70250436,-439570,1.014967682,14073,128,-478841,-34.53479284,19593.75,52224,128
-605.0000721,-8388608,-31.75911984,-440355,0.996865153,13822,128,-479185,-34.55960268,19613.28125,52864,128
-605.0000721,-8388608,-31.80282555,-440961,1.002779126,13904,128,-479994,-34.61794908,19632.8125,53504,128
-605.0000721,-8388608,-31.8310251,-441352,1.012876155,14044,128,-480528,-34.65646203,19652.34375,54144,128
-605.0000721,-8388608,-31.84407912,-441533,1.029103521,14269,128,-480946,-34.68660887,19671.875,54784,128
-605.0000721,-8388608,-31.849344,-441606,1.014102222,14061,128,-480933,-34.68567129,19691.40625,55424,128
-605.0000721,-8388608,-31.86542712,-441829,1.027011994,14240,128,-481075,-34.69591256,19710.9375,56064,128
-605.0000721,-8388608,-31.87588476,-441974,1.014246465,14063,128,-481506,-34.72699699,19730.46875,56704,128
-605.0000721,-8388608,-31.81393228,-441115,1.058601267,14678,128,-480719,-34.67023726,19750,57344,128
-605.0000721,-8388608,-31.87855326,-442011,1.009342195,13995,128,-480980,-34.68906101,19769.53125,57984,128
-605.0000721,-8388608,-31.86809562,-441866,1.039777522,14417,128,-480977,-34.68884464,19789.0625,58624,128
-605.0000721,-8388608,-31.8530222,-441657,1.016049506,14088,128,-481032,-34.69281133,19808.59375,59264,128
-605.0000721,-8388608,-31.86751865,-441858,0.992970585,13768,128,-481139,-34.70052835,19828.125,59904,128
-605.0000721,-8388608,-31.86665319,-441846,1.000903964,13878,128,-481142,-34.70074471,19847.65625,60544,128
-605.0000721,-8388608,-31.86650894,-441844,1.005808235,13946,128,-481166,-34.70247563,19867.1875,61184,128
-605.0000721,-8388608,-31.83080874,-441349,1.020160439,14145,128,-480707,-34.6693718,19886.71875,61824,128
-605.0000721,-8388608,-31.84948824,-441608,0.996216058,13813,128,-480777,-34.67442032,19906.25,62464,128
-605.0000721,-8388608,-31.86513863,-441825,0.999894261,13864,128,-481058,-34.6946865,19925.78125,63104,128
-605.0000721,-8388608,-31.83499179,-441407,1.01842952,14121,128,-480792,-34.67550214,19945.3125,63744,128
-605.0000721,-8388608,-31.86146043,-441774,1.018285277,14119,128,-480440,-34.65011533,19964.84375,64384,128
-605.0000721,-8388608,-31.80462859,-440986,1.023550156,14192,128,-479975,-34.61657877,19984.375,65024,128
-605.0000721,-8388608,-31.76986596,-440504,1.03393567,14336,128,-479649,-34.59306712,20003.90625,128,128
-605.0000721,-8388608,-31.83672271,-441431,0.990951179,13740,128,-480631,-34.66389056,20023.4375,768,128
-605.0000721,-8388608,-31.86629258,-441841,1.000182748,13868,128,-481111,-34.69850894,20042.96875,1408,128
-605.0000721,-8388608,-31.8840345,-442087,1.000254869,13869,128,-481187,-34.70399019,20062.5,2048,128
-605.0000721,-8388608,-31.90062248,-442317,0.996793031,13821,128,-480750,-34.67247303,20082.03125,2688,128
-605.0000721,-8388608,-31.72637662,-439901,1.344852012,18647,128,-479927,-34.61311693,20101.5625,3328,128
-605.0000721,-8388608,-31.45563203,-436147,0.937509052,12999,128,-473204,-34.12824322,20121.09375,3968,128
-605.0000721,-8388608,-31.99099088,-443570,0.774946901,10745,128,-481910,-34.75613412,20140.625,4608,128
-605.0000721,-8388608,-31.91432558,-442507,0.990229963,13730,128,-481207,-34.70543262,20160.15625,5248,128
-605.0000721,-8388608,-31.85345493,-441663,1.033214454,14326,128,-480109,-34.62624307,20179.6875,5888,128
-605.0000721,-8388608,-31.8616768,-441777,1.000543356,13873,128,-480219,-34.63417645,20199.21875,6528,128
-605.0000721,-8388608,-31.85165189,-441638,1.012371303,14037,128,-480026,-34.62025697,20218.75,7168,128
-605.0000721,-8388608,-31.83427058,-441397,1.018501642,14122,128,-479867,-34.60878964,20238.28125,7808,128
-605.0000721,-8388608,-31.79770491,-440890,1.036315684,14369,128,-479372,-34.57308943,20257.8125,8448,128
-605.0000721,-8388608,-31.80938861,-441052,1.030113224,14283,128,-479531,-34.58455677,20277.34375,9088,128
-605.0000721,-8388608,-31.79460368,-440847,1.003860951,13919,128,-479216,-34.56183846,20296.875,9728,128
-605.0000721,-8388608,-31.73661789,-440043,1.04763878,14526,128,-478711,-34.52541703,20316.40625,10368,128
-605.0000721,-8388608,-31.71793839,-439784,1.042085414,14449,128,-478245,-34.49180835,20335.9375,11008,128
-605.0000721,-8388608,-31.68923398,-439386,1.04100359,14434,128,-477568,-34.44298201,20355.46875,11648,128
-605.0000721,-8388608,-31.73755547,-440056,1.001697302,13889,128,-477832,-34.46202212,20375,12288,128
-605.0000721,-8388608,-31.78609333,-440729,0.996865153,13822,128,-478714,-34.5256334,20394.53125,12928,128
-605.0000721,-8388608,-31.79857037,-440902,1.005663992,13944,128,-479122,-34.55505902,20414.0625,13568,128
-605.0000721,-8388608,-31.86073921,-441764,0.995134234,13798,128,-480379,-34.64571591,20433.59375,14208,128
-605.0000721,-8388608,-31.8530222,-441657,1.023478034,14191,128,-480292,-34.63944133,20453.125,14848,128
-605.0000721,-8388608,-31.86787926,-441863,1.034512643,14344,128,-480541,-34.65739961,20472.65625,15488,128
-605.0000721,-8388608,-31.82907782,-441325,1.054995186,14628,128,-480131,-34.62782975,20492.1875,16128,128
-605.0000721,-8388608,-31.81111953,-441076,1.047999388,14531,128,-480091,-34.62494488,20511.71875,16768,128
-605.0000721,-8388608,-31.84833429,-441592,1.007827641,13974,128,-480476,-34.65271171,20531.25,17408,128
-605.0000721,-8388608,-31.84220396,-441507,1.025858048,14224,128,-480466,-34.65199049,20550.78125,18048,128
-605.0000721,-8388608,-31.81544683,-441136,1.057735808,14666,128,-480103,-34.62581034,20570.3125,18688,128
-605.0000721,-8388608,-31.80347464,-440970,1.022901061,14183,128,-479920,-34.61261208,20589.84375,19328,128
-605.0000721,-8388608,-31.83390997,-441392,1.020448926,14149,128,-480310,-34.64073952,20609.375,19968,128
-605.0000721,-8388608,-31.83679483,-441432,1.019150736,14131,128,-480097,-34.62537761,20628.90625,20608,128
-605.0000721,-8388608,-31.85417615,-441673,1.012948276,14045,128,-480289,-34.63922496,20648.4375,21248,128
-605.0000721,-8388608,-31.82691417,-441295,1.035738711,14361,128,-480211,-34.63359948,20667.96875,21888,128
-605.0000721,-8388608,-31.82749114,-441303,1.035594468,14359,128,-480034,-34.62083395,20687.5,22528,128
-605.0000721,-8388608,-31.84537731,-441551,1.028742913,14264,128,-480062,-34.62285335,20707.03125,23168,128
-605.0000721,-8388608,-31.83838151,-441454,1.050667888,14568,128,-479678,-34.59515865,20726.5625,23808,128
-605.0000721,-8388608,-31.78840122,-440761,1.040426617,14426,128,-479369,-34.57287306,20746.09375,24448,128
-605.0000721,-8388608,-31.79885886,-440906,1.041364198,14439,128,-479489,-34.58152766,20765.625,25088,128
-605.0000721,-8388608,-31.84826217,-441591,0.989580868,13721,128,-480028,-34.62040122,20785.15625,25728,128
-605.0000721,-8388608,-31.8380209,-441449,1.02066529,14152,128,-480064,-34.6229976,20804.6875,26368,128
-605.0000721,-8388608,-31.84011243,-441478,1.026435021,14232,128,-480098,-34.62544973,20824.21875,27008,128
-605.0000721,-8388608,-31.84638701,-441565,1.027949575,14253,128,-479782,-34.6026593,20843.75,27648,128
-605.0000721,-8388608,-31.70041283,-439541,1.345789593,18660,128,-479927,-34.61311693,20863.28125,28288,128
-605.0000721,-8388608,-31.55876595,-437577,0.913781037,12670,128,-474251,-34.20375457,20882.8125,28928,128
-605.0000721,-8388608,-31.97166228,-443302,0.962391014,13344,128,-481237,-34.70759627,20902.34375,29568,128
-605.0000721,-8388608,-31.83477543,-441404,1.049081212,14546,128,-479921,-34.6126842,20921.875,30208,128
-605.0000721,-8388608,-31.83174632,-441362,1.027588967,14248,128,-479497,-34.58210463,20941.40625,30848,128
-605.0000721,-8388608,-31.82597659,-441282,1.020376804,14148,128,-479460,-34.57943613,20960.9375,31488,128
-605.0000721,-8388608,-31.79207942,-440812,1.040066009,14421,128,-479151,-34.55715055,20980.46875,32128,128
-605.0000721,-8388608,-31.77015445,-440508,1.054778821,14625,128,-479053,-34.55008263,21000,32768,128
-605.0000721,-8388608,-31.76914475,-440494,1.039272671,14410,128,-478841,-34.53479284,21019.53125,33408,128
-605.0000721,-8388608,-31.78342483,-440692,1.043816333,14473,128,-479113,-34.55440993,21039.0625,34048,128
-605.0000721,-8388608,-31.73308393,-439994,1.04944182,14551,128,-478361,-34.50017446,21058.59375,34688,128
-605.0000721,-8388608,-31.72327539,-439858,1.056581862,14650,128,-478249,-34.49209684,21078.125,35328,128
-605.0000721,-8388608,-31.67646845,-439209,1.036027197,14365,128,-477251,-34.42011945,21097.65625,35968,128
-605.0000721,-8388608,-31.68476244,-439324,1.031555656,14303,128,-476966,-34.39956479,21117.1875,36608,128
-605.0000721,-8388608,-31.71274563,-439712,1.006745816,13959,128,-477331,-34.42588919,21136.71875,37248,128
-605.0000721,-8388608,-31.71613535,-439759,1.024704102,14208,128,-477524,-34.43980866,21156.25,37888,128
-605.0000721,-8388608,-31.82453416,-441262,0.995494842,13803,128,-479145,-34.55671782,21175.78125,38528,128
-605.0000721,-8388608,-31.84617065,-441562,0.99318695,13771,128,-479654,-34.59342773,21195.3125,39168,128
-605.0000721,-8388608,-31.80787406,-441031,1.025353196,14217,128,-479402,-34.57525308,21214.84375,39808,128
-605.0000721,-8388608,-31.81003771,-441061,1.037325387,14383,128,-479407,-34.57561369,21234.375,40448,128
-605.0000721,-8388608,-31.82713054,-441298,1.025353196,14217,128,-479528,-34.5843404,21253.90625,41088,128
-605.0000721,-8388608,-31.81162439,-441083,1.04677332,14514,128,-479299,-34.56782455,21273.4375,41728,128
-605.0000721,-8388608,-31.80946074,-441053,1.036459927,14371,128,-479247,-34.56407423,21292.96875,42368,128
-605.0000721,-8388608,-31.80556617,-440999,1.025930169,14225,128,-479354,-34.57179124,21312.5,43008,128
-605.0000721,-8388608,-31.82842872,-441316,1.011073114,14019,128,-479489,-34.58152766,21332.03125,43648,128
-605.0000721,-8388608,-31.79561338,-440861,1.029392008,14273,128,-479296,-34.56760819,21351.5625,44288,128
-605.0000721,-8388608,-31.84364639,-441527,0.983811138,13641,128,-480041,-34.6213388,21371.09375,44928,128
-605.0000721,-8388608,-31.83592937,-441420,1.024704102,14208,128,-479910,-34.61189087,21390.625,45568,128
-605.0000721,-8388608,-31.81580744,-441141,1.004365802,13926,128,-479774,-34.60208232,21410.15625,46208,128
-605.0000721,-8388608,-31.83160208,-441360,1.00292337,13906,128,-479837,-34.60662599,21429.6875,46848,128
-605.0000721,-8388608,-31.82338021,-441246,1.002779126,13904,128,-480079,-34.62407942,21449.21875,47488,128
-605.0000721,-8388608,-31.81854806,-441179,1.017852547,14113,128,-479437,-34.57777734,21468.75,48128,128
-605.0000721,-8388608,-31.7920073,-440811,1.038695698,14402,128,-479126,-34.55534751,21488.28125,48768,128
-605.0000721,-8388608,-31.76589927,-440449,1.032925967,14322,128,-479145,-34.55671782,21507.8125,49408,128
-605.0000721,-8388608,-31.77902541,-440631,1.035882954,14363,128,-479344,-34.57107002,21527.34375,50048,128
-605.0000721,-8388608,-31.78753576,-440749,1.01842952,14121,128,-479907,-34.6116745,21546.875,50688,128
-605.0000721,-8388608,-31.81991837,-441198,1.026507142,14233,128,-480594,-34.66122206,21566.40625,51328,128
-605.0000721,-8388608,-31.82359658,-441249,1.032060508,14310,128,-480624,-34.66338571,21585.9375,51968,128
-605.0000721,-8388608,-31.88201509,-442059,1.001553059,13887,128,-480421,-34.64874502,21605.46875,52608,128
-605.0000721,-8388608,-31.54902953,-437442,1.34211139,18609,128,-479687,-34.59580774,21625,53248,128
-605.0000721,-8388608,-31.61841054,-438404,0.890557872,12348,128,-476281,-34.35016147,21644.53125,53888,128
-605.0000721,-8388608,-31.9267305,-442679,0.969747421,13446,128,-482637,-34.80856655,21664.0625,54528,128
-605.0000721,-8388608,-31.83787666,-441447,1.035522346,14358,128,-480829,-34.67817064,21683.59375,55168,128
-605.0000721,-8388608,-31.7909976,-440797,1.036748414,14375,128,-480321,-34.64153286,21703.125,55808,128
-605.0000721,-8388608,-31.80376313,-440974,1.029608372,14276,128,-480482,-34.65314444,21722.65625,56448,128
-605.0000721,-8388608,-31.76755807,-440472,1.055788524,14639,128,-480001,-34.61845393,21742.1875,57088,128
-605.0000721,-8388608,-31.75183556,-440254,1.045835739,14501,128,-480000,-34.61838181,21761.71875,57728,128
-605.0000721,-8388608,-31.74310884,-440133,1.042229657,14451,128,-479860,-34.60828478,21781.25,58368,128
-605.0000721,-8388608,-31.73568031,-440030,1.038767819,14403,128,-480042,-34.62141092,21800.78125,59008,128
-605.0000721,-8388608,-31.72680935,-439907,1.033070211,14324,128,-479427,-34.57705612,21820.3125,59648,128
-605.0000721,-8388608,-31.68173333,-439282,1.033358697,14328,128,-478981,-34.54488987,21839.84375,60288,128
-605.0000721,-8388608,-31.62504573,-438496,1.057880051,14668,128,-477781,-34.45834392,21859.375,60928,128
-605.0000721,-8388608,-31.62937303,-438556,1.013164641,14048,128,-477611,-34.44608324,21878.90625,61568,128
-605.0000721,-8388608,-31.6839691,-439313,0.988354801,13704,128,-478006,-34.47457128,21898.4375,62208,128
-605.0000721,-8388608,-31.73344454,-439999,0.976598975,13541,128,-479081,-34.55210204,21917.96875,62848,128
-605.0000721,-8388608,-31.77549145,-440582,0.98741722,13691,128,-479932,-34.61347754,21937.5,63488,128
-605.0000721,-8388608,-31.78090057,-440657,1.013741614,14056,128,-480469,-34.65220686,21957.03125,64128,128
-605.0000721,-8388608,-31.7883291,-440760,1.017708304,14111,128,-480486,-34.65343292,21976.5625,64768,128
-605.0000721,-8388608,-31.77145264,-440526,1.034007792,14337,128,-480301,-34.64009042,21996.09375,65408,128
-605.0000721,-8388608,-31.78775213,-440752,1.022901061,14183,128,-480488,-34.65357717,22015.625,512,128
-605.0000721,-8388608,-31.81039832,-441066,0.998019099,13838,128,-480404,-34.64751895,22035.15625,1152,128
-605.0000721,-8388608,-31.79503641,-440853,1.020304682,14147,128,-480448,-34.6506923,22054.6875,1792,128
-605.0000721,-8388608,-31.76344714,-440415,1.033791427,14334,128,-480176,-34.63107522,22074.21875,2432,128
-605.0000721,-8388608,-31.76950535,-440499,1.024343494,14203,128,-480235,-34.6353304,22093.75,3072,128
-605.0000721,-8388608,-31.78695879,-440741,1.027949575,14253,128,-480696,-34.66857847,22113.28125,3712,128
-605.0000721,-8388608,-31.78768,-440751,1.033070211,14324,128,-480595,-34.66129418,22132.8125,4352,128
-605.0000721,-8388608,-31.77181325,-440531,1.008837343,13988,128,-480590,-34.66093357,22152.34375,4992,128
-605.0000721,-8388608,-31.78659818,-440736,1.03083444,14293,128,-480576,-34.65992387,22171.875,5632,128
-605.0000721,-8388608,-31.76142773,-440387,1.031627778,14304,128,-480592,-34.66107782,22191.40625,6272,128
-605.0000721,-8388608,-31.74974403,-440225,1.047422415,14523,128,-480564,-34.65905841,22210.9375,6912,128
-605.0000721,-8388608,-31.77318356,-440550,1.013164641,14048,128,-480627,-34.66360207,22230.46875,7552,128
-605.0000721,-8388608,-31.77794358,-440616,1.024848345,14210,128,-480677,-34.66720816,22250,8192,128
-605.0000721,-8388608,-31.73106453,-439966,1.029680494,14277,128,-480281,-34.63864799,22269.53125,8832,128
-605.0000721,-8388608,-31.72385236,-439866,1.021170142,14159,128,-480711,-34.66966029,22289.0625,9472,128
-605.0000721,-8388608,-31.77909753,-440632,0.996432423,13816,128,-481224,-34.70665869,22308.59375,10112,128
-605.0000721,-8388608,-31.80340252,-440969,1.009630681,13999,128,-481607,-34.73428127,22328.125,10752,128
-605.0000721,-8388608,-31.78587696,-440726,1.019799831,14140,128,-481439,-34.72216484,22347.65625,11392,128
-605.0000721,-8388608,-31.80693648,-441018,0.973569867,13499,128,-480647,-34.66504451,22367.1875,12032,128
-605.0000721,-8388608,-31.09826936,-431192,1.340452592,18586,128,-475831,-34.31770674,22386.71875,12672,128
-605.0000721,-8388608,-31.60420258,-438207,0.893226372,12385,128,-477312,-34.42451887,22406.25,13312,128
-605.0000721,-8388608,-31.89175151,-442194,0.953520054,13221,128,-483419,-34.86496566,22425.78125,13952,128
-605.0000721,-8388608,-31.80448434,-440984,1.029464129,14274,128,-481714,-34.74199828,22445.3125,14592,128
-605.0000721,-8388608,-31.78342483,-440692,1.015111925,14075,128,-481464,-34.72396788,22464.84375,15232,128
-605.0000721,-8388608,-31.74729189,-440191,1.050667888,14568,128,-481377,-34.7176933,22484.375,15872,128
-605.0000721,-8388608,-31.72926149,-439941,1.020881655,14155,128,-480915,-34.6843731,22503.90625,16512,128
-605.0000721,-8388608,-31.76503381,-440437,1.012299181,14036,128,-481354,-34.7160345,22523.4375,17152,128
-605.0000721,-8388608,-31.75493679,-440297,1.017924669,14114,128,-481394,-34.71891936,22542.96875,17792,128
-605.0000721,-8388608,-31.72212144,-439842,1.017491939,14108,128,-480701,-34.66893907,22562.5,18432,128
-605.0000721,-8388608,-31.70257648,-439571,1.020737412,14153,128,-480197,-34.63258977,22582.03125,19072,128
-605.0000721,-8388608,-31.68497881,-439327,1.019294979,14133,128,-479823,-34.60561628,22601.5625,19712,128
-605.0000721,-8388608,-31.61083777,-438299,1.041652684,14443,128,-479066,-34.55102021,22621.09375,20352,128
-605.0000721,-8388608,-31.63557549,-438642,1.002707005,13903,128,-478917,-34.54027409,22640.625,20992,128
-605.0000721,-8388608,-31.66824659,-439095,1.007250667,13966,128,-479204,-34.560973,22660.15625,21632,128
-605.0000721,-8388608,-31.71346685,-439722,0.990229963,13730,128,-480376,-34.64549954,22679.6875,22272,128
-605.0000721,-8388608,-31.76611564,-440452,0.967439528,13414,128,-481286,-34.71113023,22699.21875,22912,128
-605.0000721,-8388608,-31.74880645,-440212,1.027588967,14248,128,-481520,-34.72800669,22718.75,23552,128
-605.0000721,-8388608,-31.7583265,-440344,1.018934371,14128,128,-481819,-34.74957106,22738.28125,24192,128
-605.0000721,-8388608,-31.78659818,-440736,1.000182748,13868,128,-482017,-34.76385114,22757.8125,24832,128
-605.0000721,-8388608,-31.76712534,-440466,0.994340896,13787,128,-481846,-34.75151834,22777.34375,25472,128
-605.0000721,-8388608,-31.7766454,-440598,1.0060246,13949,128,-481847,-34.75159046,22796.875,26112,128
-605.0000721,-8388608,-31.74880645,-440212,1.000326991,13870,128,-481509,-34.72721335,22816.40625,26752,128
-605.0000721,-8388608,-31.73077604,-439962,1.041508441,14441,128,-480956,-34.68733009,22835.9375,27392,128
-605.0000721,-8388608,-31.71166381,-439697,1.045475131,14496,128,-480494,-34.6540099,22855.46875,28032,128
-605.0000721,-8388608,-31.72839603,-439929,1.0316999,14305,128,-480911,-34.68408462,22875,28672,128
-605.0000721,-8388608,-31.76142773,-440387,1.019799831,14140,128,-481274,-34.71026477,22894.53125,29312,128
-605.0000721,-8388608,-31.75991318,-440366,1.036387806,14370,128,-481172,-34.70290836,22914.0625,29952,128
-605.0000721,-8388608,-31.74007973,-440091,1.024992588,14212,128,-480755,-34.67283364,22933.59375,30592,128
-605.0000721,-8388608,-31.73149726,-439972,1.020521047,14150,128,-481029,-34.69259497,22953.125,31232,128
-605.0000721,-8388608,-31.74318096,-440134,1.020881655,14155,128,-480662,-34.66612633,22972.65625,31872,128
-605.0000721,-8388608,-31.71902021,-439799,1.059033997,14684,128,-480095,-34.62523337,22992.1875,32512,128
-605.0000721,-8388608,-31.68086787,-439270,1.036243562,14368,128,-479795,-34.60359688,23011.71875,33152,128
-605.0000721,-8388608,-31.69247945,-439431,1.041292076,14438,128,-480576,-34.65992387,23031.25,33792,128
-605.0000721,-8388608,-31.75457618,-440292,1.00515914,13937,128,-481139,-34.70052835,23050.78125,34432,128
-605.0000721,-8388608,-31.76092288,-440380,1.016121628,14089,128,-481173,-34.70298048,23070.3125,35072,128
-605.0000721,-8388608,-31.75349435,-440277,1.034584765,14345,128,-481064,-34.69511923,23089.84375,35712,128
-605.0000721,-8388608,-31.64019127,-438706,1.044032698,14476,128,-480766,-34.67362698,23109.375,36352,128
-605.0000721,-8388608,-31.0694207,-430792,1.16411521,16141,128,-472411,-34.07105077,23128.90625,36992,128
-605.0000721,-8388608,-31.84797369,-441587,0.746386736,10349,128,-481775,-34.7463977,23148.4375,37632,128
-605.0000721,-8388608,-31.74447915,-440152,1.059755213,14694,128,-481614,-34.73478612,23167.96875,38272,128
-605.0000721,-8388608,-31.73618516,-440037,1.05384124,14612,128,-480992,-34.68992647,23187.5,38912,128
-605.0000721,-8388608,-31.73791608,-440061,1.017347696,14106,128,-480739,-34.6716797,23207.03125,39552,128
-605.0000721,-8388608,-31.72118386,-439829,1.055932767,14641,128,-480517,-34.65566869,23226.5625,40192,128
-605.0000721,-8388608,-31.69399401,-439452,1.051605469,14581,128,-480291,-34.63936921,23246.09375,40832,128
-605.0000721,-8388608,-31.69702312,-439494,1.055355794,14633,128,-480149,-34.62912794,23265.625,41472,128
-605.0000721,-8388608,-31.70243224,-439569,1.025858048,14224,128,-480177,-34.63114734,23285.15625,42112,128
-605.0000721,-8388608,-31.64920648,-438831,1.047278171,14521,128,-479615,-34.59061499,23304.6875,42752,128
-605.0000721,-8388608,-31.65685137,-438937,1.03393567,14336,128,-479463,-34.5796525,23324.21875,43392,128
-605.0000721,-8388608,-31.58400852,-437927,1.054995186,14628,128,-478565,-34.51488728,23343.75,44032,128
-605.0000721,-8388608,-31.56864662,-437714,1.066101917,14782,128,-477988,-34.4732731,23363.28125,44672,128
-605.0000721,-8388608,-31.59150917,-438031,1.008548857,13984,128,-477754,-34.45639663,23382.8125,45312,128
-605.0000721,-8388608,-31.61581416,-438368,1.019150736,14131,128,-478040,-34.47702342,23402.34375,45952,128
-605.0000721,-8388608,-31.69933101,-439526,0.983811138,13641,128,-479561,-34.58672042,23421.875,46592,128
-605.0000721,-8388608,-31.70257648,-439571,1.023622277,14193,128,-479824,-34.60568841,23441.40625,47232,128
-605.0000721,-8388608,-31.69954737,-439529,1.020881655,14155,128,-479836,-34.60655387,23460.9375,47872,128
-605.0000721,-8388608,-31.72154447,-439834,1.014967682,14073,128,-480218,-34.63410433,23480.46875,48512,128
-605.0000721,-8388608,-31.74267611,-440127,1.007971884,13976,128,-479954,-34.61506422,23500,49152,128
-605.0000721,-8388608,-31.72969422,-439947,1.013885857,14058,128,-480174,-34.63093098,23519.53125,49792,128
-605.0000721,-8388608,-31.72125598,-439830,1.029464129,14274,128,-479969,-34.61614604,23539.0625,50432,128
-605.0000721,-8388608,-31.71736142,-439776,1.009630681,13999,128,-479909,-34.61181874,23558.59375,51072,128
-605.0000721,-8388608,-31.7049565,-439604,1.037974481,14392,128,-479724,-34.59847624,23578.125,51712,128
-605.0000721,-8388608,-31.69320067,-439441,1.019871953,14141,128,-479695,-34.59638472,23597.65625,52352,128
-605.0000721,-8388608,-31.71490928,-439742,1.018285277,14119,128,-479944,-34.614343,23617.1875,52992,128
-605.0000721,-8388608,-31.71692869,-439770,1.026074413,14227,128,-479832,-34.60626538,23636.71875,53632,128
-605.0000721,-8388608,-31.70675954,-439629,1.033791427,14334,128,-479811,-34.60475082,23656.25,54272,128
-605.0000721,-8388608,-31.71288988,-439714,1.007250667,13966,128,-479929,-34.61326118,23675.78125,54912,128
-605.0000721,-8388608,-31.70041283,-439541,1.03126717,14299,128,-479862,-34.60842903,23695.3125,55552,128
-605.0000721,-8388608,-31.70654317,-439626,1.020737412,14153,128,-479653,-34.59335561,23714.84375,56192,128
-605.0000721,-8388608,-31.67567512,-439198,1.02730048,14244,128,-478797,-34.53161949,23734.375,56832,128
-605.0000721,-8388608,-31.63939794,-438695,1.035161738,14353,128,-478525,-34.51200241,23753.90625,57472,128
-605.0000721,-8388608,-31.64069613,-438713,1.034873251,14349,128,-478546,-34.51351696,23773.4375,58112,128
-605.0000721,-8388608,-31.69406613,-439453,0.987922071,13698,128,-479104,-34.55376083,23792.96875,58752,128
-605.0000721,-8388608,-31.72370812,-439864,0.995134234,13798,128,-479607,-34.59003801,23812.5,59392,128
-605.0000721,-8388608,-31.72983846,-439949,1.005375505,13940,128,-479294,-34.56746394,23832.03125,60032,128
-605.0000721,-8388608,-31.75818226,-440342,0.975445029,13525,128,-479104,-34.55376083,23851.5625,60672,128
-605.0000721,-8388608,-31.15264906,-431946,1.274100694,17666,128,-475037,-34.26044217,23871.09375,61312,128
-605.0000721,-8388608,-31.39678078,-435331,0.759008021,10524,128,-472704,-34.09218241,23890.625,61952,128
-605.0000721,-8388608,-31.7979934,-440894,0.873104438,12106,128,-480817,-34.67730518,23910.15625,62592,128
-605.0000721,-8388608,-31.73351666,-440000,1.008548857,13984,128,-478855,-34.53580255,23929.6875,63232,128
-605.0000721,-8388608,-31.69226309,-439428,1.039777522,14417,128,-478117,-34.48257679,23949.21875,63872,128
-605.0000721,-8388608,-31.72248205,-439847,1.010568262,14012,128,-478303,-34.49599141,23968.75,64512,128
-605.0000721,-8388608,-31.71476504,-439740,1.008188249,13979,128,-478486,-34.50918967,23988.28125,65152,128
-605.0000721,-8388608,-31.70365831,-439586,1.013020398,14046,128,-478223,-34.49022168,24007.8125,256,128
-605.0000721,-8388608,-31.6572841,-438943,1.037830238,14390,128,-477234,-34.41889339,24027.34375,896,128
-605.0000721,-8388608,-31.66218837,-439011,1.030041102,14282,128,-477522,-34.43966442,24046.875,1536,128
-605.0000721,-8388608,-31.65793319,-438952,1.024704102,14208,128,-477179,-34.4149267,24066.40625,2176,128
-605.0000721,-8388608,-31.5952595,-438083,1.057086713,14657,128,-476565,-34.37064402,24085.9375,2816,128
-605.0000721,-8388608,-31.59446616,-438072,1.010207654,14007,128,-475931,-34.3249189,24105.46875,3456,128
-605.0000721,-8388608,-31.56475205,-437660,1.006673694,13958,128,-475411,-34.28741566,24125,4096,128
-605.0000721,-8388608,-31.60997231,-438287,1.027805332,14251,128,-475751,-34.31193701,24144.53125,4736,128
-605.0000721,-8388608,-31.61415537,-438345,0.995062112,13797,128,-476249,-34.34785358,24164.0625,5376,128
-605.0000721,-8388608,-31.71526989,-439747,1.000399113,13871,128,-477628,-34.44730931,24183.59375,6016,128
-605.0000721,-8388608,-31.70942804,-439666,1.016193749,14090,128,-478011,-34.47493189,24203.125,6656,128
-605.0000721,-8388608,-31.72414085,-439870,1.015039803,14074,128,-478061,-34.47853797,24222.65625,7296,128
-605.0000721,-8388608,-31.75234041,-440261,1.01532829,14078,128,-478327,-34.49772233,24242.1875,7936,128
-605.0000721,-8388608,-31.70012435,-439537,1.028526548,14261,128,-477872,-34.46490699,24261.71875,8576,128
-605.0000721,-8388608,-31.7156305,-439752,1.029319886,14272,128,-477722,-34.45408874,24281.25,9216,128
-605.0000721,-8388608,-31.68223818,-439289,1.039200549,14409,128,-477712,-34.45336753,24300.78125,9856,128
-605.0000721,-8388608,-31.71606323,-439758,1.011000992,14018,128,-477959,-34.47118157,24320.3125,10496,128
-605.0000721,-8388608,-31.70077344,-439546,1.028670791,14263,128,-477923,-34.46858519,24339.84375,11136,128
-605.0000721,-8388608,-31.70784136,-439644,1.027949575,14253,128,-478363,-34.50031871,24359.375,11776,128
-605.0000721,-8388608,-31.70582196,-439616,1.020448926,14149,128,-477999,-34.47406643,24378.90625,12416,128
-605.0000721,-8388608,-31.70820197,-439649,1.038767819,14403,128,-478075,-34.47954768,24398.4375,13056,128
-605.0000721,-8388608,-31.68858489,-439377,1.047927266,14530,128,-477777,-34.45805543,24417.96875,13696,128
-605.0000721,-8388608,-31.71368321,-439725,1.028887156,14266,128,-478233,-34.49094289,24437.5,14336,128
-605.0000721,-8388608,-31.7086347,-439655,1.051316983,14577,128,-477626,-34.44716507,24457.03125,14976,128
-605.0000721,-8388608,-31.69976374,-439532,1.0397054,14416,128,-477376,-34.42913466,24476.5625,15616,128
-605.0000721,-8388608,-31.67855998,-439238,1.052326685,14591,128,-476894,-34.39437203,24496.09375,16256,128
-605.0000721,-8388608,-31.65973624,-438977,1.059033997,14684,128,-476583,-34.37194221,24515.625,16896,128
-605.0000721,-8388608,-31.65735622,-438944,1.019727709,14139,128,-476872,-34.39278536,24535.15625,17536,128
-605.0000721,-8388608,-31.70784136,-439644,1.008909465,13989,128,-477594,-34.44485717,24554.6875,18176,128
-605.0000721,-8388608,-31.71224078,-439705,1.02419925,14201,128,-477777,-34.45805543,24574.21875,18816,128
-605.0000721,-8388608,-31.71728929,-439775,1.020593169,14151,128,-477704,-34.45279055,24593.75,19456,128
-605.0000721,-8388608,-31.7199578,-439812,1.000976086,13879,128,-477190,-34.41572004,24613.28125,20096,128
-605.0000721,-8388608,-31.0920669,-431106,1.234794406,17121,128,-473451,-34.14605727,24632.8125,20736,128
-605.0000721,-8388608,-31.40139656,-435395,0.772206279,10707,128,-471573,-34.01061285,24652.34375,21376,128
-605.0000721,-8388608,-31.76539442,-440442,0.910174955,12620,128,-479119,-34.55484266,24671.875,22016,128
-605.0000721,-8388608,-31.70300921,-439577,1.038262968,14396,128,-477139,-34.41204183,24691.40625,22656,128
-605.0000721,-8388608,-31.6989704,-439521,1.027661088,14249,128,-477079,-34.40771453,24710.9375,23296,128
-605.0000721,-8388608,-31.67848786,-439237,1.037830238,14390,128,-477007,-34.40252178,24730.46875,23936,128
-605.0000721,-8388608,-31.67120357,-439136,1.051028496,14573,128,-476578,-34.3715816,24750,24576,128
-605.0000721,-8388608,-31.64841314,-438820,1.051749712,14583,128,-476352,-34.35528211,24769.53125,25216,128
-605.0000721,-8388608,-31.67690118,-439215,1.011217357,14021,128,-476849,-34.39112656,24789.0625,25856,128
-605.0000721,-8388608,-31.61949237,-438419,1.018141033,14117,128,-476078,-34.33552078,24808.59375,26496,128
-605.0000721,-8388608,-31.62619968,-438512,1.023478034,14191,128,-476347,-34.3549215,24828.125,27136,128
-605.0000721,-8388608,-31.58271034,-437909,1.020737412,14153,128,-475773,-34.31352369,24847.65625,27776,128
-605.0000721,-8388608,-31.53150398,-437199,1.047061807,14518,128,-474575,-34.22712198,24867.1875,28416,128
-605.0000721,-8388608,-31.52638334,-437128,1.035233859,14354,128,-474625,-34.23072806,24886.71875,29056,128
-605.0000721,-8388608,-31.57715697,-437832,0.988426922,13705,128,-474928,-34.25258091,24906.25,29696,128
-605.0000721,-8388608,-31.61740084,-438390,0.991383909,13746,128,-475689,-34.30746547,24925.78125,30336,128
-605.0000721,-8388608,-31.66254898,-439016,0.991960882,13754,128,-476690,-34.37965922,24945.3125,30976,128
-605.0000721,-8388608,-31.63391669,-438619,1.034079913,14338,128,-476441,-34.36170094,24964.84375,31616,128
-605.0000721,-8388608,-31.69046005,-439403,1.013381006,14051,128,-476936,-34.39740114,24984.375,32256,128
-605.0000721,-8388608,-31.66442414,-439042,1.040354495,14425,128,-476942,-34.39783387,25003.90625,32896,128
-605.0000721,-8388608,-31.69839343,-439513,0.996143937,13812,128,-477486,-34.43706804,25023.4375,33536,128
-605.0000721,-8388608,-31.66420778,-439039,1.013236763,14049,128,-477089,-34.40843575,25042.96875,34176,128
-605.0000721,-8388608,-31.69312855,-439440,0.993403315,13774,128,-477074,-34.40735393,25062.5,34816,128
-605.0000721,-8388608,-31.66168352,-439004,1.02730048,14244,128,-477156,-34.4132679,25082.03125,35456,128
-605.0000721,-8388608,-31.66290959,-439021,1.016842844,14099,128,-476938,-34.39754539,25101.5625,36096,128
-605.0000721,-8388608,-31.67574724,-439199,0.997442126,13830,128,-477127,-34.41117637,25121.09375,36736,128
-605.0000721,-8388608,-31.67120357,-439136,1.018285277,14119,128,-477064,-34.40663271,25140.625,37376,128
-605.0000721,-8388608,-31.61963661,-438421,1.040282373,14424,128,-476873,-34.39285748,25160.15625,38016,128
-605.0000721,-8388608,-31.67098721,-439133,1.010135533,14006,128,-477152,-34.41297941,25179.6875,38656,128
-605.0000721,-8388608,-31.65555318,-438919,1.043744212,14472,128,-477176,-34.41471033,25199.21875,39296,128
-605.0000721,-8388608,-31.67322298,-439164,1.02816594,14256,128,-477267,-34.4212734,25218.75,39936,128
-605.0000721,-8388608,-31.67250176,-439154,1.027156237,14242,128,-477141,-34.41218608,25238.28125,40576,128
-605.0000721,-8388608,-31.6546156,-438906,1.035882954,14363,128,-476400,-34.35874395,25257.8125,41216,128
-605.0000721,-8388608,-31.59324009,-438055,1.05564428,14637,128,-476046,-34.33321289,25277.34375,41856,128
-605.0000721,-8388608,-31.6096117,-438282,1.030473832,14288,128,-476511,-34.36674945,25296.875,42496,128
-605.0000721,-8388608,-31.62692089,-438522,1.010207654,14007,128,-477034,-34.40446906,25316.40625,43136,128
-605.0000721,-8388608,-31.66153928,-439002,1.044970279,14489,128,-477231,-34.41867702,25335.9375,43776,128
-605.0000721,-8388608,-31.691614,-439419,1.003428221,13913,128,-477793,-34.45920938,25355.46875,44416,128
-605.0000721,-8388608,-31.6819497,-439285,1.023261669,14188,128,-477511,-34.43887108,25375,45056,128
-605.0000721,-8388608,-31.40312748,-435419,1.262489112,17505,128,-477118,-34.41052728,25394.53125,45696,128
-605.0000721,-8388608,-31.03530717,-430319,1.100287569,15256,128,-468611,-33.79698858,25414.0625,46336,128
-605.0000721,-8388608,-31.77996299,-440644,0.735856978,10203,128,-479693,-34.59624047,25433.59375,46976,128
-605.0000721,-8388608,-31.71433231,-439734,1.016914966,14100,128,-478527,-34.51214665,25453.125,47616,128
-605.0000721,-8388608,-31.67654057,-439210,1.046268469,14507,128,-477496,-34.43778925,25472.65625,48256,128
-605.0000721,-8388608,-31.63586398,-438646,1.047422415,14523,128,-477052,-34.40576725,25492.1875,48896,128
-605.0000721,-8388608,-31.67271813,-439157,1.019655588,14138,128,-477284,-34.42249947,25511.71875,49536,128
-605.0000721,-8388608,-31.62656029,-438517,1.052470929,14593,128,-476896,-34.39451628,25531.25,50176,128
-605.0000721,-8388608,-31.65353378,-438891,1.027011994,14240,128,-477190,-34.41572004,25550.78125,50816,128
-605.0000721,-8388608,-31.60939534,-438279,1.033286575,14327,128,-476648,-34.37663011,25570.3125,51456,128
-605.0000721,-8388608,-31.56871874,-437715,1.053120023,14602,128,-476213,-34.3452572,25589.84375,52096,128
-605.0000721,-8388608,-31.57218058,-437763,1.029464129,14274,128,-476170,-34.34215597,25609.375,52736,128
-605.0000721,-8388608,-31.49760681,-436729,1.059538848,14691,128,-475276,-34.27767924,25628.90625,53376,128
-605.0000721,-8388608,-31.49630862,-436711,1.047422415,14523,128,-475001,-34.25784579,25648.4375,54016,128
-605.0000721,-8388608,-31.49832803,-436739,1.016265871,14091,128,-474802,-34.24349359,25667.96875,54656,128
-605.0000721,-8388608,-31.56655509,-437685,0.972127434,13479,128,-475723,-34.30991761,25687.5,55296,128
-605.0000721,-8388608,-31.61480446,-438354,1.013164641,14048,128,-476962,-34.3992763,25707.03125,55936,128
-605.0000721,-8388608,-31.63406094,-438621,1.02816594,14256,128,-477295,-34.42329281,25726.5625,56576,128
-605.0000721,-8388608,-31.64689859,-438799,0.996576666,13818,128,-477691,-34.45185297,25746.09375,57216,128
-605.0000721,-8388608,-31.61062141,-438296,1.050667888,14568,128,-477452,-34.4346159,25765.625,57856,128
-605.0000721,-8388608,-31.65872653,-438963,1.008476735,13983,128,-477834,-34.46216636,25785.15625,58496,128
-605.0000721,-8388608,-31.65605803,-438926,1.003067613,13908,128,-477727,-34.45444935,25804.6875,59136,128
-605.0000721,-8388608,-31.61934812,-438417,1.033358697,14328,128,-477253,-34.4202637,25824.21875,59776,128
-605.0000721,-8388608,-31.60845776,-438266,1.033358697,14328,128,-477001,-34.40208905,25843.75,60416,128
-605.0000721,-8388608,-31.62937303,-438556,1.001264572,13883,128,-477355,-34.4276201,25863.28125,61056,128
-605.0000721,-8388608,-31.61141474,-438307,1.035666589,14360,128,-477297,-34.42343705,25882.8125,61696,128
-605.0000721,-8388608,-31.61783357,-438396,1.032853846,14321,128,-477290,-34.4229322,25902.34375,62336,128
-605.0000721,-8388608,-31.61848266,-438405,1.023622277,14193,128,-477293,-34.42314856,25921.875,62976,128
-605.0000721,-8388608,-31.59872134,-438131,1.046484834,14510,128,-477346,-34.42697101,25941.40625,63616,128
-605.0000721,-8388608,-31.62165602,-438449,1.007178546,13965,128,-477542,-34.44110685,25960.9375,64256,128
-605.0000721,-8388608,-31.60239954,-438182,1.032637481,14318,128,-477359,-34.42790859,25980.46875,64896,128
-605.0000721,-8388608,-31.63333972,-438611,1.019367101,14134,128,-477475,-34.4362747,26000,0,128
-605.0000721,-8388608,-31.62540634,-438501,1.011650087,14027,128,-477521,-34.43959229,26019.53125,640,128
-605.0000721,-8388608,-31.57787819,-437842,1.052038199,14587,128,-476608,-34.37374525,26039.0625,1280,128
-605.0000721,-8388608,-31.51852209,-437019,1.071222552,14853,128,-476513,-34.36689369,26058.59375,1920,128
-605.0000721,-8388608,-31.56561751,-437672,1.019150736,14131,128,-477253,-34.4202637,26078.125,2560,128
-605.0000721,-8388608,-31.5942498,-438069,1.019150736,14131,128,-477724,-34.45423299,26097.65625,3200,128
-605.0000721,-8388608,-31.6252621,-438499,1.014102222,14061,128,-478472,-34.50817996,26117.1875,3840,128
-605.0000721,-8388608,-31.62107904,-438441,1.039993887,14420,128,-478297,-34.49555868,26136.71875,4480,128
-605.0000721,-8388608,-31.67250176,-439154,1.00205791,13894,128,-478031,-34.47637433,26156.25,5120,128
-605.0000721,-8388608,-31.08636929,-431027,1.351775688,18743,128,-475072,-34.26296643,26175.78125,5760,128
-605.0000721,-8388608,-31.64112885,-438719,0.661211093,9168,128,-477227,-34.41838854,26195.3125,6400,128
-605.0000721,-8388608,-31.67841574,-439236,0.957630987,13278,128,-479926,-34.61304481,26214.84375,7040,128
-605.0000721,-8388608,-31.65447136,-438904,1.008837343,13988,128,-478600,-34.51741153,26234.375,7680,128
-605.0000721,-8388608,-31.60535653,-438223,1.030329589,14286,128,-477529,-34.44016927,26253.90625,8320,128
-605.0000721,-8388608,-31.57542605,-437808,1.033719305,14333,128,-477379,-34.42935102,26273.4375,8960,128
-605.0000721,-8388608,-31.62432452,-438486,0.999245167,13855,128,-477999,-34.47406643,26292.96875,9600,128
-605.0000721,-8388608,-31.5555926,-437533,1.024776223,14209,128,-477299,-34.42358129,26312.5,10240,128
-605.0000721,-8388608,-31.56071324,-437604,1.042013293,14448,128,-477577,-34.44363111,26332.03125,10880,128
-605.0000721,-8388608,-31.54967863,-437451,1.042085414,14449,128,-477666,-34.45004993,26351.5625,11520,128
-605.0000721,-8388608,-31.52486879,-437107,1.04453755,14483,128,-477166,-34.41398912,26371.09375,12160,128
-605.0000721,-8388608,-31.46428662,-436267,1.063217051,14742,128,-476233,-34.34669964,26390.625,12800,128
-605.0000721,-8388608,-31.46096903,-436221,1.049297577,14549,128,-476256,-34.34835843,26410.15625,13440,128
-605.0000721,-8388608,-31.4438762,-435984,1.021242263,14160,128,-475565,-34.29852239,26429.6875,14080,128
-605.0000721,-8388608,-31.45130473,-436087,1.021170142,14159,128,-475328,-34.28142956,26449.21875,14720,128
-605.0000721,-8388608,-31.54412526,-437374,1.004582167,13929,128,-476833,-34.38997261,26468.75,15360,128
-605.0000721,-8388608,-31.57008905,-437734,1.004942775,13934,128,-477622,-34.44687658,26488.28125,16000,128
-605.0000721,-8388608,-31.57773394,-437840,1.01842952,14121,128,-478125,-34.48315376,26507.8125,16640,128
-605.0000721,-8388608,-31.58884067,-437994,1.022468331,14177,128,-478096,-34.48106223,26527.34375,17280,128
-605.0000721,-8388608,-31.56049687,-437601,1.043744212,14472,128,-477812,-34.46057969,26546.875,17920,128
-605.0000721,-8388608,-31.58177275,-437896,1.051172739,14575,128,-477909,-34.46757549,26566.40625,18560,128
-605.0000721,-8388608,-31.57535393,-437807,1.048504239,14538,128,-478234,-34.49101502,26585.9375,19200,128
-605.0000721,-8388608,-31.56251628,-437629,1.032709602,14319,128,-477694,-34.45206934,26605.46875,19840,128
-605.0000721,-8388608,-31.55977566,-437591,1.019871953,14141,128,-477854,-34.4636088,26625,20480,128
-605.0000721,-8388608,-31.6005965,-438157,0.995783329,13807,128,-478529,-34.5122909,26644.53125,21120,128
-605.0000721,-8388608,-31.56251628,-437629,1.028310183,14258,128,-477954,-34.47082096,26664.0625,21760,128
-605.0000721,-8388608,-31.5572514,-437556,0.989364504,13718,128,-478007,-34.47464341,26683.59375,22400,128
-605.0000721,-8388608,-31.58386428,-437925,0.995927572,13809,128,-478339,-34.49858779,26703.125,23040,128
-605.0000721,-8388608,-31.57744546,-437836,1.027156237,14242,128,-478135,-34.48387497,26722.65625,23680,128
-605.0000721,-8388608,-31.58379216,-437924,1.02419925,14201,128,-478021,-34.47565311,26742.1875,24320,128
-605.0000721,-8388608,-31.54506285,-437387,1.046484834,14510,128,-477357,-34.42776435,26761.71875,24960,128
-605.0000721,-8388608,-31.55515987,-437527,1.043311482,14466,128,-477357,-34.42776435,26781.25,25600,128
-605.0000721,-8388608,-31.52220029,-437070,1.045258766,14493,128,-477172,-34.41442185,26800.78125,26240,128
-605.0000721,-8388608,-31.52537364,-437114,1.021170142,14159,128,-477655,-34.44925659,26820.3125,26880,128
-605.0000721,-8388608,-31.59230251,-438042,0.993691801,13778,128,-478216,-34.48971683,26839.84375,27520,128
-605.0000721,-8388608,-31.62699302,-438523,1.025281075,14216,128,-478857,-34.53594679,26859.375,28160,128
-605.0000721,-8388608,-31.62764211,-438532,1.013236763,14049,128,-478614,-34.51842123,26878.90625,28800,128
-605.0000721,-8388608,-31.65836592,-438958,1.020232561,14146,128,-478192,-34.48798591,26898.4375,29440,128
-605.0000721,-8388608,-30.88493358,-428234,1.404352356,19472,128,-471689,-34.01897896,26917.96875,30080,128
-605.0000721,-8388608,-31.47972065,-436481,0.77797601,10787,128,-475568,-34.29873875,26937.5,30720,128
-605.0000721,-8388608,-31.65951987,-438974,1.021170142,14159,128,-479784,-34.60280354,26957.03125,31360,128
-605.0000721,-8388608,-31.65036042,-438847,1.032060508,14310,128,-478709,-34.52527279,26976.5625,32000,128
-605.0000721,-8388608,-31.62403603,-438482,1.057807929,14667,128,-478187,-34.4876253,26996.09375,32640,128
-605.0000721,-8388608,-31.61242445,-438321,1.026651386,14235,128,-478044,-34.47731191,27015.625,33280,128
-605.0000721,-8388608,-31.60413046,-438206,1.027011994,14240,128,-477589,-34.44449657,27035.15625,33920,128
-605.0000721,-8388608,-31.58040244,-437877,1.031050805,14296,128,-477341,-34.4266104,27054.6875,34560,128
-605.0000721,-8388608,-31.59713466,-438109,1.013885857,14058,128,-477645,-34.44853538,27074.21875,35200,128
-605.0000721,-8388608,-31.56388659,-437648,1.040426617,14426,128,-477061,-34.40641635,27093.75,35840,128
-605.0000721,-8388608,-31.53474945,-437244,1.039921765,14419,128,-476709,-34.38102953,27113.28125,36480,128
-605.0000721,-8388608,-31.50914627,-436889,1.030906562,14294,128,-475952,-34.32643346,27132.8125,37120,128
-605.0000721,-8388608,-31.43478887,-435858,1.072520742,14871,128,-475008,-34.25835064,27152.34375,37760,128
-605.0000721,-8388608,-31.47647518,-436436,1.029536251,14275,128,-475029,-34.2598652,27171.875,38400,128
-605.0000721,-8388608,-31.54037494,-437322,1.009342195,13995,128,-475986,-34.32888559,27191.40625,39040,128
-605.0000721,-8388608,-31.58451338,-437934,1.004365802,13926,128,-476694,-34.37994771,27210.9375,39680,128
-605.0000721,-8388608,-31.61790569,-438397,1.026867751,14238,128,-477574,-34.44341474,27230.46875,40320,128
-605.0000721,-8388608,-31.61184747,-438313,1.036099319,14366,128,-477667,-34.45012205,27250,40960,128
-605.0000721,-8388608,-31.65411075,-438899,1.026939872,14239,128,-478090,-34.4806295,27269.53125,41600,128
-605.0000721,-8388608,-31.65353378,-438891,1.028887156,14266,128,-478146,-34.48466831,27289.0625,42240,128
-605.0000721,-8388608,-31.65425499,-438901,1.039561157,14414,128,-478210,-34.4892841,27308.59375,42880,128
-605.0000721,-8388608,-31.65043254,-438848,1.022901061,14183,128,-478082,-34.48005253,27328.125,43520,128
-605.0000721,-8388608,-31.63903733,-438690,1.028310183,14258,128,-477739,-34.45531481,27347.65625,44160,128
-605.0000721,-8388608,-31.66132291,-438999,1.02859867,14262,128,-478143,-34.48445195,27367.1875,44800,128
-605.0000721,-8388608,-31.63896521,-438689,1.045907861,14502,128,-477921,-34.46844095,27386.71875,45440,128
-605.0000721,-8388608,-31.65165861,-438865,1.034296278,14341,128,-478057,-34.47824949,27406.25,46080,128
-605.0000721,-8388608,-31.67827149,-439234,1.029968981,14281,128,-478574,-34.51553637,27425.78125,46720,128
-605.0000721,-8388608,-31.65858229,-438961,1.060404308,14703,128,-477924,-34.46865731,27445.3125,47360,128
-605.0000721,-8388608,-31.67336722,-439166,1.030690197,14291,128,-478396,-34.50269872,27464.84375,48000,128
-605.0000721,-8388608,-31.65973624,-438977,1.033430819,14329,128,-477604,-34.44557839,27484.375,48640,128
-605.0000721,-8388608,-31.65266832,-438879,1.041292076,14438,128,-477409,-34.43151467,27503.90625,49280,128
-605.0000721,-8388608,-31.61920388,-438415,1.061125524,14713,128,-477271,-34.42156189,27523.4375,49920,128
-605.0000721,-8388608,-31.6326185,-438601,1.020593169,14151,128,-477545,-34.44132321,27542.96875,50560,128
-605.0000721,-8388608,-31.66204413,-439009,1.027011994,14240,128,-478314,-34.49678475,27562.5,51200,128
-605.0000721,-8388608,-31.66781386,-439089,1.038262968,14396,128,-478072,-34.47933131,27582.03125,51840,128
-605.0000721,-8388608,-31.69305643,-439439,1.035666589,14360,128,-478194,-34.48813015,27601.5625,52480,128
-605.0000721,-8388608,-31.67502602,-439189,1.210561539,16785,128,-477440,-34.43375044,27621.09375,53120,128
-605.0000721,-8388608,-31.02297437,-430148,1.280231032,17751,128,-468669,-33.80117164,27640.625,53760,128
-605.0000721,-8388608,-31.73402151,-440007,0.856300098,11873,128,-477756,-34.45654088,27660.15625,54400,128
-605.0000721,-8388608,-31.66399141,-439036,1.052831537,14598,128,-478403,-34.50320357,27679.6875,55040,128
-605.0000721,-8388608,-31.65475984,-438908,1.055716402,14638,128,-477397,-34.43064921,27699.21875,55680,128
-605.0000721,-8388608,-31.64170583,-438727,1.060260065,14701,128,-477502,-34.43822198,27718.75,56320,128
-605.0000721,-8388608,-31.61819418,-438401,1.064370997,14758,128,-477213,-34.41737883,27738.28125,56960,128
-605.0000721,-8388608,-31.62302633,-438468,1.058817632,14681,128,-477236,-34.41903763,27757.8125,57600,128
-605.0000721,-8388608,-31.65497621,-438911,1.007250667,13966,128,-477474,-34.43620258,27777.34375,58240,128
-605.0000721,-8388608,-31.58934553,-438001,1.038335089,14397,128,-476779,-34.38607805,27796.875,58880,128
-605.0000721,-8388608,-31.59122069,-438027,1.047999388,14531,128,-476799,-34.38752048,27816.40625,59520,128
-605.0000721,-8388608,-31.57095451,-437746,1.052831537,14598,128,-476382,-34.35744576,27835.9375,60160,128
-605.0000721,-8388608,-31.50806445,-436874,1.06581343,14778,128,-475422,-34.288209,27855.46875,60800,128
-605.0000721,-8388608,-31.49327952,-436669,1.054778821,14625,128,-475171,-34.27010647,27875,61440,128
-605.0000721,-8388608,-31.51974815,-437036,1.02549744,14219,128,-475232,-34.27450589,27894.53125,62080,128
-605.0000721,-8388608,-31.56922359,-437722,1.012154938,14034,128,-475891,-34.32203404,27914.0625,62720,128
-605.0000721,-8388608,-31.59749527,-438114,1.00515914,13937,128,-476902,-34.39494901,27933.59375,63360,128
