Device,Device,Device,Device,Device,Device,Device,Device,Device,Device,Device,Device
ECG Vx-RL,ECG Vx-RL,ECG LA-RA,ECG LA-RA,ExG2 CH1,ExG2 CH1,EXG1 Status,ECG LL-RA,ECG LL-RA,Timestamp,Timestamp,EXG2 Status
CAL,RAW,CAL,RAW,CAL,RAW,RAW,CAL,RAW,CAL,RAW,RAW
mV,No Units,mV,No Units,mV,No Units,No Units,mV,No Units,mSecs,No Units,No Units
4.498009622,62367,31.24424353,433216,0.585122774,8113,128,13.54061944,187747,6058.59375,1920,128
10.03096462,139084,31.08788384,431048,0.521006646,7224,128,13.48234516,186939,6078.125,2560,128
16.67437633,231198,30.97054195,429421,0.445567423,6178,128,13.40986292,185934,6097.65625,3200,128
18.43075436,255551,30.89870881,428425,0.581228206,8059,128,13.38887553,185643,6117.1875,3840,128
17.98410511,249358,30.87065349,428036,0.572285124,7935,128,13.36651783,185333,6136.71875,4480,128
18.90394436,262112,30.83877573,427594,0.459270532,6368,128,13.33132247,184845,6156.25,5120,128
28.48840397,395005,30.82983265,427470,0.460352356,6383,128,13.32331697,184734,6175.78125,5760,128
28.39854043,393759,30.86315285,427932,0.445351058,6175,128,13.33860676,184946,6195.3125,6400,128
28.58093602,396288,30.78901181,426904,0.361040874,5006,128,13.30110351,184426,6214.84375,7040,128
30.74545035,426300,30.78410754,426836,0.450543815,6247,128,13.29410771,184329,6234.375,7680,128
30.7893003,426908,30.85464249,427814,0.485522805,6732,128,13.3300964,184828,6253.90625,8320,128
30.86344133,427936,30.80401311,427112,0.537234013,7449,128,13.41635387,186024,6273.4375,8960,128
30.73073753,426096,30.89394878,428359,0.517328443,7173,128,13.42695575,186171,6292.96875,9600,128
30.73412725,426143,30.84461759,427675,0.299953854,4159,128,13.29627136,184359,6312.5,10240,128
30.81028769,427199,30.76319227,426546,0.229635266,3184,128,13.22696247,183398,6332.03125,10880,128
30.7406182,426233,30.78966091,426913,0.20367148,2824,128,13.21838,183279,6351.5625,11520,128
30.79644034,427007,30.8196635,427329,0.294761097,4087,128,13.22241881,183335,6371.09375,12160,128
30.75605223,426447,30.74472913,426290,0.182323478,2528,128,13.2140527,183219,6390.625,12800,128
30.72265991,425984,31.16974189,432183,1.329057375,18428,128,13.48234516,186939,6410.15625,13440,128
31.37831764,435075,30.97544622,429489,0.450038964,6240,128,13.14979233,182328,6429.6875,14080,128
28.65385099,397299,30.47513848,422552,1.03393567,14336,128,12.60390372,174759,6449.21875,14720,128
29.47610968,408700,30.74783036,426333,0.008293987,115,128,12.93681716,179375,6468.75,15360,128
30.72287628,425987,30.77826569,426755,0.072914967,1011,128,13.18224706,182778,6488.28125,16000,128
30.86978804,428024,30.77783296,426749,0.291876232,4047,128,13.23980012,183576,6507.8125,16640,128
30.72489568,426015,30.81288407,427235,0.24088624,3340,128,13.25797477,183828,6527.34375,17280,128
30.72720358,426047,30.77783296,426749,0.276009473,3827,128,13.27117303,184011,6546.875,17920,128
30.73174724,426110,30.79737792,427020,0.278028879,3855,128,13.27708701,184093,6566.40625,18560,128
30.72979995,426083,30.80805192,427168,0.526127282,7295,128,13.3264182,184777,6585.9375,19200,128
30.79644034,427007,30.85226248,427781,0.572357246,7936,128,13.3997659,185794,6605.46875,19840,128
30.72489568,426015,30.88183235,428191,0.57343907,7951,128,13.49850041,187163,6625,20480,128
30.76066801,426511,30.97544622,429489,1.195704483,16579,128,13.65031644,189268,6644.53125,21120,128
30.76824078,426616,30.90043973,428449,1.124087706,15586,128,13.63170905,189010,6664.0625,21760,128
30.85413764,427807,30.88976573,428301,0.588224004,8156,128,13.49741858,187148,6683.59375,22400,128
30.86582135,427969,30.82168291,427357,0.53535885,7423,128,13.33464007,184891,6703.125,23040,128
30.72619387,426033,30.79802701,427029,0.291010772,4035,128,13.22176972,183326,6722.65625,23680,128
30.74105093,426239,30.72979995,426083,0.260719688,3615,128,13.14351775,182241,6742.1875,24320,128
30.75951406,426495,30.74350306,426273,0.147128123,2040,128,13.15094628,182344,6761.71875,24960,128
28.61793442,396801,30.72778055,426055,0.145397204,2016,128,13.12015034,181917,6781.25,25600,128
28.93570232,401207,30.70801922,425781,0.129458324,1795,128,13.11185635,181802,6800.78125,26240,128
28.65363463,397296,30.71501502,425878,0.147344488,2043,128,13.1103418,181781,6820.3125,26880,128
28.92135011,401008,30.71934232,425938,0.133785621,1855,128,13.1109909,181790,6839.84375,27520,128
28.65471645,397311,30.73405513,426142,0.130900756,1815,128,13.1103418,181781,6859.375,28160,128
28.64901884,397232,30.71854898,425927,0.137608068,1908,128,13.12173702,181939,6878.90625,28800,128
28.50477558,395232,30.67102083,425268,0.091955077,1275,128,13.06245304,181117,6898.4375,29440,128
28.50369376,395217,30.71631321,425896,1.181640766,16384,128,13.09469141,181564,6917.96875,30080,128
28.64483579,397174,30.69409975,425588,0.069453129,963,128,13.06779004,181191,6937.5,30720,128
28.36341719,393272,30.67830511,425369,0.069453129,963,128,13.05278874,180983,6957.03125,31360,128
28.37675969,393457,30.67441054,425315,0.07219375,1001,128,13.03446985,180729,6976.5625,32000,128
28.4381352,394308,30.63964792,424833,0.017381313,241,128,13.02942133,180659,6996.09375,32640,128
28.39630465,393728,30.67902633,425379,1.186184428,16447,128,13.05971242,181079,7015.625,33280,128
28.44058733,394342,30.68133422,425411,1.198877835,16623,128,13.04687477,180901,7035.15625,33920,128
30.70563921,425748,30.67195841,425281,1.185895942,16443,128,13.03872502,180788,7054.6875,34560,128
30.64916797,424965,30.64887949,424961,1.19952693,16632,128,13.05379844,180997,7074.21875,35200,128
30.66647716,425205,30.67715116,425353,1.222245243,16947,128,13.05286086,180984,7093.75,35840,128
30.72258779,425983,30.64642735,424927,1.222028878,16944,128,13.04326869,180851,7113.28125,36480,128
30.72258779,425983,30.67181416,425279,1.210345174,16782,128,13.05408693,181001,7132.8125,37120,128
30.72258779,425983,30.64274915,424876,1.200031781,16639,128,13.05062509,180953,7152.34375,37760,128
30.70874044,425791,30.65630801,425064,1.186833523,16456,128,13.14575352,182272,7171.875,38400,128
30.71342834,425856,30.67138143,425273,1.218494918,16895,128,13.15505721,182401,7191.40625,39040,128
28.36370568,393276,30.65255769,425012,1.181640766,16384,128,13.04370142,180857,7210.9375,39680,128
30.68566152,425471,30.61786719,424531,0.055605776,771,128,12.99660599,180204,7230.46875,40320,128
30.64772554,424945,30.62493511,424629,0.004615784,64,128,12.98434532,180034,7250,40960,128
30.64851888,424956,30.54112977,423467,1.181496523,16382,128,12.92736923,179244,7269.53125,41600,128
30.72258779,425983,30.62096842,424574,0.040604477,563,128,12.97403192,179891,7289.0625,42240,128
30.71112045,425824,30.73816606,426199,1.186472915,16451,128,13.17178943,182633,7308.59375,42880,128
30.7229484,425988,31.2448205,433224,1.482171593,20551,128,13.20496538,183093,7328.125,43520,128
30.27954463,419840,30.22905949,419140,1.172264954,16254,128,12.40686743,172027,7347.65625,44160,128
30.40878658,421632,30.50860292,423016,0.221774008,3075,128,12.5407973,173884,7367.1875,44800,128
30.71342834,425856,30.52951819,423306,0.055461533,769,128,12.90248727,178899,7386.71875,45440,128
30.72251567,425982,30.60272164,424321,0.130684391,1812,128,12.97359919,179885,7406.25,46080,128
30.68602213,425476,30.61512656,424493,1.181857131,16387,128,13.00165451,180274,7425.78125,46720,128
30.72172233,425971,30.58274395,424044,1.222028878,16944,128,13.00713575,180350,7445.3125,47360,128
30.65097101,424990,30.60401983,424339,1.216331269,16865,128,13.02610374,180613,7464.84375,48000,128
30.57899363,423992,30.59370644,424196,1.182650469,16398,128,13.07197309,181249,7484.375,48640,128
30.71811625,425921,30.67152568,425275,1.32573978,18382,128,13.18606951,182831,7503.90625,49280,128
30.70506224,425740,30.68248817,425427,1.273740086,17661,128,13.27600518,184078,7523.4375,49920,128
28.48854822,395007,30.7506431,426372,1.218494918,16895,128,13.38959675,185653,7542.96875,50560,128
28.40899806,393904,30.77112565,426656,1.190800213,16511,128,13.45840078,186607,7562.5,51200,128
30.74112305,426240,30.74170002,426248,1.183876536,16415,128,13.39875619,185780,7582.03125,51840,128
28.36384992,393278,30.77703962,426738,1.218422797,16894,128,13.31639329,184638,7601.5625,52480,128
30.7186211,425928,30.71176955,425833,1.196569943,16591,128,13.10962058,181771,7621.09375,53120,128
28.37553363,393440,30.70030221,425674,1.271648559,17632,128,13.09122957,181516,7640.625,53760,128
30.66503473,425185,30.66049107,425122,1.26241699,17504,128,13.09937931,181629,7660.15625,54400,128
30.64988919,424975,30.70123979,425687,1.320042171,18303,128,13.11769821,181883,7679.6875,55040,128
28.37769727,393470,30.76398561,426557,1.32927374,18431,128,13.18426647,182806,7699.21875,55680,128
30.72208294,425976,30.75799951,426474,1.328119794,18415,128,13.16089906,182482,7718.75,56320,128
28.43315881,394239,30.76542804,426577,1.255709679,17411,128,13.22011092,183303,7738.28125,56960,128
28.35937838,393216,30.79507003,426988,1.251742989,17356,128,13.23165038,183463,7757.8125,57600,128
28.50203496,395194,30.82723627,427434,1.292635953,17923,128,13.26590815,183938,7777.34375,58240,128
28.43236547,394228,30.84418486,427669,1.321917334,18329,128,13.29735318,184374,7796.875,58880,128
30.75951406,426495,30.88024567,428169,1.209335471,16768,128,13.3297358,184823,7816.40625,59520,128
28.50701135,395263,30.8973385,428406,1.190800213,16511,128,13.34315042,185009,7835.9375,60160,128
28.618872,396814,30.88450085,428228,1.185030482,16431,128,13.33572189,184906,7855.46875,60800,128
30.74977764,426360,30.93455326,428922,1.320114293,18304,128,13.39615982,185744,7875,61440,128
30.9070028,428540,30.97378742,429466,1.310882725,18176,128,13.43561035,186291,7894.53125,62080,128
28.65471645,397311,30.94392907,429052,1.320186415,18305,128,13.42334967,186121,7914.0625,62720,128
30.72720358,426047,30.99160147,429713,1.322133699,18332,128,13.4381346,186326,7933.59375,63360,128
30.86928318,428017,31.02643621,430196,1.18402078,16417,128,13.4894852,187038,7953.125,64000,128
28.64671095,397200,31.04497147,430453,1.182506225,16396,128,13.49092764,187058,7972.65625,64640,128
30.74285397,426264,31.04843331,430501,1.295881426,17968,128,13.51227564,187354,7992.1875,65280,128
30.72893449,426071,31.09812511,431190,1.32927374,18431,128,13.56788141,188125,8011.71875,384,128
30.83754967,427577,31.10483242,431283,1.320330658,18307,128,13.64180608,189150,8031.25,1024,128
30.85190187,427776,31.15099027,431923,1.800155854,24960,128,13.73094842,190386,8050.78125,1664,128
30.75273463,426401,31.13072409,431642,1.788255785,24795,128,13.61403926,188765,8070.3125,2304,128
30.74119517,426241,31.11045791,431361,1.32927374,18431,128,13.58843608,188410,8089.84375,2944,128
30.74746975,426328,31.13613321,431717,1.312685765,18201,128,13.59723492,188532,8109.375,3584,128
30.86589347,427970,31.1390902,431758,1.809098936,25084,128,13.59608097,188516,8128.90625,4224,128
30.72612175,426032,31.13822474,431746,1.781115744,24696,128,13.66264923,189439,8148.4375,4864,128
30.74566671,426303,31.29357473,433900,1.93855726,26879,128,13.7965791,191296,8167.96875,5504,128
30.87137471,428046,31.76337502,440414,1.109951867,15390,128,13.90865611,192850,8187.5,6144,128
30.78735301,426881,30.87786566,428136,0.574809381,7970,128,13.30470959,184476,8207.03125,6784,128
28.87649046,400386,31.11110701,431370,1.444307738,20026,128,13.27283183,184034,8226.5625,7424,128
30.75951406,426495,31.2031342,432646,1.781764839,24705,128,13.69005545,189819,8246.09375,8064,128
30.7309539,426099,31.18351712,432374,1.901703108,26368,128,13.71868774,190216,8265.625,8704,128
30.87462018,428091,31.2127985,432780,1.777581784,24647,128,13.7595807,190783,8285.15625,9344,128
30.98215353,429582,31.21597185,432824,1.790852164,24831,128,13.78251538,191101,8304.6875,9984,128
31.00184274,429855,31.20493724,432671,1.809892274,25095,128,13.77782747,191036,8324.21875,10624,128
30.78728089,426880,31.172771,432225,1.790924286,24832,128,13.79189119,191231,8343.75,11264,128
31.2764819,433663,31.27359703,433623,2.075948963,28784,128,13.89055358,192599,8363.28125,11904,128
31.01532948,430042,31.26717821,433534,2.215432193,30718,128,13.98481655,193906,8382.8125,12544,128
30.9903754,429696,31.28629044,433799,2.341356557,32464,128,14.07929588,195216,8402.34375,13184,128
31.30879239,434111,31.2871559,433811,2.291232025,31769,128,14.10821666,195617,8421.875,13824,128
30.72287628,425987,31.27677039,433667,2.289428984,31744,128,14.07186736,195113,8441.40625,14464,128
30.85305582,427792,31.18741169,432428,2.067943462,28673,128,13.87742744,192417,8460.9375,15104,128
30.79644034,427007,31.12899317,431618,1.774913284,24610,128,13.72820779,190348,8480.46875,15744,128
30.72439083,426008,31.0747577,430866,1.776788447,24636,128,13.67628022,189628,8500,16384,128
28.90404092,400768,31.07713772,430899,1.899395215,26336,128,13.66647168,189492,8519.53125,17024,128
30.76160559,426524,31.06393946,430716,1.800444341,24964,128,13.65666314,189356,8539.0625,17664,128
30.73787758,426195,31.06321824,430706,1.917858352,26592,128,13.6441861,189183,8558.59375,18304,128
30.77754447,426745,31.07079101,430811,1.808449842,25075,128,13.66062983,189411,8578.125,18944,128
28.84980546,400016,31.06891585,430785,1.773038122,24584,128,13.66250499,189437,8597.65625,19584,128
30.73708424,426184,31.05470789,430588,1.826840857,25330,128,13.65132614,189282,8617.1875,20224,128
30.7416279,426247,31.07382012,430853,1.773542973,24591,128,13.68226632,189711,8636.71875,20864,128
30.72482356,426014,31.07230557,430832,1.90047704,26351,128,13.670222,189544,8656.25,21504,128
30.74285397,426264,31.03826416,430360,1.808882571,25081,128,13.65933164,189393,8675.78125,22144,128
30.72265991,425984,31.03436959,430306,1.829004506,25360,128,13.63661333,189078,8695.3125,22784,128
30.78944454,426910,31.06812251,430774,1.831817249,25399,128,13.64822491,189239,8714.84375,23424,128
28.63199814,396996,31.01323795,430013,1.774408433,24603,128,13.63199754,189014,8734.375,24064,128
28.94882845,401389,31.04179812,430409,1.781909082,24707,128,13.61822231,188823,8753.90625,24704,128
28.65471645,397311,31.01468039,430033,1.772461149,24576,128,13.61728473,188810,8773.4375,25344,128
30.87022076,428030,31.02066648,430116,1.779384825,24672,128,13.61302955,188751,8792.96875,25984,128
30.75035462,426368,31.00191486,429856,1.772461149,24576,128,13.5911767,188448,8812.5,26624,128
28.6092077,396680,31.01381493,430021,1.790852164,24831,128,13.61072166,188719,8832.03125,27264,128
30.86913894,428015,30.98446142,429614,1.772461149,24576,128,13.60805316,188682,8851.5625,27904,128
30.73181936,426111,31.03458596,430309,1.802391625,24991,128,13.73953089,190505,8871.09375,28544,128
30.73131451,426104,31.02557075,430184,1.788544272,24799,128,13.73404965,190429,8890.625,29184,128
28.80595551,399408,30.99253905,429726,1.805781341,25038,128,13.62240536,188881,8910.15625,29824,128
30.72287628,425987,30.9710468,429428,1.311387576,18183,128,13.55028374,187881,8929.6875,30464,128
28.618872,396814,30.9080125,428554,1.255637557,17410,128,13.52900786,187586,8949.21875,31104,128
28.57408447,396193,30.93787085,428968,1.310882725,18176,128,13.52446419,187523,8968.75,31744,128
28.62226172,396861,30.91082524,428593,1.310954846,18177,128,13.5361479,187685,8988.28125,32384,128
28.43092304,394208,31.07115162,430816,1.774696919,24607,128,13.72900113,190359,9007.8125,33024,128
30.73290118,426126,31.47128242,436364,1.773326608,24588,128,13.75799403,190761,9027.34375,33664,128
30.59796162,424255,30.61115987,424438,0.572501489,7938,128,13.13580074,182134,9046.875,34304,128
28.43265396,394232,30.78684816,426874,1.200608754,16647,128,13.0943308,181559,9066.40625,34944,128
28.42399936,394112,30.96123826,429292,1.226572541,17007,128,13.55922682,188005,9085.9375,35584,128
28.57343537,396184,30.91342162,428629,1.329201618,18430,128,13.55785651,187986,9105.46875,36224,128
28.65471645,397311,30.93693327,428955,1.781764839,24705,128,13.59860523,188551,9125,36864,128
28.59925492,396542,30.95633399,429224,1.80484376,25025,128,13.6205302,188855,9144.53125,37504,128
28.58115239,396291,30.94904971,429123,1.817465045,25200,128,13.63271876,189024,9164.0625,38144,128
28.58208997,396304,30.99167359,429714,1.845159751,25584,128,13.69726762,189919,9183.59375,38784,128
28.59528823,396487,30.97220075,429444,1.774192068,24600,128,13.74768063,190618,9203.125,39424,128
30.76016316,426504,30.97126317,429431,1.777004811,24639,128,13.82499502,191690,9222.65625,40064,128
30.7406182,426233,31.05290485,430563,2.215576436,30720,128,13.9292829,193136,9242.1875,40704,128
30.72265991,425984,31.05744851,430626,2.206344868,30592,128,13.97082495,193712,9261.71875,41344,128
30.79701731,427015,31.01395917,430023,2.146195429,29758,128,13.89603482,192675,9281.25,41984,128
30.83394359,427527,30.99816453,429804,1.786308502,24768,128,13.78741965,191169,9300.78125,42624,128
30.73989698,426223,30.9416933,429021,1.77253327,24577,128,13.60170646,188594,9320.3125,43264,128
30.86675893,427982,30.86647044,427978,1.257729084,17439,128,13.51689142,187418,9339.84375,43904,128
28.42940848,394187,30.83603511,427556,1.273812207,17662,128,13.49258643,187081,9359.375,44544,128
30.72273203,425985,30.8710141,428041,1.332735578,18479,128,13.49042278,187051,9378.90625,45184,128
28.36341719,393272,30.85918616,427877,1.258666665,17452,128,13.48804277,187018,9398.4375,45824,128
28.6178623,396800,30.84274242,427649,1.2557818,17412,128,13.49511069,187116,9417.96875,46464,128
28.36860995,393344,30.88385175,428219,1.271864923,17635,128,13.53189272,187626,9437.5,47104,128
30.85190187,427776,30.85752736,427854,1.21856704,16896,128,13.50253922,187219,9457.03125,47744,128
28.65385099,397299,30.88212083,428195,1.248425394,17310,128,13.50102466,187198,9476.5625,48384,128
28.54739947,395823,30.90361308,428493,1.301579035,18047,128,13.53585941,187681,9496.09375,49024,128
28.47037357,394755,30.84807942,427723,1.182650469,16398,128,13.49741858,187148,9515.625,49664,128
28.35952262,393218,30.86978804,428024,1.246117502,17278,128,13.4981398,187158,9535.15625,50304,128
30.72316476,425991,30.81548045,427271,1.182073496,16390,128,13.44159644,186374,9554.6875,50944,128
28.39839618,393757,30.90938281,428573,1.251310259,17350,128,13.48775428,187014,9574.21875,51584,128
28.49785191,395136,30.86740802,427991,1.211426999,16797,128,13.46950751,186761,9593.75,52224,128
28.35981111,393222,30.87425958,428086,1.200103903,16640,128,13.46106928,186644,9613.28125,52864,128
28.43092304,394208,30.81605742,427279,1.195920848,16582,128,13.45602077,186574,9632.8125,53504,128
28.50701135,395263,30.84144424,427631,1.186184428,16447,128,13.44404858,186408,9652.34375,54144,128
28.50600165,395249,30.85283945,427789,1.331581632,18463,128,13.45450621,186553,9671.875,54784,128
28.58115239,396291,30.87115835,428043,1.183660171,16412,128,13.45241469,186524,9691.40625,55424,128
28.46950811,394743,30.82348595,427382,1.320258536,18306,128,13.42457574,186138,9710.9375,56064,128
28.4284709,394174,30.86596559,427971,1.214744593,16843,128,13.50001496,187184,9730.46875,56704,128
28.58987911,396412,30.87671171,428120,1.328624645,18422,128,13.56377048,188068,9750,57344,128
28.61822291,396805,30.88478933,428232,1.320691266,18312,128,13.4734742,186816,9769.53125,57984,128
28.50592953,395248,30.83120296,427489,1.285207425,17820,128,13.39904468,185784,9789.0625,58624,128
28.43063455,394204,30.80552766,427133,1.257512719,17436,128,13.36550812,185319,9808.59375,59264,128
28.48631245,394976,30.80812404,427169,1.301146305,18041,128,13.37560515,185459,9828.125,59904,128
28.39680951,393735,30.78973303,426914,1.252031476,17360,128,13.34495346,185034,9847.65625,60544,128
28.39616041,393726,30.75006613,426364,1.364829703,18924,128,13.50434226,187244,9867.1875,61184,128
30.83516965,427544,31.27785221,433682,2.142012375,29700,128,13.67051049,189548,9886.71875,61824,128
28.36269598,393262,30.48602885,422703,0.035483841,492,128,13.14842202,182309,9906.25,62464,128
30.56637234,423817,30.53175396,423337,0.017958286,249,128,12.81175826,177641,9925.78125,63104,128
30.71364471,425859,30.75323948,426408,1.337856214,18550,128,13.2697306,183991,9945.3125,63744,128
28.48876458,395010,30.80502281,427126,1.188492321,16479,128,13.41051202,185943,9964.84375,64384,128
28.36853783,393343,30.82276473,427372,1.273884329,17663,128,13.43056183,186221,9984.375,65024,128
30.72374174,425999,30.77451536,426703,1.293285047,17932,128,13.4094302,185928,10003.90625,128,128
30.72316476,425991,30.81706712,427293,1.181857131,16387,128,13.44282251,186391,10023.4375,768,128
28.36572508,393304,30.80293129,427097,1.189069294,16487,128,13.46756023,186734,10042.96875,1408,128
30.73650727,426176,30.81057618,427203,1.25534907,17406,128,13.5044865,187246,10062.5,2048,128
28.48624033,394975,30.85644553,427839,1.780394528,24686,128,13.6205302,188855,10082.03125,2688,128
28.65248068,397280,30.93758237,428964,1.778230879,24656,128,13.74234363,190544,10101.5625,3328,128
28.56232864,396030,30.95633399,429224,1.818474748,25214,128,13.82001863,191621,10121.09375,3968,128
30.7779772,426751,30.92279743,428759,1.790707921,24829,128,13.78597722,191149,10140.625,4608,128
28.50766045,395272,30.89394878,428359,1.781620596,24703,128,13.60639436,188659,10160.15625,5248,128
30.74047395,426231,30.81418226,427253,1.198949957,16624,128,13.46929115,186758,10179.6875,5888,128
28.36046021,393231,30.77783296,426749,1.290039574,17887,128,13.3874331,185623,10199.21875,6528,128
30.7416279,426247,30.7753087,426714,1.217485215,16881,128,13.34372739,185017,10218.75,7168,128
28.35937838,393216,30.7249678,426016,1.199815416,16636,128,13.32959155,184821,10238.28125,7808,128
28.42962485,394190,30.73556968,426163,1.217990067,16888,128,13.31747512,184653,10257.8125,8448,128
28.38685672,393597,30.7469649,426321,1.216691877,16870,128,13.3290867,184814,10277.34375,9088,128
28.41505628,393988,30.77675113,426734,1.209479715,16770,128,13.34502558,185035,10296.875,9728,128
28.36219112,393255,30.73910364,426212,1.204647565,16703,128,13.35267047,185141,10316.40625,10368,128
28.37784152,393472,30.74314245,426268,1.192963862,16541,128,13.36190204,185269,10335.9375,11008,128
28.41015201,393920,30.77040443,426646,1.199815416,16636,128,13.34365527,185016,10355.46875,11648,128
28.49042338,395033,30.80307553,427099,1.246766597,17287,128,13.35916142,185231,10375,12288,128
28.39608829,393725,30.78389118,426833,1.245324164,17267,128,13.34192435,184992,10394.53125,12928,128
28.35959475,393219,30.74934492,426354,1.199599051,16633,128,13.32526425,184761,10414.0625,13568,128
28.41822963,394032,30.75980255,426499,1.217990067,16888,128,13.33139459,184846,10433.59375,14208,128
28.36046021,393231,30.75944194,426494,1.200031781,16639,128,13.3247594,184754,10453.125,14848,128
28.48862034,395008,30.76369712,426553,1.32840828,18419,128,13.32151393,184709,10472.65625,15488,128
28.40892594,393903,30.77184686,426666,1.217124607,16876,128,13.349425,185096,10492.1875,16128,128
28.40777199,393887,30.77090928,426653,1.185968064,16444,128,13.30644051,184500,10511.71875,16768,128
28.36485962,393292,30.76513955,426573,1.202916646,16679,128,13.3147345,184615,10531.25,17408,128
28.35937838,393216,30.79600761,427001,1.218783405,16899,128,13.33406309,184883,10550.78125,18048,128
28.39442949,393702,30.77177474,426665,1.23760715,17160,128,13.34581892,185046,10570.3125,18688,128
28.37719242,393463,30.77155838,426662,1.202411795,16672,128,13.31531147,184623,10589.84375,19328,128
28.43157213,394217,30.77747235,426744,1.254339368,17392,128,13.35194926,185131,10609.375,19968,128
28.42991333,394194,30.77502021,426710,1.328768889,18424,128,13.43597095,186296,10628.90625,20608,128
28.50354952,395215,30.8586813,427870,1.346078079,18664,128,13.47635907,186856,10648.4375,21248,128
30.74112305,426240,30.74170002,426248,1.243737488,17245,128,13.28112582,184149,10667.96875,21888,128
28.42912,394183,30.7646347,426566,1.186112307,16446,128,13.30644051,184500,10687.5,22528,128
30.7042689,425729,30.74545035,426300,1.30136267,18044,128,13.25912872,183844,10707.03125,23168,128
28.39572768,393720,30.7486237,426344,1.329201618,18430,128,13.27427426,184054,10726.5625,23808,128
30.72237143,425980,30.68631061,425480,1.320979753,18316,128,13.35533897,185178,10746.09375,24448,128
31.01987314,430105,31.07771469,430907,1.716422643,23799,128,13.52936846,187591,10765.625,25088,128
28.72914597,398343,30.56139595,423748,0.293102299,4064,128,13.11885215,181899,10785.15625,25728,128
30.43612068,422011,30.43554371,422003,0.004327298,60,128,12.70696553,176188,10804.6875,26368,128
30.72215506,425977,30.67830511,425369,0.277307663,3845,128,12.96148276,179717,10824.21875,27008,128
28.39616041,393726,30.74905643,426350,1.32573978,18382,128,13.2894198,184264,10843.75,27648,128
28.41368597,393969,30.77047655,426647,1.218855526,16900,128,13.33067338,184836,10863.28125,28288,128
28.42421572,394115,30.7919688,426945,1.255276949,17405,128,13.38404338,185576,10882.8125,28928,128
30.72467932,426012,30.76398561,426557,1.250877529,17344,128,13.36356084,185292,10902.34375,29568,128
30.77848205,426758,30.79276214,426956,1.324802199,18369,128,13.37834577,185497,10921.875,30208,128
28.39168887,393664,30.81692288,427291,1.321051874,18317,128,13.43286972,186253,10941.40625,30848,128
30.73412725,426143,30.80769131,427163,1.204503322,16701,128,13.46864205,186749,10960.9375,31488,128
28.51155502,395326,30.89791547,428414,1.772461149,24576,128,13.62601145,188931,10980.46875,32128,128
28.41476779,393984,30.9073634,428545,1.920094123,26623,128,13.69539245,189893,11000,32768,128
30.79189668,426944,30.93527447,428932,1.902063716,26373,128,13.72481808,190301,11019.53125,33408,128
28.57220931,396167,30.93549084,428935,1.809459544,25089,128,13.63740666,189089,11039.0625,34048,128
30.72265991,425984,30.82723627,427434,1.197796011,16608,128,13.41281991,185975,11058.59375,34688,128
28.47022932,394753,30.79658458,427009,1.218422797,16894,128,13.32432667,184748,11078.125,35328,128
28.3974586,393744,30.76542804,426577,1.293573534,17936,128,13.26237419,183889,11097.65625,35968,128
30.74105093,426239,30.75951406,426495,1.324080983,18359,128,13.25011352,183719,11117.1875,36608,128
28.36824934,393339,30.7673032,426603,1.324225226,18361,128,13.25025776,183721,11136.71875,37248,128
30.78901181,426904,30.76376924,426554,1.320114293,18304,128,13.23980012,183576,11156.25,37888,128
28.3594505,393217,30.76513955,426573,1.313479103,18212,128,13.27816883,184108,11175.78125,38528,128
28.36637418,393313,30.75511465,426434,1.311892427,18190,128,13.25609961,183802,11195.3125,39168,128
28.41123383,393935,30.76989958,426639,1.30136267,18044,128,13.26410511,183913,11214.84375,39808,128
30.72417447,426005,30.74177214,426249,1.31109909,18179,128,13.23345342,183488,11234.375,40448,128
30.76888988,426625,30.77076504,426651,1.313046373,18206,128,13.2767264,184088,11253.90625,41088,128
28.36853783,393343,30.7866318,426871,1.311387576,18183,128,13.24434379,183639,11273.4375,41728,128
28.36161415,393247,30.74725339,426325,1.26018122,17473,128,13.22515943,183373,11292.96875,42368,128
28.35937838,393216,30.76074013,426512,1.322350064,18335,128,13.23035219,183445,11312.5,43008,128
28.37553363,393440,30.73903152,426211,1.253401786,17379,128,13.21809151,183275,11332.03125,43648,128
28.35937838,393216,30.73455998,426149,1.246261745,17280,128,13.21325936,183208,11351.5625,44288,128
28.39861255,393760,30.74155578,426246,1.255421192,17407,128,13.1873677,182849,11371.09375,44928,128
28.36680691,393319,30.7299442,426085,1.183804415,16414,128,13.19176712,182910,11390.625,45568,128
28.42630725,394144,30.78987727,426916,1.301579035,18047,128,13.22761157,183407,11410.15625,46208,128
28.36190264,393251,30.79038212,426923,1.326460996,18392,128,13.23460737,183504,11429.6875,46848,128
28.41866236,394038,30.7806457,426788,1.308863319,18148,128,13.2360498,183524,11449.21875,47488,128
28.35966687,393220,30.78071782,426789,1.251310259,17350,128,13.21657696,183254,11468.75,48128,128
28.43287032,394235,30.79384396,426971,1.328768889,18424,128,13.26583603,183937,11488.28125,48768,128
28.43431275,394255,30.80134461,427075,1.182217739,16392,128,13.36493115,185311,11507.8125,49408,128
28.36305658,393267,30.88327478,428211,1.181712887,16385,128,13.33045701,184833,11527.34375,50048,128
28.41419082,393976,30.77999661,426779,1.299271142,18015,128,13.202369,183057,11546.875,50688,128
28.39637678,393729,30.76138923,426521,1.213951256,16832,128,13.17395308,182663,11566.40625,51328,128
30.7219387,425974,30.71616897,425894,1.181712887,16385,128,13.15996148,182469,11585.9375,51968,128
28.35988323,393223,30.76225469,426533,1.3301392,18443,128,13.18116524,182763,11605.46875,52608,128
30.72258779,425983,30.71797201,425919,1.325811902,18383,128,13.25400809,183773,11625,53248,128
29.53640336,409536,31.37067275,434969,1.661610205,23039,128,13.46864205,186749,11644.53125,53888,128
30.5748827,423935,30.55641956,423679,0.003461838,48,128,13.0846665,181425,11664.0625,54528,128
30.49879438,422880,30.57250268,423902,0.110778822,1536,128,12.68576177,175894,11683.59375,55168,128
28.39507859,393711,30.75605223,426447,1.218206432,16891,128,13.03281105,180706,11703.125,55808,128
28.42486482,394124,30.7893003,426908,1.402621436,19448,128,13.21910122,183289,11722.65625,56448,128
28.48386031,394942,30.80819616,427170,1.403703261,19463,128,13.24665168,183671,11742.1875,57088,128
28.37553363,393440,30.83170782,427496,1.473589119,20432,128,13.29014102,184274,11761.71875,57728,128
28.4494583,394465,30.83120296,427489,1.474670944,20447,128,13.28631857,184221,11781.25,58368,128
28.49056762,395035,30.81692288,427291,1.184381388,16422,128,13.29663197,184364,11800.78125,59008,128
30.72576114,426027,30.87808202,428139,1.198949957,16624,128,13.3837549,185572,11820.3125,59648,128
30.72734782,426049,30.89409302,428361,1.357256932,18819,128,13.45984321,186627,11839.84375,60288,128
28.50809318,395278,30.94782364,429106,1.36382,18910,128,13.58006997,188294,11859.375,60928,128
30.7919688,426945,30.93505811,428929,1.775922987,24624,128,13.59730704,188533,11878.90625,61568,128
28.645557,397184,30.97508561,429484,1.800083733,24959,128,13.65341767,189311,11898.4375,62208,128
30.94443392,429059,30.95417034,429194,1.337351362,18543,128,13.48595124,186989,11917.96875,62848,128
28.49806827,395139,30.85211824,427779,1.181929252,16388,128,13.30470959,184476,11937.5,63488,128
28.35959475,393219,30.82182715,427359,1.243593245,17243,128,13.20763388,183130,11957.03125,64128,128
28.45162194,394495,30.81187437,427221,1.218422797,16894,128,13.17748704,182712,11976.5625,64768,128
28.42868727,394177,30.81468711,427260,1.181857131,16387,128,13.1473402,182294,11996.09375,65408,128
28.43330305,394241,30.80120037,427073,1.200031781,16639,128,13.15996148,182469,12015.625,512,128
28.36435477,393285,30.78417966,426837,1.218494918,16895,128,13.16587545,182551,12035.15625,1152,128
28.5065065,395256,30.82889507,427457,1.347736877,18687,128,13.17380883,182661,12054.6875,1792,128
30.84757457,427716,30.8106483,427204,1.190800213,16511,128,13.17056336,182616,12074.21875,2432,128
28.46561354,394689,30.82427929,427393,1.189718388,16496,128,13.16089906,182482,12093.75,3072,128
28.39623253,393727,30.79434881,426978,1.194189929,16558,128,13.17647733,182698,12113.28125,3712,128
28.47470087,394815,30.83740542,427575,1.357256932,18819,128,13.16782274,182578,12132.8125,4352,128
28.47058993,394758,30.8373333,427574,1.218494918,16895,128,13.17900159,182733,12152.34375,4992,128
28.39616041,393726,30.82153867,427355,1.32530705,18376,128,13.12786736,182024,12171.875,5632,128
28.44152492,394355,30.8143265,427255,1.310738481,18174,128,13.12714614,182014,12191.40625,6272,128
30.72511205,426018,30.81281195,427234,1.324802199,18369,128,13.12332369,181961,12210.9375,6912,128
28.35937838,393216,30.76088438,426514,1.273884329,17663,128,13.0863253,181448,12230.46875,7552,128
28.41988843,394055,30.78316996,426823,1.311315454,18182,128,13.0906526,181508,12250,8192,128
28.3777694,393471,30.79276214,426956,1.324802199,18369,128,13.07875253,181343,12269.53125,8832,128
28.3777694,393471,30.80848465,427174,1.327037969,18400,128,13.09728779,181600,12289.0625,9472,128
28.39680951,393735,30.76052377,426509,1.292203223,17917,128,13.10687996,181733,12308.59375,10112,128
28.36832146,393340,30.8019937,427084,1.218639161,16897,128,13.18347313,182795,12328.125,10752,128
28.3734421,393411,30.83105872,427487,1.333889524,18495,128,13.21765878,183269,12347.65625,11392,128
28.47102266,394764,30.84324728,427656,1.296025669,17970,128,13.11127938,181794,12367.1875,12032,128
28.4317885,394220,30.77401051,426696,1.183371685,16408,128,13.05062509,180953,12386.71875,12672,128
28.36067657,393234,30.81656227,427286,1.190511726,16507,128,13.06858338,181202,12406.25,13312,128
28.38815491,393615,30.78006873,426780,1.183876536,16415,128,13.02307463,180571,12425.78125,13952,128
30.72035202,425952,30.72064051,425956,1.191160821,16516,128,13.00756848,180356,12445.3125,14592,128
28.36219112,393255,30.83163569,427495,1.402693558,19449,128,13.19833019,183001,12464.84375,15232,128
30.77343354,426688,30.94364058,429048,1.324730077,18368,128,12.95073664,179568,12484.375,15872,128
30.72150597,425968,30.4261679,421873,1.181568644,16383,128,12.63268025,175158,12503.90625,16512,128
30.72035202,425952,30.61043866,424428,0.056471235,783,128,12.51894444,173581,12523.4375,17152,128
28.37034087,393368,30.75215766,426393,0.254372985,3527,128,12.95758819,179663,12542.96875,17792,128
28.3777694,393471,30.81367741,427246,1.207243944,16739,128,13.05819786,181058,12562.5,18432,128
28.3777694,393471,30.79038212,426923,1.241573839,17215,128,13.0579815,181055,12582.03125,19072,128
28.36630206,393312,30.8043016,427116,1.181857131,16387,128,13.05675543,181038,12601.5625,19712,128
28.42616301,394142,30.79175243,426942,1.292924439,17927,128,13.07226158,181253,12621.09375,20352,128
28.42616301,394142,30.83560238,427550,1.292924439,17927,128,13.10875512,181759,12640.625,20992,128
28.47037357,394755,30.84634851,427699,1.327975551,18413,128,13.14438321,182253,12660.15625,21632,128
30.75958619,426496,30.94126057,429015,1.197219038,16600,128,13.35800747,185215,12699.21875,22912,128
28.58093602,396288,30.9566946,429229,1.327542821,18407,128,13.40582411,185878,12718.75,23552,128
28.43315881,394239,30.94227027,429029,1.310882725,18176,128,13.34632377,185053,12738.28125,24192,128
28.51141077,395324,30.87627898,428114,1.190800213,16511,128,13.14798929,182303,12757.8125,24832,128
28.36853783,393343,30.78014085,426781,1.255565435,17409,128,12.98845625,180091,12777.34375,25472,128
28.3754615,393439,30.77076504,426651,0.138473527,1920,128,12.94676995,179513,12796.875,26112,128
28.37719242,393463,30.77422688,426699,0.071977386,998,128,12.92434012,179202,12816.40625,26752,128
28.39536707,393715,30.75569162,426442,0.069236764,960,128,12.91849827,179121,12835.9375,27392,128
30.68775304,425500,30.75122008,426380,0.004543663,63,128,12.88243745,178621,12855.46875,28032,128
28.36406629,393281,30.75482616,426430,0.018391015,255,128,12.9162625,179090,12875,28672,128
28.36500387,393294,30.7459552,426307,0.025891665,359,128,12.90335273,178911,12894.53125,29312,128
28.39406888,393697,30.72951147,426079,0.066928872,928,128,12.88387989,178641,12914.0625,29952,128
28.3647875,393291,30.77768872,426747,0.071833142,996,128,12.88633202,178675,12933.59375,30592,128
28.39572768,393720,30.75424919,426422,0.018318894,254,128,12.86447917,178372,12953.125,31232,128
30.72258779,425983,30.73304543,426128,0.001081824,15,128,12.86837374,178426,12972.65625,31872,128
28.35937838,393216,30.72907874,426073,0.01817465,252,128,12.84075115,178043,12992.1875,32512,128
28.37041299,393369,30.73520908,426158,0.017237069,239,128,12.84507845,178103,13011.71875,33152,128
28.36046021,393231,30.76434621,426562,0.015145542,210,128,12.86116157,178326,13031.25,33792,128
30.72208294,425976,30.73867091,426206,0.147416609,2044,128,12.83296202,177935,13050.78125,34432,128
30.72056839,425955,30.7052786,425743,0.1390505,1928,128,12.80598853,177561,13070.3125,35072,128
30.65284618,425016,30.71775564,425916,7.21E-05,1,128,12.80620489,177564,13089.84375,35712,128
30.72258779,425983,30.70354768,425719,0.137175338,1902,128,12.80245457,177512,13109.375,36352,128
28.37755303,393468,30.66409715,425172,0.112437619,1559,128,12.76725921,177024,13128.90625,36992,128
28.36139779,393244,30.72013566,425949,0.144099014,1998,128,12.8098831,177615,13148.4375,37632,128
28.35937838,393216,30.72244355,425981,0.112004889,1553,128,12.82387469,177809,13167.96875,38272,128
28.3594505,393217,30.68299302,425434,7.21E-05,1,128,12.90082847,178876,13187.5,38912,128
28.39392464,393695,30.7249678,426016,0.009087325,126,128,12.82113407,177771,13207.03125,39552,128
28.36384992,393278,30.64830251,424953,0.035628085,494,128,12.75067124,176794,13226.5625,40192,128
30.69482096,425598,30.66279896,425154,0.003750325,52,128,12.73076567,176518,13246.09375,40832,128
30.72056839,425955,30.65046616,424983,0.034834747,483,128,12.70660492,176183,13265.625,41472,128
30.61152048,424443,30.64844676,424955,0.036709909,509,128,12.72463533,176433,13285.15625,42112,128
30.71710655,425907,30.57841665,423984,0.004543663,63,128,12.83750568,177998,13304.6875,42752,128
28.49085611,395039,31.17031886,432191,0.558437772,7743,128,13.06057788,181091,13324.21875,43392,128
30.71458229,425872,30.30702297,420221,1.050595766,14567,128,12.44199067,172514,13343.75,44032,128
30.16753974,418287,30.44145768,422085,0.147632974,2047,128,12.17153456,168764,13363.28125,44672,128
30.6395758,424832,30.61476596,424488,5.05E-04,7,128,12.63354571,175170,13382.8125,45312,128
30.70066282,425679,30.63964792,424833,0.147416609,2044,128,12.74973366,176781,13402.34375,45952,128
30.65003343,424977,30.68234392,425425,0.035772328,496,128,12.76148948,176944,13421.875,46592,128
30.69482096,425598,30.66438564,425176,0.131405608,1822,128,12.77692351,177158,13441.40625,47232,128
30.72042414,425953,30.68018027,425395,0.140492933,1948,128,12.81918679,177744,13460.9375,47872,128
30.68782517,425501,30.68191119,425419,0.140637176,1950,128,12.85885368,178294,13480.46875,48512,128
30.68573364,425472,30.70614406,425755,0.015866758,220,128,12.88012956,178589,13500,49152,128
30.71335622,425855,30.7496334,426358,0.235909848,3271,128,12.98939383,180104,13519.53125,49792,128
28.36853783,393343,30.75403282,426419,1.246261745,17280,128,13.07406462,181278,13539.0625,50432,128
28.39623253,393727,30.78115055,426795,1.181712887,16385,128,13.1563554,182419,13558.59375,51072,128
28.36161415,393247,30.82774113,427441,1.343265336,18625,128,13.1836895,182798,13578.125,51712,128
28.37618272,393449,30.77639053,426729,1.218422797,16894,128,13.03108013,180682,13597.65625,52352,128
30.71833261,425924,30.70289859,425710,0.002019406,28,128,12.82921169,177883,13617.1875,52992,128
30.72258779,425983,30.67844935,425371,0.036782031,510,128,12.75333974,176831,13636.71875,53632,128
30.57538755,423942,30.62781997,424669,0.115322484,1599,128,12.70083519,176103,13656.25,54272,128
30.72121748,425964,30.64195581,424865,0.145902055,2023,128,12.7001861,176094,13675.78125,54912,128
30.61079927,424433,30.64404734,424894,0.271249446,3761,128,12.68006416,175815,13695.3125,55552,128
30.62277146,424599,30.62342055,424608,0.129241959,1792,128,12.68280479,175853,13714.84375,56192,128
30.64873524,424959,30.63488789,424767,0.290722286,4031,128,12.69795033,176063,13734.375,56832,128
30.6902773,425535,30.61548717,424498,0.147416609,2044,128,12.67725142,175776,13753.90625,57472,128
30.71689018,425904,30.63279636,424738,0.147056001,2039,128,12.70638856,176180,13773.4375,58112,128
30.57495482,423936,30.63322909,424744,0.138689892,1923,128,12.67645808,175765,13792.96875,58752,128
30.59320159,424189,30.60719318,424383,0.143089311,1984,128,12.67299624,175717,13812.5,59392,128
30.68544515,425468,30.60214467,424313,0.144243258,2000,128,12.66780349,175645,13832.03125,60032,128
30.69381126,425584,30.62197812,424588,0.147200244,2041,128,12.66188951,175563,13851.5625,60672,128
30.72244355,425981,30.62399752,424616,0.129241959,1792,128,12.63455542,175184,13871.09375,61312,128
30.70643255,425759,30.57069964,423877,0.016660096,231,128,12.60960133,174838,13890.625,61952,128
30.49208707,422787,30.5422116,423482,0.03231049,448,128,12.62013109,174984,13910.15625,62592,128
30.54026431,423455,30.60387559,424337,0.152248758,2111,128,12.6481864,175373,13929.6875,63232,128
30.60964532,424417,30.5828882,424046,0.11157216,1547,128,12.62654991,175073,13949.21875,63872,128
30.49468344,422823,30.54942376,423582,0.008943082,124,128,12.60166795,174728,13968.75,64512,128
30.43640917,422015,30.54019219,423454,0,0,128,12.59510488,174637,13988.28125,65152,128
30.45956021,422336,30.60632773,424371,0.152248758,2111,128,12.64912398,175386,14007.8125,256,128
30.65688499,425072,30.57726271,423968,0.111067308,1540,128,12.71800014,176341,14027.34375,896,128
30.65803893,425088,30.66178926,425140,0.004543663,63,128,12.77180288,177087,14046.875,1536,128
30.72150597,425968,30.56687719,423824,0.111211552,1542,128,12.62013109,174984,14066.40625,2176,128
30.71342834,425856,30.54906315,423577,5.77E-04,8,128,12.59250851,174601,14085.9375,2816,128
30.50081378,422908,30.5512268,423607,8.65E-04,12,128,12.58132965,174446,14105.46875,3456,128
30.7116253,425831,30.53781218,423421,7.21E-05,1,128,12.55428404,174071,14125,4096,128
30.72035202,425952,30.50860292,423016,0.016155245,224,128,12.62157352,175004,14144.53125,4736,128
30.56593961,423811,30.83978544,427608,2.88E-04,4,128,12.76697073,177020,14164.0625,5376,128
28.50931925,395295,30.88875602,428287,1.052182442,14589,128,12.57317991,174333,14183.59375,6016,128
30.45407897,422260,30.20446601,418799,0.590748261,8191,128,12.00853968,166504,14203.125,6656,128
30.4361928,422012,30.49165434,422781,0.015578272,216,128,12.23817494,169688,14222.65625,7296,128
30.72056839,425955,30.5555541,423667,1.44E-04,2,128,12.56257803,174186,14242.1875,7936,128
30.7042689,425729,30.52281088,423213,0.017814042,247,128,12.5674823,174254,14261.71875,8576,128
30.67729541,425355,30.52865273,423294,0.003822446,53,128,12.60743768,174808,14281.25,9216,128
30.59118218,424161,30.5485583,423570,0.14568569,2020,128,12.66376468,175589,14300.78125,9856,128
30.57264692,423904,30.55533773,423664,0.136670487,1895,128,12.67934295,175805,14320.3125,10496,128
30.57473845,423933,30.55872745,423711,0.131982581,1830,128,12.68410297,175871,14339.84375,11136,128
30.57495482,423936,30.57553179,423944,0.017958286,249,128,12.73689601,176603,14359.375,11776,128
30.70419678,425728,30.65638014,425065,0.147632974,2047,128,12.88863991,178707,14378.90625,12416,128
30.72157809,425969,30.66388078,425169,0.1390505,1928,128,12.96407914,179753,14398.4375,13056,128
30.70188888,425696,30.64671584,424931,1.185174726,16433,128,12.98174894,179998,14417.96875,13696,128
30.6855894,425470,30.67073234,425264,0.12931408,1793,128,12.94136082,179438,14437.5,14336,128
30.58274395,424044,30.54177887,423476,0.073780426,1023,128,12.70696553,176188,14457.03125,14976,128
30.71890959,425932,30.54762072,423557,0.146479028,2031,128,12.63044448,175127,14476.5625,15616,128
30.64880736,424960,30.51076657,423046,0.03231049,448,128,12.58003146,174428,14496.09375,16256,128
30.72258779,425983,30.54538495,423526,0.073780426,1023,128,12.58580119,174508,14515.625,16896,128
30.72143384,425967,30.53168184,423336,0.016660096,231,128,12.56452531,174213,14535.15625,17536,128
30.53802854,423424,30.50038105,422902,0.046085721,639,128,12.57729084,174390,14554.6875,18176,128
30.51906055,423161,30.53247518,423347,0.036782031,510,128,12.59113819,174582,14574.21875,18816,128
30.46417599,422400,30.51567084,423114,2.16E-04,3,128,12.58010359,174429,14593.75,19456,128
30.43532734,422000,30.52461392,423238,0.055389411,768,128,12.6048413,174772,14613.28125,20096,128
30.50002044,422897,30.52136845,423193,0.008654595,120,128,12.58529634,174501,14632.8125,20736,128
30.64476855,424904,30.51343507,423083,0.147416609,2044,128,12.57570417,174368,14652.34375,21376,128
30.71443805,425870,30.49273616,422796,0.027766827,385,128,12.58385391,174481,14671.875,22016,128
30.66503473,425185,30.54682738,423546,0.148137826,2054,128,12.58334906,174474,14691.40625,22656,128
30.50312167,422940,30.52569574,423253,0.036349301,504,128,12.59077759,174577,14710.9375,23296,128
30.46388751,422396,30.48646158,422709,0.138473527,1920,128,12.54252822,173908,14730.46875,23936,128
30.43532734,422000,30.50535744,422971,2.16E-04,3,128,12.56892473,174274,14750,24576,128
30.57495482,423936,30.50283319,422936,0.133785621,1855,128,12.54173488,173897,14769.53125,25216,128
30.43186551,421952,30.47456151,422544,0.144820231,2008,128,12.55839498,174128,14789.0625,25856,128
30.49648648,422848,30.47831183,422596,0.054307586,753,128,12.60375948,174757,14808.59375,26496,128
30.42724972,421888,30.53975946,423448,0.291876232,4047,128,12.67299624,175717,14828.125,27136,128
30.48372096,422671,30.48934644,422749,0.002524257,35,128,12.55767376,174118,14847.65625,27776,128
30.43136065,421945,30.43431764,421986,0.110850943,1537,128,12.49723583,173280,14867.1875,28416,128
30.65753408,425081,30.45213168,422233,0.143089311,1984,128,12.49175459,173204,14886.71875,29056,128
30.7042689,425729,30.40424292,421569,0.007933379,110,128,12.47170478,172926,14906.25,29696,128
30.71854898,425927,30.37878399,421216,0.027550462,382,128,12.47083932,172914,14925.78125,30336,128
30.50160712,422919,30.83617936,427558,0.002163649,30,128,12.7332178,176552,14945.3125,30976,128
28.59543247,396489,30.53824491,423427,0.072914967,1011,128,12.43701427,172445,14964.84375,31616,128
29.81991349,413467,30.07782043,417043,0.064693101,897,128,12.17853036,168861,14984.375,32256,128
30.57401724,423923,30.37287001,421134,0.176553747,2448,128,12.21112933,169313,15003.90625,32896,128
30.68349787,425441,30.38852041,421351,0.009664298,134,128,12.42035418,172214,15023.4375,33536,128
30.61072714,424432,30.42775457,421895,0.129458324,1795,128,12.51187652,173483,15042.96875,34176,128
30.15491845,418112,30.41527753,421722,0.110778822,1536,128,12.52810389,173708,15062.5,34816,128
30.72208294,425976,30.4378516,422035,0.11820735,1639,128,12.54144639,173893,15082.03125,35456,128
30.13205589,417795,30.42479759,421854,0,0,128,12.56402046,174206,15101.5625,36096,128
30.72258779,425983,30.42371576,421839,0,0,128,12.58926303,174556,15121.09375,36736,128
30.47333544,422527,30.48768765,422726,0.221990373,3078,128,12.67609747,175760,15140.625,37376,128
30.64419158,424896,30.46944087,422473,0.07262648,1007,128,12.74273786,176684,15160.15625,38016,128
30.64909585,424964,30.59550948,424221,0.175399801,2432,128,12.89628481,178813,15179.6875,38656,128
30.72150597,425968,30.56968994,423863,7.21E-05,1,128,12.88748597,178691,15199.21875,39296,128
30.65803893,425088,30.52641696,423263,0.147632974,2047,128,12.73011657,176509,15218.75,39936,128
30.42955761,421920,30.48191792,422646,0.141935365,1968,128,12.6134959,174892,15238.28125,40576,128
30.46641177,422431,30.49006766,422759,0.147632974,2047,128,12.47668117,172995,15257.8125,41216,128
30.44455891,422128,30.45213168,422233,0.036926274,512,128,12.41213231,172100,15277.34375,41856,128
30.64851888,424956,30.4775185,422585,0,0,128,12.40989654,172069,15296.875,42496,128
30.5008859,422909,30.45133834,422222,0.003389717,47,128,12.38104789,171669,15316.40625,43136,128
30.42789882,421897,30.4441983,422123,0.14525296,2014,128,12.40477591,171998,15335.9375,43776,128
30.68573364,425472,30.44196253,422092,0.018391015,255,128,12.42287844,172249,15355.46875,44416,128
30.71335622,425855,30.45357412,422253,0.00223577,31,128,12.41090624,172083,15375,45056,128
30.65335103,425023,30.5042035,422955,0,0,128,12.421436,172229,15394.53125,45696,128
30.72237143,425980,30.48516339,422691,0.004038811,56,128,12.41891175,172194,15414.0625,46336,128
30.64866312,424958,30.48249489,422654,0,0,128,12.40852623,172050,15433.59375,46976,128
30.57596452,423950,30.48213428,422649,0.286178623,3968,128,12.40506439,172002,15453.125,47616,128
30.57949848,423999,30.48718279,422719,0.146479028,2031,128,12.38717823,171754,15472.65625,48256,128
30.42948549,421919,30.44693893,422161,0.129458324,1795,128,12.34996347,171238,15492.1875,48896,128
30.58425851,424065,30.44059222,422073,0.072698602,1008,128,12.32926456,170951,15511.71875,49536,128
30.42768245,421894,30.45076137,422214,0.05315364,737,128,12.32998578,170961,15531.25,50176,128
30.7219387,425974,30.4265285,421878,0.037791733,524,128,12.30770019,170652,15550.78125,50816,128
30.69020518,425534,30.46770995,422449,0.165879746,2300,128,12.33113972,170977,15570.3125,51456,128
30.45379048,422256,30.44910257,422191,0.069236764,960,128,12.30582503,170626,15589.84375,52096,128
30.71789988,425918,30.42248969,421822,0.036349301,504,128,12.2883716,170384,15609.375,52736,128
30.71451017,425871,30.4441983,422123,0.018318894,254,128,12.29385284,170460,15628.90625,53376,128
30.59334583,424191,30.44491952,422133,0.03231049,448,128,12.2780582,170241,15648.4375,54016,128
30.43128853,421944,30.47845608,422598,0.059644587,827,128,12.34599678,171183,15667.96875,54656,128
30.57517118,423939,30.44708317,422163,0.138689892,1923,128,12.38205759,171683,15687.5,55296,128
30.61180897,424447,30.48588461,422701,0.147344488,2043,128,12.32320634,170867,15707.03125,55936,128
30.65796681,425087,30.41866725,421769,0.00223577,31,128,12.26601389,170074,15726.5625,56576,128
30.68342575,425440,30.37900035,421219,0.111211552,1542,128,12.18884375,169004,15746.09375,57216,128
30.64880736,424960,30.3821737,421263,0.128088013,1776,128,12.1990129,169145,15765.625,57856,128
30.66712626,425214,30.38354401,421282,0.138762014,1924,128,12.19526257,169093,15785.15625,58496,128
30.64880736,424960,30.30976359,420259,0.077963481,1081,128,12.27199999,170157,15804.6875,59136,128
30.68349787,425441,30.6839306,425447,0.060582168,840,128,12.46781021,172872,15824.21875,59776,128
30.65775045,425084,30.16191425,418209,0.315604248,4376,128,12.03479195,166868,15843.75,60416,128
29.79971943,413187,30.09714903,417311,2.206849719,30599,128,11.62355442,161166,15863.28125,61056,128
30.3078163,420232,30.29858474,420104,0,0,128,11.88001894,164722,15882.8125,61696,128
30.65053828,424984,30.39789622,421481,0.003173352,44,128,12.19814744,169133,15902.34375,62336,128
30.64924009,424966,30.35959963,420950,0.147632974,2047,128,12.21963969,169431,15921.875,62976,128
30.42458122,421851,30.38513069,421304,0.11027397,1529,128,12.2466853,169806,15941.40625,63616,128
30.71804413,425920,30.37323062,421139,0.110778822,1536,128,12.23420825,169633,15960.9375,64256,128
30.71378895,425861,30.42443698,421849,0.009087325,126,128,12.28310672,170311,15980.46875,64896,128
30.43006246,421927,30.47614819,422566,0.140709298,1951,128,12.33553914,171038,16000,0,128
30.70419678,425728,30.50232834,422929,0.110490335,1532,128,12.39273159,171831,16019.53125,640,128
30.6522692,425008,30.54899103,423576,0.002812744,39,128,12.50307769,173361,16039.0625,1280,128
30.50002044,422897,30.56925721,423857,0.004543663,63,128,12.56329925,174196,16058.59375,1920,128
30.57603664,423951,30.63582547,424780,0.070895561,983,128,12.59250851,174601,16078.125,2560,128
30.65681287,425071,30.59211976,424174,0.074790129,1037,128,12.48201817,173069,16097.65625,3200,128
30.58476336,424072,30.52511877,423245,0.075078616,1041,128,12.26457146,170054,16117.1875,3840,128
30.58425851,424065,30.4945392,422821,0.037431125,519,128,12.16410603,168661,16136.71875,4480,128
30.50160712,422919,30.47001785,422481,0.035123233,487,128,12.10049475,167779,16156.25,5120,128
30.64988919,424975,30.45357412,422253,0.076088318,1055,128,12.06984306,167354,16175.78125,5760,128
30.6395758,424832,30.4945392,422821,0.002019406,28,128,12.11556817,167988,16195.3125,6400,128
30.70441314,425731,30.50304955,422939,5.05E-04,7,128,12.10150446,167793,16214.84375,7040,128
30.71804413,425920,30.46157962,422364,0.111211552,1542,128,12.07590128,167438,16234.375,7680,128
30.5748827,423935,30.47001785,422481,0.119721904,1660,128,12.08599831,167578,16253.90625,8320,128
30.42775457,421895,30.52966243,423308,0.142512338,1976,128,12.10662509,167864,16273.4375,8960,128
30.70304283,425712,30.49273616,422796,0.147056001,2039,128,12.10438932,167833,16292.96875,9600,128
30.68566152,425471,30.53564853,423391,0.147200244,2041,128,12.10150446,167793,16312.5,10240,128
30.64887949,424961,30.52194542,423201,0.136382,1891,128,12.04979325,167076,16332.03125,10880,128
30.71515926,425880,30.53060001,423321,0.088781725,1231,128,12.05275024,167117,16351.5625,11520,128
30.51033384,423040,30.51350719,423084,0.111788525,1550,128,12.03897501,166926,16371.09375,12160,128
30.68566152,425471,30.50896353,423021,0.072698602,1008,128,12.02332461,166709,16390.625,12800,128
30.72258779,425983,30.48595673,422702,0.002307892,32,128,11.99029291,166251,16410.15625,13440,128
30.57444997,423929,30.4998762,422895,0.070102223,972,128,12.00392389,166440,16429.6875,14080,128
30.66604443,425199,30.51357931,423085,0,0,128,11.98870623,166229,16449.21875,14720,128
30.72208294,425976,30.53939885,423443,0.001226068,17,128,12.00089479,166398,16468.75,15360,128
30.42825942,421902,30.48336035,422666,0.004543663,63,128,11.96829581,165946,16488.28125,16000,128
30.71804413,425920,30.48804825,422731,0.005120636,71,128,11.96173274,165855,16507.8125,16640,128
30.46323841,422387,30.51026172,423039,0.147632974,2047,128,11.98149407,166129,16527.34375,17280,128
30.61880477,424544,30.48047548,422626,5.05E-04,7,128,11.98286438,166148,16546.875,17920,128
30.42761033,421893,30.47203725,422509,0.067000993,929,128,12.04799021,167051,16566.40625,18560,128
30.72258779,425983,30.41967695,421783,0.145325082,2015,128,12.10878874,167894,16585.9375,19200,128
30.5795706,424000,30.4441983,422123,0.14655115,2032,128,12.02007914,166664,16605.46875,19840,128
30.71342834,425856,30.37193243,421121,0.147632974,2047,128,11.95372724,165744,16625,20480,128
30.64880736,424960,30.37928884,421223,0.115394606,1600,128,11.942909,165594,16644.53125,21120,128
30.70470163,425735,30.34178559,420703,0.106379402,1475,128,11.91009365,165139,16664.0625,21760,128
30.21023574,418879,30.36255662,420991,0.128664986,1784,128,11.9422599,165585,16683.59375,22400,128
30.60719318,424383,30.36630694,421043,0.009087325,126,128,12.09003712,167634,16703.125,23040,128
28.39630465,393728,30.91681134,428676,0.33341829,4623,128,12.23954525,169707,16722.65625,23680,128
30.15232207,418076,29.99632299,415913,0,0,128,11.71832224,162480,16742.1875,24320,128
30.13292135,417807,30.1640779,418239,1.993946671,27647,128,11.44224065,158652,16761.71875,24960,128
30.14936509,418035,30.35592143,420899,2.356285734,32671,128,11.92163312,165299,16781.25,25600,128
30.68111785,425408,30.38311128,421276,0.149940866,2079,128,11.98877835,166230,16800.78125,26240,128
30.19884052,418721,30.3468341,420773,0.041253572,572,128,12.00478935,166452,16820.3125,26880,128
30.72035202,425952,30.40193503,421537,0.12974681,1799,128,12.05743814,167182,16839.84375,27520,128
30.57545967,423943,30.35036806,420822,0.073564061,1020,128,12.03306103,166844,16859.375,28160,128
30.65082677,424988,30.36839847,421072,0.132559554,1838,128,12.09609534,167718,16878.90625,28800,128
30.27896765,419832,30.38974647,421368,0.014280082,198,128,12.14441683,168388,16898.4375,29440,128
30.72237143,425980,30.47903305,422606,0.146767515,2035,128,12.25411382,169909,16917.96875,30080,128
30.7052786,425743,30.48458642,422683,0.147344488,2043,128,12.35263197,171275,16937.5,30720,128
30.43539947,422001,30.51531023,423109,0.017453434,242,128,12.40715592,172031,16957.03125,31360,128
30.70419678,425728,30.50139076,422916,0.140276568,1945,128,12.40225165,171963,16976.5625,32000,128
30.42724972,421888,30.46194022,422369,0,0,128,12.28087095,170280,16996.09375,32640,128
30.42948549,421919,30.4004926,421517,0.009087325,126,128,12.0979705,167744,17015.625,33280,128
30.38080339,421244,30.37734155,421196,0.002091527,29,128,12.0236131,166713,17035.15625,33920,128
30.39443438,421433,30.40388231,421564,0.018463137,256,128,12.02491129,166731,17054.6875,34560,128
30.4084981,421628,30.37012939,421096,0.027694705,384,128,11.99187958,166273,17074.21875,35200,128
30.64880736,424960,30.35137777,420836,2.16E-04,3,128,11.97969103,166104,17093.75,35840,128
30.25862935,419550,30.36926393,421084,0.028127435,390,128,11.99267292,166284,17113.28125,36480,128
30.68566152,425471,30.38289492,421273,0.046013599,638,128,12.00868392,166506,17132.8125,37120,128
30.65270193,425014,30.36652331,421046,2.88E-04,4,128,12.00601542,166469,17152.34375,37760,128
30.42724972,421888,30.43691402,422022,0.14034869,1946,128,12.0583036,167194,17171.875,38400,128
30.65053828,424984,30.41931634,421778,0.140637176,1950,128,12.03774894,166909,17191.40625,39040,128
30.35765235,420923,30.3881598,421346,0.018391015,255,128,12.01943004,166655,17210.9375,39680,128
30.42840367,421904,30.41008477,421650,0.147128123,2040,128,12.03673923,166895,17230.46875,40320,128
30.26576939,419649,30.37770216,421201,0.019617083,272,128,12.02541614,166738,17250,40960,128
30.42609577,421872,30.41686421,421744,0.13017954,1805,128,12.05736602,167181,17269.53125,41600,128
30.4271776,421887,30.41960483,421782,0.035772328,496,128,12.03717196,166901,17289.0625,42240,128
30.42746609,421891,30.43727463,422027,0.11777462,1633,128,12.04568232,167019,17308.59375,42880,128
30.69958099,425664,30.3998435,421508,0.03231049,448,128,12.02411795,166720,17328.125,43520,128
30.71350047,425857,30.42025392,421791,0.064620979,896,128,12.02988768,166800,17347.65625,44160,128
30.27940038,419838,30.41989331,421786,0.072770723,1009,128,12.05390418,167133,17367.1875,44800,128
30.58368153,424057,30.44246738,422099,0.088853847,1232,128,12.05339933,167126,17386.71875,45440,128
30.64938434,424968,30.46266144,422379,0.144964474,2010,128,12.0743146,167416,17406.25,46080,128
30.65782257,425085,30.44347709,422113,0.017958286,249,128,12.14088287,168339,17425.78125,46720,128
30.72208294,425976,30.4545117,422266,0.142512338,1976,128,12.19894078,169144,17445.3125,47360,128
30.70304283,425712,30.48148519,422640,0.091161739,1264,128,12.07380975,167409,17464.84375,48000,128
30.13638319,417855,30.42090302,421800,0.073275575,1016,128,12.03580165,166882,17484.375,48640,128
30.70607194,425754,30.41809027,421761,0.013775231,191,128,12.00103903,166400,17503.90625,49280,128
30.42602365,421871,30.42587941,421869,0.041037207,569,128,12.00918877,166513,17523.4375,49920,128
30.57545967,423943,30.43453401,421989,0.037791733,524,128,12.02368522,166714,17542.96875,50560,128
30.64967282,424972,30.46157962,422364,5.05E-04,7,128,12.16771211,168711,17562.5,51200,128
28.62009807,396831,30.99722695,429791,0.486388264,6744,128,12.31202749,170712,17582.03125,51840,128
28.93260109,401164,30.09577872,417292,1.154450912,16007,128,11.71760103,162470,17601.5625,52480,128
30.1640779,418239,30.27370277,419759,2.065491327,28639,128,11.51775199,159699,17621.09375,53120,128
30.44607347,422149,30.45126622,422221,0.165663381,2297,128,11.99591839,166329,17640.625,53760,128
30.60748167,424387,30.45631474,422291,0.126934067,1760,128,12.05426479,167138,17660.15625,54400,128
30.4848749,422687,30.47802335,422592,0.114817633,1592,128,12.09162379,167656,17679.6875,55040,128
30.71112045,425824,30.48768765,422726,0.020266178,281,128,12.13150705,168209,17699.21875,55680,128
30.58411426,424063,30.48458642,422683,0.139627473,1936,128,12.13020887,168191,17718.75,56320,128
30.58930702,424135,30.47896093,422605,0.056543357,784,128,12.15451385,168528,17738.28125,56960,128
30.68674334,425486,30.54826981,423566,0.146334785,2029,128,12.2396895,169709,17757.8125,57600,128
30.71321198,425853,30.54675526,423545,0.07039071,976,128,12.32565848,170901,17777.34375,58240,128
30.5945719,424208,30.63431092,424759,5.05E-04,7,128,12.42158025,172231,17796.875,58880,128
30.72258779,425983,30.64036913,424843,0.129241959,1792,128,12.48151332,173062,17816.40625,59520,128
30.68595,425475,30.61837204,424538,0.034618382,480,128,12.43261485,172384,17835.9375,60160,128
30.59327371,424190,30.53377337,423365,0.075006494,1040,128,12.24372831,169765,17855.46875,60800,128
30.71400532,425864,30.52245027,423208,0.002812744,39,128,12.11917426,168038,17875,61440,128
30.68854638,425511,30.48134094,422638,0.073996791,1026,128,12.04272533,166978,17894.53125,62080,128
30.70419678,425728,30.48263913,422656,0.059933074,831,128,12.02649796,166753,17914.0625,62720,128
30.72049626,425954,30.46489721,422410,0.032887463,456,128,12.03407073,166858,17933.59375,63360,128
30.64895161,424962,30.51365143,423086,0.034906868,484,128,11.99498081,166316,17953.125,64000,128
30.50196773,422924,30.52273876,423212,0.065774925,912,128,12.0209446,166676,17972.65625,64640,128
30.71400532,425864,30.49713558,422857,0.019544961,271,128,12.02707494,166761,17992.1875,65280,128
30.44463103,422129,30.55310196,423633,0.275793108,3824,128,12.09140743,167653,18011.71875,384,128
30.66698202,425212,30.48379308,422672,0.114745511,1591,128,12.01950217,166656,18031.25,1024,128
30.65104314,424991,30.50514108,422968,0.145397204,2016,128,12.04524959,167013,18050.78125,1664,128
30.71566411,425887,30.51422841,423094,0.113086714,1568,128,12.04034532,166945,18070.3125,2304,128
30.49814528,422871,30.48884159,422742,0.05445183,755,128,12.0139488,166579,18089.84375,2944,128
30.7122744,425840,30.52663333,423266,0.222134617,3080,128,12.04207624,166969,18109.375,3584,128
30.49901074,422883,30.48364883,422670,0.038008098,527,128,12.00183237,166411,18128.90625,4224,128
30.65111526,424992,30.51343507,423083,0.073636183,1021,128,12.01899731,166649,18148.4375,4864,128
30.57538755,423942,30.48588461,422701,0.02877653,399,128,12.00781846,166494,18167.96875,5504,128
30.64880736,424960,30.51040596,423041,0.066712507,925,128,12.02332461,166709,18187.5,6144,128
30.69006094,425532,30.51934904,423165,0.147777217,2049,128,12.02000702,166663,18207.03125,6784,128
30.44513588,422136,30.49648648,422848,0.016155245,224,128,11.99930811,166376,18226.5625,7424,128
30.55649168,423680,30.52281088,423213,0.152248758,2111,128,12.01351607,166573,18246.09375,8064,128
30.72237143,425980,30.53550429,423389,0.166168233,2304,128,12.02440644,166724,18265.625,8704,128
30.42833155,421903,30.52064723,423183,0.073275575,1016,128,12.01733852,166626,18285.15625,9344,128
30.65803893,425088,30.48408156,422676,0.059933074,831,128,12.00255358,166421,18304.6875,9984,128
30.72258779,425983,30.53507156,423383,0.073708305,1022,128,12.02166581,166686,18324.21875,10624,128
30.56601173,423812,30.5165363,423126,0.266489418,3695,128,12.10337962,167819,18343.75,11264,128
30.64880736,424960,30.58231122,424038,0.03584445,497,128,12.14304652,168369,18363.28125,11904,128
30.57033903,423872,30.53867764,423433,0.035772328,496,128,12.03486407,166869,18382.8125,12544,128
30.64866312,424958,30.48494702,422688,0.002524257,35,128,11.96663701,165923,18402.34375,13184,128
30.65053828,424984,30.50917989,423024,0.148570555,2060,128,11.96937763,165961,18421.875,13824,128
30.44109707,422080,30.51494962,423104,0.156864543,2175,128,11.969594,165964,18441.40625,14464,128
30.63488789,424767,30.48718279,422719,0.00353396,49,128,11.9679352,165941,18460.9375,15104,128
30.6902773,425535,30.84029029,427615,0.071544656,992,128,12.26810542,170103,18480.46875,15744,128
28.36399416,393280,30.90419005,428501,0.073780426,1023,128,12.02866161,166783,18500,16384,128
30.14568688,417984,30.18362286,418510,1.172841927,16262,128,11.60566826,160918,18519.53125,17024,128
30.72150597,425968,30.45040076,422209,2.230505613,30927,128,11.68464144,162013,18539.0625,17664,128
30.46215659,422372,30.49908286,422884,0.029930476,415,128,11.94701993,165651,18558.59375,18304,128
30.55735714,423692,30.53860552,423432,0.142007487,1969,128,12.0406338,166949,18578.125,18944,128
30.72150597,425968,30.54264433,423488,0.110778822,1536,128,12.03847015,166919,18597.65625,19584,128
30.43215399,421956,30.52446968,423236,0.076448927,1060,128,12.04517747,167012,18617.1875,20224,128
30.71451017,425871,30.56795902,423839,2.88E-04,4,128,12.12249185,168084,18636.71875,20864,128
30.72143384,425967,30.57365663,423918,0.009159447,127,128,12.11715485,168010,18656.25,21504,128
30.72143384,425967,30.61065502,424431,0.011323096,157,128,12.19699349,169117,18675.78125,22144,128
30.64851888,424956,30.62637754,424649,0.161552448,2240,128,12.27055756,170137,18695.3125,22784,128
30.68688758,425488,30.69611915,425616,0.00223577,31,128,12.4087426,172053,18714.84375,23424,128
30.66719838,425215,30.66186138,425141,0.002307892,32,128,12.42799907,172320,18734.375,24064,128
28.36161415,393247,30.72467932,426012,0.223865536,3104,128,12.34029917,171104,18753.90625,24704,128
30.71789988,425918,30.71789988,425918,0.129818932,1800,128,12.21062448,169306,18773.4375,25344,128
30.71357259,425858,30.70643255,425759,0.131044999,1817,128,12.04633141,167028,18792.96875,25984,128
30.65515407,425048,30.68241604,425426,5.05E-04,7,128,11.99267292,166284,18812.5,26624,128
28.36853783,393343,30.7282854,426062,0.056182749,779,128,12.0052942,166459,18832.03125,27264,128
30.71342834,425856,30.67953118,425386,0.14611842,2026,128,11.95791029,165802,18851.5625,27904,128
28.36074869,393235,30.73326179,426131,0.156792421,2174,128,11.98921108,166236,18871.09375,28544,128
28.35973899,393221,30.72302052,425989,0.020121934,279,128,11.98654258,166199,18890.625,29184,128
28.39450161,393703,30.75778315,426471,0.072987088,1012,128,12.01409304,166581,18910.15625,29824,128
28.37560575,393441,30.77350566,426689,0.069236764,960,128,12.02469492,166728,18929.6875,30464,128
28.37322573,393408,30.75720617,426463,0.013775231,191,128,11.996279,166334,18949.21875,31104,128
28.36002748,393225,30.79716155,427017,0.073564061,1020,128,12.00514996,166457,18968.75,31744,128
28.39277069,393679,30.75605223,426447,0.017597677,244,128,11.97947466,166101,18988.28125,32384,128
28.42500906,394126,30.79160819,426940,0.002019406,28,128,11.97947466,166101,19007.8125,33024,128
28.39753072,393745,30.76081225,426513,0.001081824,15,128,11.99050927,166254,19027.34375,33664,128
28.36002748,393225,30.72792479,426057,0.147632974,2047,128,11.9615885,165853,19046.875,34304,128
28.37784152,393472,30.74984977,426361,0,0,128,11.96743035,165934,19066.40625,34944,128
28.36046021,393231,30.72597751,426030,0.144099014,1998,128,11.94305324,165596,19085.9375,35584,128
30.71566411,425887,30.71508714,425879,0.147128123,2040,128,11.96194911,165858,19105.46875,36224,128
30.72251567,425982,30.71313986,425852,0.018679502,259,128,11.98308074,166151,19125,36864,128
28.36392204,393279,30.73614666,426171,0.149940866,2079,128,11.99317777,166291,19144.53125,37504,128
30.68573364,425472,30.6572456,425077,0.134939567,1871,128,11.95250117,165727,19164.0625,38144,128
30.65104314,424991,30.6602747,425119,0.136598365,1894,128,11.9512751,165710,19183.59375,38784,128
30.7186211,425928,30.64476855,424904,0.143089311,1984,128,11.96021819,165834,19203.125,39424,128
30.66633292,425203,30.66171714,425139,0.143594163,1991,128,11.9599297,165830,19222.65625,40064,128
30.71458229,425872,30.63402243,424755,0.138112919,1915,128,11.95221269,165723,19242.1875,40704,128
30.71285137,425848,30.64289339,424878,0.119938269,1663,128,11.95524179,165765,19261.71875,41344,128
30.64700432,424935,30.64743705,424941,0.018246772,253,128,11.98120558,166125,19281.25,41984,128
30.70470163,425735,30.60733743,424385,0,0,128,11.95488119,165760,19339.84375,43904,128
30.57920999,423995,30.60777016,424391,0.002019406,28,128,11.92913376,165403,19359.375,44544,128
30.71357259,425858,30.57603664,423951,0.138185041,1916,128,11.90800213,165110,19378.90625,45184,128
30.70657679,425761,30.59817798,424258,0.01817465,252,128,11.91369974,165189,19398.4375,45824,128
30.53752369,423417,30.51833934,423151,0.119649782,1659,128,12.00731361,166487,19417.96875,46464,128
30.58851368,424124,30.92914414,428847,0.12931408,1793,128,12.17889096,168866,19437.5,47104,128
28.8082634,399440,30.87014864,428029,0.016732218,232,128,11.88463472,164786,19457.03125,47744,128
30.26555303,419646,30.30529205,420197,1.845159751,25584,128,11.33658246,157187,19476.5625,48384,128
30.37178819,421119,30.50744897,423000,1.993874549,27646,128,11.65600916,161616,19496.09375,49024,128
30.69265731,425568,30.56716568,423828,0,0,128,11.92531132,165350,19515.625,49664,128
30.68796941,425503,30.5415625,423473,0.129097716,1790,128,11.93129741,165433,19535.15625,50304,128
30.46359902,422392,30.60012527,424285,0.149508136,2073,128,12.00096691,166399,19554.6875,50944,128
30.71782776,425917,30.55778987,423698,5.05E-04,7,128,11.96533882,165905,19574.21875,51584,128
30.57012267,423869,30.54834194,423567,0.010313393,143,128,11.99231231,166279,19593.75,52224,128
30.48256701,422655,30.61051078,424429,0.167899152,2328,128,12.07142974,167376,19613.28125,52864,128
30.7116253,425831,30.59017248,424147,0.144171136,1999,128,12.10669721,167865,19632.8125,53504,128
30.70592769,425752,30.70246586,425704,0.003678203,51,128,12.26464358,170055,19652.34375,54144,128
28.35966687,393220,30.75756678,426468,0.147705096,2048,128,12.33719794,171061,19671.875,54784,128
28.37769727,393470,30.7426376,426261,0.066712507,925,128,12.34404949,171156,19691.40625,55424,128
28.37870698,393484,30.74177214,426249,0.069308885,961,128,12.25101259,169866,19710.9375,56064,128
28.3681051,393337,30.71306774,425851,0.014929177,207,128,12.04344655,166988,19730.46875,56704,128
30.70657679,425761,30.67505964,425324,0.00353396,49,128,11.9769504,166066,19750,57344,128
30.68342575,425440,30.68695971,425489,0.131261364,1820,128,11.93367743,165466,19769.53125,57984,128
30.7052786,425743,30.69244095,425565,0.110923065,1538,128,11.89112567,164876,19789.0625,58624,128
30.70434102,425730,30.69885977,425654,0.066784628,926,128,11.87244616,164617,19808.59375,59264,128
30.68450757,425455,30.67116507,425270,0.001009703,14,128,11.85001634,164306,19828.125,59904,128
28.36161415,393247,30.71919807,425936,0.128664986,1784,128,11.88571654,164801,19847.65625,60544,128
28.36370568,393276,30.74408004,426281,0.140132325,1943,128,11.89278446,164899,19867.1875,61184,128
28.36161415,393247,30.72951147,426079,0.124626175,1728,128,11.88319229,164766,19886.71875,61824,128
28.3594505,393217,30.76254317,426537,0.091089617,1263,128,11.90482878,165066,19906.25,62464,128
28.36860995,393344,30.76211044,426531,0.132920162,1843,128,11.88153349,164743,19925.78125,63104,128
28.36370568,393276,30.74480125,426291,0.036637787,508,128,11.86242126,164478,19945.3125,63744,128
28.40315621,393823,30.74508974,426295,0.07262648,1007,128,11.85593031,164388,19964.84375,64384,128
28.39522283,393713,30.73109814,426101,0.074790129,1037,128,11.85528122,164379,19984.375,65024,128
30.71350047,425857,30.66813596,425228,0.001226068,17,128,11.84734784,164269,20003.90625,128,128
30.7062883,425757,30.67368933,425305,0.035700206,495,128,11.83198593,164056,20023.4375,768,128
30.60466893,424348,30.63243575,424733,0.004543663,63,128,11.82484589,163957,20042.96875,1408,128
30.71811625,425921,30.59262462,424181,5.77E-04,8,128,11.83191381,164055,20062.5,2048,128
30.57517118,423939,30.6185884,424541,2.353545112,32633,128,11.83104835,164043,20082.03125,2688,128
30.68580576,425473,30.60401983,424339,2.362632437,32759,128,11.81446037,163813,20101.5625,3328,128
30.44080859,422076,30.58303244,424048,2.335514705,32383,128,11.82304285,163932,20121.09375,3968,128
30.71804413,425920,30.53831703,423428,2.35390572,32638,128,11.78640506,163424,20140.625,4608,128
30.71905383,425934,30.57380087,423920,2.362127586,32752,128,11.82340346,163937,20160.15625,5248,128
30.43186551,421952,30.54581768,423532,0.004543663,63,128,11.817201,163851,20179.6875,5888,128
30.46006506,422343,30.56363172,423779,0.004038811,56,128,11.84201084,164195,20199.21875,6528,128
30.65789469,425086,30.52591211,423256,2.16E-04,3,128,11.817201,163851,20218.75,7168,128
30.71804413,425920,30.54459161,423515,0.004543663,63,128,11.86696492,164541,20238.28125,7808,128
30.70066282,425679,30.5955816,424222,0.017309191,240,128,11.95718908,165792,20257.8125,8448,128
30.68789729,425502,30.55815048,423703,0.080776224,1120,128,11.84374176,164219,20277.34375,9088,128
30.50326592,422942,30.50860292,423016,2.359170599,32711,128,11.80292091,163653,20296.875,9728,128
30.648591,424957,30.49857801,422877,2.32866315,32288,128,11.77991411,163334,20316.40625,10368,128
30.64390309,424892,30.485524,422696,2.363065167,32765,128,11.77010557,163198,20335.9375,11008,128
30.70419678,425728,30.48278338,422658,2.354554815,32647,128,11.7705383,163204,20355.46875,11648,128
30.42703336,421885,30.49771255,422865,0.008510352,118,128,11.95437633,165753,20375,12288,128
28.94991028,401404,31.05420304,430581,0.286106501,3967,128,12.10251416,167807,20394.53125,12928,128
30.14099898,417919,30.13739289,417869,1.124736801,15595,128,11.53080601,159880,20414.0625,13568,128
30.13616683,417852,30.27276519,419746,1.846241575,25599,128,11.26583114,156206,20433.59375,14208,128
30.44520801,422137,30.50341016,422944,2.339986246,32445,128,11.77573106,163276,20453.125,14848,128
30.59132643,424163,30.46013718,422344,2.359603329,32717,128,11.84568904,164246,20472.65625,15488,128
30.69965311,425665,30.52879697,423296,0.004543663,63,128,11.90208815,165028,20492.1875,16128,128
30.64765342,424944,30.45328563,422249,0.083011995,1151,128,11.88550018,164798,20511.71875,16768,128
30.49648648,422848,30.47924942,422609,0.138401406,1919,128,11.93605744,165499,20531.25,17408,128
30.51812297,423148,30.51631993,423123,0.143161433,1985,128,11.96274244,165869,20550.78125,18048,128
30.66712626,425214,30.47701364,422578,0.036782031,510,128,11.9792583,166098,20570.3125,18688,128
30.42724972,421888,30.55800623,423701,0.140853541,1953,128,12.13085796,168200,20589.84375,19328,128
30.64181157,424863,30.59413917,424202,0.147128123,2040,128,12.23204461,169603,20609.375,19968,128
30.68566152,425471,30.62183388,424586,0.039162044,543,128,12.31642691,170773,20628.90625,20608,128
30.64765342,424944,30.56096322,423742,0.008510352,118,128,12.23694888,169671,20648.4375,21248,128
30.72251567,425982,30.5742336,423926,0.035051112,486,128,12.17961218,168876,20667.96875,21888,128
30.42941337,421918,30.48927432,422748,0.073924669,1025,128,12.01870883,166645,20687.5,22528,128
30.42724972,421888,30.46460872,422406,0.145469325,2017,128,11.95985758,165829,20707.03125,23168,128
30.69720098,425631,30.44787651,422174,0.138689892,1923,128,11.9315859,165437,20726.5625,23808,128
30.43179338,421951,30.44888621,422188,0.147560852,2046,128,11.92040705,165282,20746.09375,24448,128
30.42263394,421824,30.41772967,421756,0.074790129,1037,128,11.90540575,165074,20765.625,25088,128
30.45580989,422284,30.4308558,421938,0.119433417,1656,128,11.95141935,165712,20785.15625,25728,128
30.68515667,425464,30.46626752,422429,0.009231568,128,128,11.96382427,165884,20804.6875,26368,128
30.43525522,421999,30.47816759,422594,0.036998396,513,128,12.0182761,166639,20824.21875,27008,128
30.46525782,422415,30.47434514,422541,0.01904011,264,128,11.98784077,166217,20843.75,27648,128
30.43208187,421955,30.45198744,422231,0.001081824,15,128,11.97572434,166049,20863.28125,28288,128
30.42732184,421889,30.45040076,422209,0.028632287,397,128,11.99274504,166285,20882.8125,28928,128
30.6865991,425484,30.44340497,422112,0.008077622,112,128,11.98668682,166201,20902.34375,29568,128
30.49691921,422854,30.4935295,422807,0.036854152,511,128,12.02577675,166743,20921.875,30208,128
30.45689171,422299,30.43424552,421985,7.21E-05,1,128,11.96036243,165836,20941.40625,30848,128
30.42948549,421919,30.41506117,421719,0.009447933,131,128,11.94997692,165692,20960.9375,31488,128
30.42789882,421897,30.45112198,422219,0.008582474,119,128,11.9819268,166135,20980.46875,32128,128
30.64880736,424960,30.41967695,421783,0.147632974,2047,128,11.95069813,165702,21000,32768,128
30.42825942,421902,30.44556861,422142,0.165519138,2295,128,11.97731101,166071,21019.53125,33408,128
30.41974907,421784,30.42313879,421831,0.138473527,1920,128,11.96714186,165930,21039.0625,34048,128
30.42667275,421880,30.4351831,421998,0,0,128,11.96194911,165858,21058.59375,34688,128
30.68746456,425496,30.42926913,421916,0.011755825,163,128,11.96216547,165861,21078.125,35328,128
30.42724972,421888,30.45516079,422275,3.61E-04,5,128,11.98748016,166212,21097.65625,35968,128
30.44571286,422144,30.47001785,422481,0.138473527,1920,128,12.08736862,167597,21117.1875,36608,128
30.42898064,421912,30.50066954,422906,7.21E-05,1,128,12.10215355,167802,21136.71875,37248,128
30.43640917,422015,30.44333284,422111,0.009520055,132,128,11.99440384,166308,21156.25,37888,128
30.42732184,421889,30.4378516,422035,0.129530445,1796,128,11.95964121,165826,21175.78125,38528,128
30.41794603,421759,30.41506117,421719,0.113230957,1570,128,11.92963862,165410,21195.3125,39168,128
30.39032345,421376,30.38181309,421258,0.113014592,1567,128,11.92055129,165284,21214.84375,39808,128
30.72035202,425952,30.39010708,421373,0.144387501,2002,128,11.92127251,165294,21234.375,40448,128
30.44520801,422137,30.77227959,426672,0.017886164,248,128,12.15711023,168564,21253.90625,41088,128
28.43315881,394239,30.61152048,424443,0.109552754,1519,128,11.92430162,165336,21273.4375,41728,128
29.66838594,411366,30.07500769,417004,2.077030787,28799,128,11.63112719,161271,21292.96875,42368,128
29.46738296,408579,30.35007958,420818,1.9917109,27616,128,11.62405927,161173,21312.5,43008,128
30.39039557,421377,30.39919441,421499,0.004543663,63,128,11.89754449,164965,21332.03125,43648,128
30.57517118,423939,30.42876428,421909,0.138689892,1923,128,11.97687828,166065,21351.5625,44288,128
30.72056839,425955,30.4165036,421739,0,0,128,11.98257589,166144,21371.09375,44928,128
30.40878658,421632,30.45580989,422284,0.138762014,1924,128,11.99829841,166362,21390.625,45568,128
30.42732184,421889,30.43525522,421999,0.010962488,152,128,11.98603773,166192,21410.15625,46208,128
30.71753928,425913,30.46770995,422449,0.004255176,59,128,12.03356588,166851,21429.6875,46848,128
30.49648648,422848,30.49944347,422889,0.111283673,1543,128,12.09962929,167767,21449.21875,47488,128
30.6902773,425535,30.51365143,423086,0.019112232,265,128,12.17247214,168777,21468.75,48128,128
30.57380087,423920,30.57682998,423962,0.147560852,2046,128,12.29118434,170423,21488.28125,48768,128
30.68739244,425495,30.57892151,423991,0.01947284,270,128,12.28664068,170360,21507.8125,49408,128
30.46424812,422401,30.56817538,423842,0.111283673,1543,128,12.20096018,169172,21527.34375,50048,128
30.42775457,421895,30.46222871,422373,0.072914967,1011,128,12.0129391,166565,21546.875,50688,128
30.42292242,421828,30.42263394,421824,0.073852548,1024,128,11.87662922,164675,21566.40625,51328,128
30.42833155,421903,30.41145508,421669,0.004038811,56,128,11.80097363,163626,21585.9375,51968,128
30.72258779,425983,30.37265365,421131,2.348280233,32560,128,11.78323171,163380,21605.46875,52608,128
30.40878658,421632,30.36017661,420958,2.326571623,32259,128,11.76548979,163134,21625,53248,128
30.40878658,421632,30.34358863,420728,2.289501105,31745,128,11.76123461,163075,21644.53125,53888,128
30.1324165,417800,30.37698095,421191,2.35123722,32601,128,11.76246068,163092,21664.0625,54528,128
30.37525003,421167,30.37986581,421231,2.327076474,32266,128,11.74558422,162858,21683.59375,55168,128
30.26115361,419585,30.38419311,421291,2.326643744,32260,128,11.73923752,162770,21703.125,55808,128
30.41058962,421657,30.34430985,420738,2.358882112,32707,128,11.72690472,162599,21722.65625,56448,128
30.27485672,419775,30.40280049,421549,2.362704559,32760,128,11.72077438,162514,21742.1875,57088,128
30.3898186,421369,30.36673967,421049,2.32512919,32239,128,11.69812819,162200,21761.71875,57728,128
30.40647869,421600,30.36277298,420994,2.327581325,32273,128,11.71623072,162451,21781.25,58368,128
30.35462324,420881,30.34719471,420778,2.291448389,31772,128,11.64569576,161473,21800.78125,59008,128
30.40878658,421632,30.33767466,420646,2.215432193,30718,128,11.62917991,161244,21820.3125,59648,128
29.51224262,409201,30.32685641,420496,2.211393382,30662,128,11.61655863,161069,21839.84375,60288,128
30.35123352,420834,30.34005467,420679,2.214638855,30707,128,11.61151011,160999,21859.375,60928,128
30.24261835,419328,30.3698409,421092,2.326355258,32256,128,11.61497195,161047,21878.90625,61568,128
30.4265285,421878,30.3441656,420736,2.141435402,29692,128,11.59492214,160769,21898.4375,62208,128
30.13616683,417852,30.34308378,420721,2.187953852,30337,128,11.60473068,160905,21917.96875,62848,128
30.42371576,421839,30.35368566,420868,2.289428984,31744,128,11.5807863,160573,21937.5,63488,128
30.30803267,420235,30.34488682,420746,2.214710976,30708,128,11.61706348,161076,21957.03125,64128,128
30.26050452,419576,30.32476489,420467,2.176198027,30174,128,11.59470577,160766,21976.5625,64768,128
30.16667428,418275,30.37928884,421223,2.206344868,30592,128,11.66019221,161674,21996.09375,65408,128
30.2794725,419839,30.35866205,420937,2.215576436,30720,128,11.71428343,162424,22015.625,512,128
30.66719838,425215,30.41859513,421768,2.233967451,30975,128,11.67461654,161874,22035.15625,1152,128
30.30723933,420224,30.29858474,420104,2.103643668,29168,128,11.58331055,160608,22054.6875,1792,128
30.16905429,418308,30.34791593,420788,2.13429536,29593,128,11.57429535,160483,22074.21875,2432,128
29.50805956,409143,30.32029335,420405,2.107177628,29217,128,11.56491954,160353,22093.75,3072,128
30.20561996,418815,30.30038778,420129,2.077968368,28812,128,11.5507837,160157,22113.28125,3712,128
30.26562515,419647,30.24680141,419386,2.250194818,31200,128,11.70187851,162252,22132.8125,4352,128
28.36024384,393228,30.88291417,428206,0.073924669,1025,128,11.76924011,163186,22152.34375,4992,128
28.66870805,397505,29.97497499,415617,1.034152035,14339,128,11.27196148,156291,22171.875,5632,128
28.94962179,401400,30.20951452,418869,1.223182824,16960,128,11.14769592,154568,22191.40625,6272,128
30.24370018,419343,30.29274288,420023,1.78977034,24816,128,11.4747675,159103,22210.9375,6912,128
30.18953683,418592,30.34221832,420709,2.22019222,30784,128,11.56282801,160324,22230.46875,7552,128
30.13205589,417795,30.36154692,420977,2.216009166,30726,128,11.60574038,160919,22250,8192,128
30.33709768,420638,30.33637647,420628,2.223654058,30832,128,11.58460874,160626,22269.53125,8832,128
30.16061606,418191,30.34077589,420689,2.121024981,29409,128,11.59059484,160709,22289.0625,9472,128
30.13732077,417868,30.30464295,420188,2.298372066,31868,128,11.6037931,160892,22308.59375,10112,128
30.20331206,418783,30.39335256,421418,2.362704559,32760,128,11.69755121,162192,22328.125,10752,128
30.65032192,424981,30.39804046,421483,2.358377261,32700,128,11.74854121,162899,22347.65625,11392,128
30.6095732,424416,30.45977658,422339,0.001153946,16,128,11.85477637,164372,22367.1875,12032,128
30.46410387,422399,30.46403175,422398,0.108398808,1503,128,11.91333913,165184,22386.71875,12672,128
30.57719059,423967,30.44528013,422138,0.073852548,1024,128,11.89487599,164928,22406.25,13312,128
30.43640917,422015,30.4298461,421924,2.330466191,32313,128,11.74327633,162826,22425.78125,13952,128
30.31192724,420289,30.3501517,420819,2.069097408,28689,128,11.57299716,160465,22445.3125,14592,128
30.14554264,417982,30.33767466,420646,1.920094123,26623,128,11.47087294,159049,22464.84375,15232,128
30.29786352,420094,30.31459574,420326,1.920166245,26624,128,11.42947512,158475,22484.375,15872,128
29.53409547,409504,30.31026844,420266,1.809892274,25095,128,11.41714232,158304,22503.90625,16512,128
29.50510258,409102,30.30702297,420221,1.816311099,25184,128,11.3903852,157933,22523.4375,17152,128
30.13414742,417824,30.32361094,420451,1.781620596,24703,128,11.38966398,157923,22542.96875,17792,128
30.15023054,418047,30.30687872,420219,1.788760637,24802,128,11.38685124,157884,22562.5,18432,128
30.13998927,417905,30.34077589,420689,1.790924286,24832,128,11.39298158,157969,22582.03125,19072,128
29.54094702,409599,30.31553332,420339,1.772749635,24580,128,11.36629657,157599,22601.5625,19712,128
29.40240138,407678,30.28834346,419962,1.901703108,26368,128,11.35973351,157508,22621.09375,20352,128
29.50171286,409055,30.32216851,420431,1.906174649,26430,128,11.3567044,157466,22640.625,20992,128
29.53517729,409519,30.31062905,420271,1.884177552,26125,128,11.33961157,157229,22660.15625,21632,128
29.52255601,409344,30.35346929,420865,1.88497089,26136,128,11.33759217,157201,22679.6875,22272,128
30.24456564,419355,30.30529205,420197,1.88497089,26136,128,11.31884054,156941,22699.21875,22912,128
30.17439129,418382,30.32310609,420444,1.838091831,25486,128,11.2946798,156606,22718.75,23552,128
29.39554982,407583,30.32793824,420511,1.846241575,25599,128,11.293021,156583,22738.28125,24192,128
29.53871125,409568,30.34979109,420814,1.883312092,26113,128,11.29994467,156679,22757.8125,24832,128
29.50228983,409063,30.29620472,420071,1.786308502,24768,128,11.23705461,155807,22777.34375,25472,128
29.46767145,408583,30.35541658,420892,1.894202458,26264,128,11.31040231,156824,22796.875,26112,128
30.18701258,418557,30.333131,420583,1.795251583,24892,128,11.23186186,155735,22816.40625,26752,128
29.52572936,409388,30.33753041,420644,1.775995109,24625,128,11.25573412,156066,22835.9375,27392,128
30.13205589,417795,30.35592143,420899,1.83939002,25504,128,11.29251615,156576,22855.46875,28032,128
29.39439588,407567,30.40893083,421634,1.920094123,26623,128,11.3924046,157961,22875,28672,128
29.53229243,409479,30.38311128,421276,1.790852164,24831,128,11.28076032,156413,22894.53125,29312,128
30.13991715,417904,30.33334736,420586,1.295088088,17957,128,11.2256594,155649,22914.0625,29952,128
30.13234438,417799,30.31675939,420356,1.320042171,18303,128,11.17906883,155003,22933.59375,30592,128
29.53524942,409520,30.2971423,420084,1.292275344,17918,128,11.17380395,154930,22953.125,31232,128
29.4281488,408035,30.34459833,420742,1.328191916,18416,128,11.20402291,155349,22972.65625,31872,128
30.24269047,419329,30.24499837,419361,1.773326608,24588,128,11.30376712,156732,22992.1875,32512,128
28.44707828,394432,30.89120816,428321,2.317628541,32135,128,11.35814683,157486,23011.71875,33152,128
28.70195612,397966,29.9570167,415368,0.350727481,4863,128,10.98506164,152313,23031.25,33792,128
28.58266694,396312,30.20713451,418836,1.18625655,16448,128,10.77446649,149393,23050.78125,34432,128
29.4024735,407679,30.29750291,420089,1.334178011,18499,128,11.12014545,154186,23070.3125,35072,128
29.46521931,408549,30.36277298,420994,1.320330658,18307,128,11.25681594,156081,23089.84375,35712,128
29.5248639,409376,30.31942789,420393,1.795395827,24894,128,11.24780074,155956,23109.375,36352,128
30.28300646,419888,30.32339458,420448,1.828932384,25359,128,11.2693651,156255,23128.90625,36992,128
29.53979308,409583,30.35217111,420847,1.915622582,26561,128,11.31393627,156873,23148.4375,37632,128
30.21369758,418927,30.36803786,421067,1.880932078,26080,128,11.325043,157027,23167.96875,38272,128
29.5335185,409496,30.4218406,421813,1.800660706,24967,128,11.43005209,158483,23187.5,38912,128
30.57949848,423999,30.43143278,421946,1.915838947,26564,128,11.49936098,159444,23207.03125,39552,128
30.42948549,421919,30.48768765,422726,2.21175399,30667,128,11.64533516,161468,23226.5625,40192,128
30.66005834,425116,30.51235324,423068,2.349506301,32577,128,11.69257482,162123,23246.09375,40832,128
30.71804413,425920,30.50211197,422926,2.326932231,32264,128,11.63617571,161341,23265.625,41472,128
30.59226401,424176,30.44455891,422128,1.917858352,26592,128,11.51667017,159684,23285.15625,42112,128
30.20792785,418847,30.38491432,421301,1.845953089,25595,128,11.37062387,157659,23304.6875,42752,128
29.5088529,409154,30.33370797,420591,1.846097332,25597,128,11.26381174,156178,23324.21875,43392,128
30.1687658,418304,30.31711999,420361,1.809315301,25087,128,11.26229718,156157,23343.75,44032,128
29.54073066,409596,30.31228784,420294,1.779384825,24672,128,11.24729589,155949,23363.28125,44672,128
29.41170507,407807,30.35260384,420853,1.809603788,25091,128,11.27333179,156310,23382.8125,45312,128
29.50293893,409072,30.35483961,420884,1.845376115,25587,128,11.27946213,156395,23402.34375,45952,128
30.13183953,417792,30.34488682,420746,1.836144547,25459,128,11.28955916,156535,23421.875,46592,128
30.13183953,417792,30.36378269,421008,1.841770034,25537,128,11.29489616,156609,23441.40625,47232,128
30.19646051,418688,30.34510319,420749,1.900693405,26354,128,11.31256596,156854,23460.9375,47872,128
30.21016362,418878,30.36133055,420974,1.883456335,26115,128,11.31609992,156903,23480.46875,48512,128
29.54094702,409599,30.32599095,420484,1.848621589,25632,128,11.29482404,156608,23500,49152,128
29.53402335,409503,30.3848422,421300,1.883167849,26111,128,11.33138971,157115,23519.53125,49792,128
30.20792785,418847,30.34791593,420788,1.91951715,26615,128,11.30513743,156751,23539.0625,50432,128
30.20583632,418818,30.35354142,420866,1.846530062,25603,128,11.29958407,156674,23558.59375,51072,128
29.46363264,408527,30.35873417,420938,1.855256779,25724,128,11.31660477,156910,23578.125,51712,128
29.53315789,409491,30.34553592,420755,1.855473144,25727,128,11.30672411,156773,23597.65625,52352,128
29.53878338,409569,30.38361614,421283,1.910934676,26496,128,11.32785575,157066,23617.1875,52992,128
29.4281488,408035,30.34668986,420771,1.885475741,26143,128,11.30311803,156723,23636.71875,53632,128
29.54073066,409596,30.35310869,420860,1.827922681,25345,128,11.28811673,156515,23656.25,54272,128
29.54008157,409587,30.3614748,420976,1.91908442,26609,128,11.35331468,157419,23675.78125,54912,128
30.42609577,421872,30.38960223,421366,1.843933683,25567,128,11.44426005,158680,23695.3125,55552,128
30.43179338,421951,30.44982379,422201,1.920166245,26624,128,11.39074581,157938,23714.84375,56192,128
30.21326485,418921,30.36096994,420969,1.863045915,25832,128,11.31617204,156904,23734.375,56832,128
29.46154111,408498,30.34777169,420786,1.82785056,25344,128,11.28155366,156424,23753.90625,57472,128
30.26562515,419647,30.36053721,420963,1.800083733,24959,128,11.2897034,156537,23773.4375,58112,128
29.50438136,409092,30.35830144,420932,1.844438534,25574,128,11.28833309,156518,23792.96875,58752,128
29.53272516,409485,30.2667791,419663,1.881509052,26088,128,11.42183023,158369,23812.5,59392,128
28.37596636,393446,30.8459879,427694,2.139560239,29666,128,11.59355183,160750,23832.03125,60032,128
30.13638319,417855,30.00396788,416019,0.886230574,12288,128,11.14127709,154479,23851.5625,60672,128
28.94796299,401377,30.12599768,417711,1.32263855,18339,128,10.77576468,149411,23871.09375,61312,128
29.53892762,409571,30.35866205,420937,1.404352356,19472,128,11.26186445,156151,23890.625,61952,128
29.48440367,408815,30.36363844,421006,1.773470852,24590,128,11.3673784,157614,23910.15625,62592,128
30.22264066,419051,30.36803786,421067,1.775490257,24618,128,11.3717057,157674,23929.6875,63232,128
30.20540359,418812,30.3528202,420856,1.78537092,24755,128,11.40488164,158134,23949.21875,63872,128
29.53863913,409567,30.37373547,421146,1.790996407,24833,128,11.39557795,158005,23968.75,64512,128
30.42544668,421863,30.38779919,421341,1.906030405,26428,128,11.4597662,158895,23988.28125,65152,128
29.24907079,405552,30.43994313,422064,2.216297652,30730,128,11.54018182,160010,24007.8125,256,128
30.5929131,424185,30.48855311,422738,2.126506224,29485,128,11.6267999,161211,24027.34375,896,128
30.46056991,422350,30.48826462,422734,2.363137288,32766,128,11.73029443,162646,24046.875,1536,128
30.52764303,423280,30.52648908,423264,2.34813599,32558,128,11.78236625,163368,24066.40625,2176,128
30.68732031,425494,30.544231,423510,2.36320941,32767,128,11.81150339,163772,24085.9375,2816,128
30.5005253,422904,30.49093312,422771,2.210383679,30648,128,11.66350981,161720,24105.46875,3456,128
30.46237295,422375,30.44253951,422100,2.072487125,28736,128,11.4957549,159394,24125,4096,128
29.48086971,408766,30.36594634,421038,1.789626096,24814,128,11.39002459,157928,24144.53125,4736,128
30.13890745,417890,30.35664265,420909,1.901703108,26368,128,11.34155885,157256,24164.0625,5376,128
30.2774531,419811,30.3951556,421443,1.790924286,24832,128,11.36009411,157513,24183.59375,6016,128
30.16847732,418300,30.34322802,420723,1.901703108,26368,128,11.34119825,157251,24203.125,6656,128
29.46731084,408578,30.35354142,420866,1.901703108,26368,128,11.32691816,157053,24222.65625,7296,128
29.42987972,408059,30.35296444,420858,1.906535257,26435,128,11.35966138,157507,24242.1875,7936,128
29.54094702,409599,30.33688132,420635,1.898241269,26320,128,11.35180013,157398,24261.71875,8576,128
30.14078261,417916,30.29743079,420088,1.883456335,26115,128,11.30657986,156771,24281.25,9216,128
29.48469215,408819,30.36197965,420983,1.919589271,26616,128,11.34141461,157254,24300.78125,9856,128
29.394468,407568,30.34762744,420784,1.788327907,24796,128,11.33348123,157144,24320.3125,10496,128
30.28329495,419892,30.31892303,420386,1.850857359,25663,128,11.30081013,156691,24339.84375,11136,128
29.46824842,408591,30.30457083,420187,1.883744822,26119,128,11.31263808,156855,24359.375,11776,128
30.13183953,417792,30.31711999,420361,1.807151652,25057,128,11.29489616,156609,24378.90625,12416,128
30.27976099,419843,30.31986062,420399,1.883312092,26113,128,11.30888776,156803,24398.4375,13056,128
30.21023574,418879,30.35765235,420923,1.901703108,26368,128,11.29943982,156672,24417.96875,13696,128
29.53301365,409489,30.33630435,420627,1.832322101,25406,128,11.28977553,156538,24437.5,14336,128
29.39605467,407590,30.29209379,420014,1.80527649,25031,128,11.25840262,156103,24457.03125,14976,128
29.42930274,408051,30.31430725,420322,1.901703108,26368,128,11.28458277,156466,24476.5625,15616,128
29.47409028,408672,30.30500356,420193,1.827994803,25346,128,11.28140942,156422,24496.09375,16256,128
30.33839587,420656,30.33854012,420658,1.834846358,25441,128,11.28566459,156481,24515.625,16896,128
30.13183953,417792,30.31877879,420384,1.839101534,25500,128,11.27354816,156313,24535.15625,17536,128
29.41170507,407807,30.31409089,420319,1.790852164,24831,128,11.27708212,156362,24554.6875,18176,128
30.14994206,418043,30.33457343,420603,1.772461149,24576,128,11.39435189,157988,24574.21875,18816,128
29.52342147,409356,30.39328043,421417,1.936754219,26854,128,11.38988035,157926,24593.75,19456,128
30.39140527,421391,30.2641106,419626,1.846313697,25600,128,11.22731819,155672,24613.28125,20096,128
29.53647548,409537,30.27673188,419801,1.311964549,18191,128,11.20791748,155403,24632.8125,20736,128
29.50394863,409086,30.28855983,419965,1.459164793,20232,128,11.19414225,155212,24652.34375,21376,128
29.2697697,405839,30.26793304,419679,1.320186415,18305,128,11.17979004,155013,24671.875,22016,128
29.4071614,407744,30.29454592,420048,1.781909082,24707,128,11.23503521,155779,24691.40625,22656,128
30.64621099,424924,30.64621099,424924,2.349362057,32575,128,11.51169378,159615,24710.9375,23296,128
29.39966075,407640,30.59060521,424153,0.552091068,7655,128,11.18685796,155111,24730.46875,23936,128
29.55847258,409842,30.03620625,416466,1.201113606,16654,128,10.65885552,147790,24750,24576,128
29.08867229,403328,30.24269047,419329,1.18402078,16417,128,10.93284558,151589,24769.53125,25216,128
30.20461025,418801,30.28783861,419955,1.347664755,18686,128,11.20806172,155405,24789.0625,25856,128
29.41163294,407806,30.29065136,419994,1.790780043,24830,128,11.23813644,155822,24808.59375,26496,128
29.53770155,409554,30.32700066,420498,1.779456947,24673,128,11.28840521,156519,24828.125,27136,128
30.16667428,418275,30.30976359,420259,1.808233477,25072,128,11.26143173,156145,24847.65625,27776,128
29.5408749,409598,30.32671217,420494,1.845159751,25584,128,11.27556756,156341,24867.1875,28416,128
30.15477421,418110,30.30594114,420206,1.904227365,26403,128,11.32042722,156963,24886.71875,29056,128
29.5398652,409584,30.391838,421397,1.956948275,27134,128,11.40935319,158196,24906.25,29696,128
30.64945646,424969,30.3898186,421369,2.06563557,28641,128,11.5164538,159681,24925.78125,30336,128
29.46687811,408572,30.47311908,422524,2.361262126,32740,128,11.6164865,161068,24945.3125,30976,128
30.44463103,422129,30.48033124,422624,2.326427379,32257,128,11.64771517,161501,24964.84375,31616,128
30.58887429,424129,30.43770736,422033,1.915622582,26561,128,11.51760775,159697,24984.375,32256,128
29.53972096,409582,30.36825423,421070,1.905741919,26424,128,11.35908441,157499,25003.90625,32896,128
30.13227226,417798,30.30175809,420148,1.310738481,18174,128,11.20625868,155380,25023.4375,33536,128
29.27416912,405900,30.26194695,419596,1.236885934,17150,128,11.13312735,154366,25042.96875,34176,128
29.54094702,409599,30.27622703,419794,1.336125295,18526,128,11.14884986,154584,25062.5,34816,128
30.27889553,419831,30.26966396,419703,1.243953853,17248,128,11.14048375,154468,25082.03125,35456,128
30.14092685,417918,30.27586642,419789,1.329345862,18432,128,11.13276674,154361,25101.5625,36096,128
29.53222031,409478,30.27074579,419718,1.330283443,18445,128,11.13420917,154381,25121.09375,36736,128
29.24618593,405512,30.24687353,419387,1.200031781,16639,128,11.11415936,154103,25140.625,37376,128
29.52262813,409345,30.26288453,419609,1.343193214,18624,128,11.12865581,154304,25160.15625,38016,128
29.06112183,402946,30.24391654,419346,1.19952693,16632,128,11.12944914,154315,25179.6875,38656,128
29.39432375,407566,30.29440168,420046,1.334033767,18497,128,11.14921047,154589,25199.21875,39296,128
29.46889752,408600,30.23692074,419249,1.216187026,16863,128,11.10701932,154004,25218.75,39936,128
30.13183953,417792,30.28250161,419881,1.246550232,17284,128,11.12440063,154245,25238.28125,40576,128
29.5121705,409200,30.25992754,419568,1.190583848,16508,128,11.10536052,153981,25257.8125,41216,128
29.54073066,409596,30.24593595,419374,1.218494918,16895,128,11.08877255,153751,25277.34375,41856,128
29.07944072,403200,30.22516492,419086,1.329201618,18430,128,11.07167972,153514,25296.875,42496,128
29.25253263,405600,30.25026324,419434,1.327037969,18400,128,11.07182396,153516,25316.40625,43136,128
29.39735286,407608,30.29295925,420026,1.202339673,16671,128,11.10269202,153944,25335.9375,43776,128
29.24661866,405518,30.2297807,419150,1.320258536,18306,128,11.07167972,153514,25355.46875,44416,128
29.46889752,408600,30.21903458,419001,1.313695468,18215,128,11.06208754,153381,25375,45056,128
30.27824644,419822,30.25516751,419502,1.186761402,16455,128,11.08408464,153686,25394.53125,45696,128
29.09667779,403439,30.25935057,419560,1.253185422,17376,128,11.14769592,154568,25414.0625,46336,128
30.14099898,417919,30.33457343,420603,1.793160056,24863,128,11.24816135,155961,25433.59375,46976,128
30.17330947,418367,30.32361094,420451,1.253185422,17376,128,11.14336862,154508,25453.125,47616,128
29.53575427,409527,30.22696796,419111,1.266888531,17566,128,11.03287828,152976,25472.65625,48256,128
29.02224827,402407,30.24997476,419430,1.324730077,18368,128,11.03316677,152980,25492.1875,48896,128
29.26399997,405759,30.21586123,418957,1.292419588,17920,128,11.00886178,152643,25511.71875,49536,128
29.53640336,409536,30.228771,419136,1.328696767,18423,128,11.03915287,153063,25531.25,50176,128
29.39331405,407552,30.27961675,419841,1.476473984,20472,128,11.18577614,155096,25550.78125,50816,128
28.38757794,393607,30.81533621,427269,2.075804719,28782,128,11.30694047,156776,25570.3125,51456,128
28.3754615,393439,29.90609883,414662,0.332047979,4604,128,10.69441148,148283,25589.84375,52096,128
28.93115865,401144,30.11049153,417496,0.29533807,4095,128,10.57627625,146645,25609.375,52736,128
29.28231886,406013,30.19826355,418713,1.474815187,20449,128,10.90572785,151213,25628.90625,53376,128
29.09783174,403455,30.24550322,419368,1.329994956,18441,128,11.08083917,153641,25648.4375,54016,128
30.13205589,417795,30.29036287,419990,1.356535716,18809,128,11.10117747,153923,25667.96875,54656,128
29.39504497,407576,30.31762485,420368,1.407165099,19511,128,11.15570142,154679,25687.5,55296,128
29.50423712,409090,30.28430465,419906,1.32927374,18431,128,11.16536572,154813,25707.03125,55936,128
29.52457542,409372,30.26519242,419641,1.32927374,18431,128,11.183324,155062,25726.5625,56576,128
29.50690562,409127,30.29670957,420078,1.774624798,24606,128,11.22760668,155676,25746.09375,57216,128
29.5398652,409584,30.35231535,420849,1.772677514,24579,128,11.33997218,157234,25765.625,57856,128
30.4201818,421790,30.42248969,421822,2.021785619,28033,128,11.47794085,159147,25785.15625,58496,128
29.24582532,405507,30.42977398,421923,1.910718311,26493,128,11.51154953,159613,25804.6875,59136,128
30.4261679,421873,30.42645638,421877,1.920022001,26622,128,11.49416822,159372,25824.21875,59776,128
29.5131802,409214,30.36060934,420964,1.883528457,26116,128,11.33961157,157229,25843.75,60416,128
30.16862156,418302,30.30060414,420132,1.290400182,17892,128,11.17279424,154916,25863.28125,61056,128
29.24106529,405441,30.2998108,420121,1.186184428,16447,128,11.09966291,153902,25882.8125,61696,128
29.20868268,404992,30.28026584,419850,1.186040185,16445,128,11.0822816,153661,25902.34375,62336,128
30.27831856,419823,30.25725904,419531,1.292635953,17923,128,11.05610145,153298,25921.875,62976,128
29.07972921,403204,30.27218822,419738,1.299343264,18016,128,11.06230391,153384,25960.9375,64256,128
29.39237647,407539,30.21780851,418984,1.320258536,18306,128,11.02595461,152880,25980.46875,64896,128
29.31765846,406503,30.28394404,419901,1.328768889,18424,128,11.07124699,153508,26000,0,128
29.39973288,407641,30.25718692,419530,1.320042171,18303,128,11.03597951,153019,26019.53125,640,128
29.52248389,409343,30.27182761,419733,1.319609442,18297,128,11.0559572,153296,26039.0625,1280,128
29.4671666,408576,30.2614421,419589,1.328191916,18416,128,11.05696691,153310,26058.59375,1920,128
29.39511709,407577,30.2741355,419765,1.301651156,18048,128,11.02775765,152905,26078.125,2560,128
29.50402075,409087,30.2421135,419321,1.303886927,18079,128,11.01434303,152719,26097.65625,3200,128
29.2964547,406209,30.24081531,419303,1.299343264,18016,128,10.99162471,152404,26117.1875,3840,128
29.3841546,407425,30.2827901,419885,1.250877529,17344,128,11.00821269,152634,26136.71875,4480,128
29.4671666,408576,30.23973349,419288,1.262272747,17502,128,10.99746656,152485,26156.25,5120,128
29.48339397,408801,30.24406078,419348,1.211643363,16800,128,10.98022949,152246,26175.78125,5760,128
29.35530595,407025,30.24146441,419312,1.222605851,16952,128,10.95498692,151896,26195.3125,6400,128
29.24892655,405550,30.23670438,419246,1.204719687,16704,128,10.95440995,151888,26214.84375,7040,128
29.26284602,405743,30.24521473,419364,1.181640766,16384,128,10.94676506,151782,26234.375,7680,128
29.38408248,407424,30.28935317,419976,1.183804415,16414,128,10.99075925,152392,26253.90625,8320,128
29.20868268,404992,30.27384702,419761,1.292924439,17927,128,11.08098341,153643,26273.4375,8960,128
29.24459925,405490,30.30536417,420198,1.328119794,18415,128,11.05429841,153273,26292.96875,9600,128
29.17175641,404480,30.23381951,419206,1.188059591,16473,128,10.91806065,151384,26312.5,10240,128
28.95019876,401408,30.20634117,418825,1.32927374,18431,128,10.88171135,150880,26332.03125,10880,128
28.95935821,401535,30.1997781,418734,1.32040278,18308,128,10.862527,150614,26351.5625,11520,128
29.26861575,405823,30.22026065,419018,1.326677361,18395,128,10.88632713,150944,26371.09375,12160,128
29.02217615,402406,30.18023314,418463,1.211571242,16799,128,10.86656581,150670,26390.625,12800,128
29.38869827,407488,30.59716828,424244,1.550615019,21500,128,11.1399789,154461,26410.15625,13440,128
28.50693923,395262,30.50658351,422988,1.196569943,16591,128,10.83526502,150236,26429.6875,14080,128
28.41570537,393997,29.91734981,414818,0.008149744,113,128,10.27971211,142533,26449.21875,14720,128
28.54393763,395775,30.16970338,418317,0.036854152,511,128,10.57584352,146639,26468.75,15360,128
29.07677222,403163,30.21990004,419013,1.232486514,17089,128,10.84846328,150419,26488.28125,16000,128
29.25960055,405698,30.24521473,419364,1.329201618,18430,128,10.89606355,151079,26507.8125,16640,128
29.37492304,407297,30.24269047,419329,1.291265642,17904,128,10.89231323,151027,26527.34375,17280,128
29.37485091,407296,30.26750031,419673,1.321196118,18319,128,10.89591931,151077,26546.875,17920,128
29.05282784,402831,30.26295665,419610,1.320114293,18304,128,10.94813537,151801,26566.40625,18560,128
29.21380332,405063,30.2561051,419515,1.216331269,16865,128,10.96746397,152069,26585.9375,19200,128
29.39670377,407599,30.30666236,420216,1.310882725,18176,128,11.03540254,153011,26605.46875,19840,128
29.39720862,407606,30.35592143,420899,1.252896935,17372,128,11.17156818,154899,26625,20480,128
29.53633124,409535,30.41325812,421694,1.449356252,20096,128,11.26619175,156211,26644.53125,21120,128
29.50813168,409144,30.39212649,421401,1.781548474,24702,128,11.22702971,155668,26664.0625,21760,128
30.13183953,417792,30.38888101,421356,1.773542973,24591,128,11.17243364,154911,26683.59375,22400,128
29.53337425,409494,30.30882601,420246,1.188492321,16479,128,10.99162471,152404,26703.125,23040,128
29.24669078,405519,30.23937288,419283,1.277346167,17711,128,10.82913468,150151,26722.65625,23680,128
29.46731084,408578,30.23381951,419206,1.217990067,16888,128,10.80115149,149763,26742.1875,24320,128
29.25491265,405633,30.22603038,419098,1.328191916,18416,128,10.76422522,149251,26761.71875,24960,128
29.02347434,402424,30.20259085,418773,1.290039574,17887,128,10.76768705,149299,26781.25,25600,128
28.9916687,401983,30.20338419,418784,1.328047672,18414,128,10.75521001,149126,26800.78125,26240,128
28.95128059,401423,30.21146181,418896,1.292852317,17926,128,10.7608355,149204,26820.3125,26880,128
29.24560896,405504,30.16039969,418188,1.329201618,18430,128,10.73371777,148828,26839.84375,27520,128
28.97789347,401792,30.17100157,418335,1.315354266,18238,128,10.7548494,149121,26859.375,28160,128
28.96404612,401600,30.21521213,418948,1.324802199,18369,128,10.76819191,149306,26878.90625,28800,128
28.97796559,401793,30.20951452,418869,1.32927374,18431,128,10.7394875,148908,26898.4375,29440,128
29.26428846,405763,30.2057642,418817,1.306555427,18116,128,10.73833355,148892,26917.96875,30080,128
29.24560896,405504,30.17806949,418433,1.254339368,17392,128,10.71763464,148605,26937.5,30720,128
29.24618593,405512,30.18802228,418571,1.296746885,17980,128,10.73660263,148868,26957.03125,31360,128
29.27828005,405957,30.19552293,418675,1.239049582,17180,128,10.71474978,148565,26976.5625,32000,128
28.95474243,401471,30.14215292,417935,1.186905645,16457,128,10.68417021,148141,26996.09375,32640,128
29.24611381,405511,30.16927065,418311,1.250877529,17344,128,10.69520482,148294,27015.625,33280,128
28.95474243,401471,30.16660215,418274,1.218783405,16899,128,10.66707738,147904,27035.15625,33920,128
29.24568108,405505,30.17958405,418454,1.251959354,17359,128,10.69592603,148304,27054.6875,34560,128
28.98524988,401894,30.13263287,417803,1.199815416,16636,128,10.66073068,147816,27074.21875,35200,128
28.95394909,401460,30.16292395,418223,1.294655358,17951,128,10.67789563,148054,27093.75,35840,128
28.95019876,401408,30.13227226,417798,1.196353578,16588,128,10.66671677,147899,27113.28125,36480,128
29.24733987,405528,30.16717913,418282,1.181640766,16384,128,10.68929084,148212,27132.8125,37120,128
28.95935821,401535,30.15592815,418126,1.181857131,16387,128,10.72499105,148707,27152.34375,37760,128
29.24907079,405552,30.22033277,419019,1.216187026,16863,128,10.82480738,150091,27171.875,38400,128
28.97825408,401797,30.23490134,419221,1.202267552,16670,128,10.7288135,148760,27191.40625,39040,128
28.96058428,401552,30.13458015,417830,1.218422797,16894,128,10.64219542,147559,27210.9375,39680,128
28.95128059,401423,30.10097147,417364,1.186328672,16449,128,10.62668927,147344,27230.46875,40320,128
28.65096613,397259,30.13090195,417779,0.147632974,2047,128,10.6314493,147410,27250,40960,128
28.63610907,397053,30.14092685,417918,0.145469325,2017,128,10.63656993,147481,27269.53125,41600,128
28.88550566,400511,30.08560957,417151,1.338505308,18559,128,10.79148719,149629,27289.0625,42240,128
29.5398652,409584,30.69698461,425628,1.532440368,21248,128,10.81658552,149977,27308.59375,42880,128
28.36803298,393336,29.84450696,413808,1.098989379,15238,128,10.37657146,143876,27328.125,43520,128
28.50484771,395233,30.08121015,417090,0.002163649,30,128,10.26153746,142281,27347.65625,44160,128
28.50585741,395247,30.12650253,417718,0.00223577,31,128,10.56682832,146514,27367.1875,44800,128
28.95027089,401409,30.17929556,418450,1.186184428,16447,128,10.71179279,148524,27386.71875,45440,128
29.02174342,402400,30.19840779,418715,1.185102604,16432,128,10.72946259,148769,27406.25,46080,128
29.02224827,402407,30.202086,418766,1.327182213,18402,128,10.7341505,148834,27425.78125,46720,128
29.02412343,402433,30.19429686,418658,1.328985253,18427,128,10.71987041,148636,27445.3125,47360,128
29.26392785,405758,30.20424964,418796,1.329634348,18436,128,10.78622231,149556,27464.84375,48000,128
28.98690867,401917,30.25004688,419431,1.347232026,18680,128,10.8545215,150503,27484.375,48640,128
29.08975412,403343,30.23432436,419213,1.467819389,20352,128,10.92238795,151444,27503.90625,49280,128
29.47812909,408728,30.34979109,420814,1.21856704,16896,128,11.09223438,153799,27523.4375,49920,128
29.39461224,407570,30.36053721,420963,1.183876536,16415,128,11.13666131,154415,27542.96875,50560,128
29.46738296,408579,30.36219601,420986,1.23717442,17154,128,11.09504713,153838,27562.5,51200,128
29.50632864,409119,30.30904237,420249,1.21856704,16896,128,10.94250988,151723,27582.03125,51840,128
29.30186383,406284,30.24348381,419340,1.185751699,16441,128,10.79869935,149729,27601.5625,52480,128
28.98597109,401904,30.21081271,418887,1.320114293,18304,128,10.7234765,148686,27621.09375,53120,128
28.96469521,401609,30.1971096,418697,1.237679271,17161,128,10.67695805,148041,27640.625,53760,128
28.98589897,401903,30.17273249,418359,1.18272259,16399,128,10.6441427,147586,27660.15625,54400,128
28.95070362,401415,30.14063837,417914,1.204575444,16702,128,10.64594575,147611,27679.6875,55040,128
28.95019876,401408,30.16436638,418243,1.183876536,16415,128,10.65121062,147684,27699.21875,55680,128
28.98683655,401916,30.15794756,418154,1.182650469,16398,128,10.68344899,148131,27718.75,56320,128
29.24669078,405519,30.20973089,418872,1.246189624,17279,128,10.70638367,148449,27738.28125,56960,128
29.02397919,402431,30.20554783,418814,1.292563831,17922,128,10.69873878,148343,27757.8125,57600,128
28.98597109,401904,30.1537645,418096,1.233351974,17101,128,10.6864781,148173,27777.34375,58240,128
28.95221817,401436,30.14828326,418020,1.218422797,16894,128,10.6721259,147974,27796.875,58880,128
29.0413605,402672,30.21867397,418996,1.255421192,17407,128,10.69888302,148345,27816.40625,59520,128
28.98698079,401918,30.19739809,418701,1.183876536,16415,128,10.67284711,147984,27835.9375,60160,128
28.98481715,401888,30.18398347,418515,1.238112001,17167,128,10.66902467,147931,27855.46875,60800,128
28.95185756,401431,30.19285443,418638,1.191954159,16527,128,10.68618961,148169,27875,61440,128
28.95135271,401424,30.12397827,417683,1.182145617,16391,128,10.60880311,147096,27894.53125,62080,128
28.98481715,401888,30.16191425,418209,1.188708685,16482,128,10.66058644,147814,27914.0625,62720,128
29.02859497,402495,30.19357564,418648,1.183876536,16415,128,10.66455313,147869,27933.59375,63360,128
28.96635401,401632,30.20374479,418789,1.213879134,16831,128,10.66664465,147898,27953.125,64000,128
29.26399997,405759,30.20749512,418841,1.320474901,18309,128,10.77569256,149410,27972.65625,64640,128
29.08167649,403231,30.26786092,419678,1.31997005,18302,128,10.73501596,148846,27992.1875,65280,128
28.98243713,401855,30.16804459,418294,0.146983879,2038,128,10.61190434,147139,28011.71875,384,128
28.95041513,401411,30.16580882,418263,1.190800213,16511,128,10.61226494,147144,28031.25,1024,128
28.98654806,401912,30.19415262,418656,0.147632974,2047,128,10.63188203,147416,28050.78125,1664,128
28.96404612,401600,30.18484893,418527,1.181640766,16384,128,10.62524684,147324,28070.3125,2304,128
28.9573388,401507,30.13948442,417898,1.182506225,16396,128,10.65618702,147753,28089.84375,2944,128
29.52161843,409331,30.67909845,425380,1.214095499,16834,128,10.91733943,151374,28109.375,3584,128
28.92481195,401056,30.03274441,416418,1.163393994,16131,128,10.56163556,146442,28128.90625,4224,128
28.4321491,394225,29.94453966,415195,0.146334785,2029,128,10.10207654,140070,28148.4375,4864,128
28.3611093,393240,30.11943461,417620,0.276947054,3840,128,10.43419664,144675,28167.96875,5504,128
28.98272562,401859,30.20864906,418857,1.205873633,16720,128,10.69938787,148352,28187.5,6144,128
29.02405131,402432,30.1971096,418697,1.320042171,18303,128,10.73689112,148872,28207.03125,6784,128
29.02470041,402441,30.20864906,418857,1.32884101,18425,128,10.74504086,148985,28226.5625,7424,128
29.2547684,405631,30.25249901,419465,1.338649552,18561,128,10.79076598,149619,28246.09375,8064,128
29.0890329,403333,30.27125064,419725,1.250877529,17344,128,10.84788631,150411,28265.625,8704,128
29.35660414,407043,30.26086512,419581,1.313046373,18206,128,10.87262402,150754,28285.15625,9344,128
29.40196865,407672,30.29743079,420088,1.199166322,16627,128,10.94539475,151763,28304.6875,9984,128
29.54015369,409588,30.36371057,421007,1.211282755,16795,128,11.10478355,153973,28324.21875,10624,128
29.22938159,405279,30.40647869,421600,1.330571929,18449,128,11.15512444,154671,28343.75,11264,128
29.5398652,409584,30.35693113,420913,1.292347466,17919,128,11.11805393,154157,28363.28125,11904,128
29.47632605,408703,30.37460093,421158,1.330427686,18447,128,11.04196561,153102,28382.8125,12544,128
29.42995184,408060,30.31445149,420324,1.295881426,17968,128,10.89570295,151074,28402.34375,13184,128
29.24957564,405559,30.26786092,419678,1.324657956,18367,128,10.76076338,149203,28421.875,13824,128
28.9616661,401567,30.23562255,419231,1.265229734,17543,128,10.73725173,148877,28441.40625,14464,128
29.38869827,407488,30.21297636,418917,1.301651156,18048,128,10.71518251,148571,28460.9375,15104,128
28.96844554,401661,30.21845761,418993,1.302516616,18060,128,10.71958193,148632,28480.46875,15744,128
28.95524728,401478,30.21081271,418887,1.257945449,17442,128,10.71424493,148558,28500,16384,128
28.96858978,401663,30.24773899,419399,1.319825807,18300,128,10.73487171,148844,28519.53125,17024,128
29.25657144,405656,30.19833567,418714,1.29472748,17952,128,10.71554312,148576,28539.0625,17664,128
28.95027089,401409,30.25329235,419476,1.181640766,16384,128,10.76754281,149297,28558.59375,18304,128
29.26594725,405786,30.26699546,419666,1.328191916,18416,128,10.76747069,149296,28578.125,18944,128
29.03732169,402616,30.25040749,419436,1.324946442,18371,128,10.74208388,148944,28597.65625,19584,128
29.24568108,405505,30.20230236,418769,1.200031781,16639,128,10.69008418,148223,28617.1875,20224,128
28.99159658,401982,30.22408309,419071,1.251382381,17351,128,10.72390923,148692,28636.71875,20864,128
28.95885336,401528,30.23764196,419259,1.311603941,18186,128,10.72578439,148718,28656.25,21504,128
29.02462828,402440,30.20626905,418824,1.250228435,17335,128,10.70335456,148407,28675.78125,22144,128
29.24560896,405504,30.21730366,418977,1.217629459,16883,128,10.68258353,148119,28695.3125,22784,128
29.06155456,402952,30.20872119,418858,1.218422797,16894,128,10.69477209,148288,28714.84375,23424,128
28.98625958,401908,30.22228005,419046,1.204647565,16703,128,10.69231995,148254,28734.375,24064,128
28.98705292,401919,30.20554783,418814,1.216259148,16864,128,10.70638367,148449,28753.90625,24704,128
29.24625805,405513,30.26656273,419660,1.234578041,17118,128,10.73811719,148889,28773.4375,25344,128
29.35660414,407043,30.2084327,418854,1.182145617,16391,128,10.78066895,149479,28792.96875,25984,128
29.31196085,406424,30.30940298,420254,1.213951256,16832,128,10.8318753,150189,28812.5,26624,128
28.95935821,401535,30.21427455,418935,1.227077392,17014,128,10.69087752,148234,28832.03125,27264,128
29.31498996,406466,30.18362286,418510,1.190583848,16508,128,10.65121062,147684,28851.5625,27904,128
29.01532459,402311,30.16761186,418288,1.245107799,17264,128,10.63894995,147514,28871.09375,28544,128
29.00616515,402184,30.18795016,418570,1.186112307,16446,128,10.63851722,147508,28890.625,29184,128
29.02664769,402468,30.1977587,418706,1.21503308,16847,128,10.69989272,148359,28910.15625,29824,128
29.50416499,409089,30.32361094,420451,1.218494918,16895,128,10.85567544,150519,28929.6875,30464,128
28.36392204,393279,30.28726164,419947,1.218639161,16897,128,10.57288654,146598,28949.21875,31104,128
28.42861514,394176,29.89823757,414553,0.001153946,16,128,10.21141293,141586,28968.75,31744,128
28.50239557,395199,30.12599768,417711,0.149940866,2079,128,10.23470822,141909,28988.28125,32384,128
29.07489706,403137,30.20807209,418849,0.145613568,2019,128,10.63995965,147528,29007.8125,33024,128
29.06097759,402944,30.2224243,419048,1.19599297,16583,128,10.68763205,148189,29027.34375,33664,128
29.33785252,406783,30.23252132,419188,1.264652761,17535,128,10.7281644,148751,29046.875,34304,128
29.06097759,402944,30.24406078,419348,1.293501412,17935,128,10.75109908,149069,29066.40625,34944,128
29.3558108,407032,30.23749772,419257,1.292635953,17923,128,10.7485027,149033,29085.9375,35584,128
29.31938938,406527,30.25257114,419466,1.181640766,16384,128,10.78910718,149596,29105.46875,36224,128
29.26291815,405744,30.2907956,419996,1.331581632,18463,128,10.90053509,151141,29125,36864,128
29.1030245,403527,30.27738098,419810,1.301579035,18047,128,10.94186079,151714,29144.53125,37504,128
29.46255081,408512,30.33118371,420556,1.312036671,18192,128,11.04210985,153104,29164.0625,38144,128
29.53892762,409571,30.33695344,420636,1.183371685,16408,128,11.08747436,153733,29183.59375,38784,128
29.45072287,408348,30.33644859,420629,1.292347466,17919,128,11.02472854,152863,29203.125,39424,128
29.48382669,408807,30.24225774,419323,1.287731682,17855,128,10.78643868,149559,29222.65625,40064,128
29.4301682,408063,30.30204657,420152,1.300641453,18034,128,10.71684131,148594,29242.1875,40704,128
29.28051582,405988,30.27716461,419807,1.181857131,16387,128,10.61680861,147207,29261.71875,41344,128
29.40261774,407681,30.28884832,419969,0.272836122,3783,128,10.61219282,147143,29281.25,41984,128
28.95474243,401471,30.28740588,419949,0.14301719,1983,128,10.59257574,146871,29300.78125,42624,128
28.95510303,401476,30.33435706,420600,0.146046298,2025,128,10.61673649,147206,29320.3125,43264,128
29.46709448,408575,30.34755532,420783,0.147128123,2040,128,10.60649521,147064,29339.84375,43904,128
29.5398652,409584,30.35007958,420818,0.130323783,1807,128,10.61255343,147148,29359.375,44544,128
29.50128013,409049,30.38693373,421329,0.286178623,3968,128,10.62899716,147376,29378.90625,45184,128
29.180411,404600,30.38902526,421358,0.294328367,4081,128,10.61695285,147209,29398.4375,45824,128
29.48555761,408831,30.38837616,421349,0.147344488,2043,128,10.62171288,147275,29417.96875,46464,128
29.17348733,404504,30.41787391,421758,0.147416609,2044,128,10.61291404,147153,29437.5,47104,128
29.50863654,409151,30.40402656,421566,0.129169837,1791,128,10.61038978,147118,29457.03125,47744,128
29.22829976,405264,30.37532215,421168,0.099383604,1378,128,10.58673389,146790,29476.5625,48384,128
29.24373379,405478,30.38433735,421293,0.136382,1891,128,10.57851202,146676,29496.09375,49024,128
29.2184191,405127,30.40236776,421543,0.138978379,1927,128,10.60159094,146996,29515.625,49664,128
29.24120954,405443,30.36356632,421005,0.066784628,926,128,10.55456764,146344,29535.15625,50304,128
29.52479178,409375,30.41729694,421750,0.129818932,1800,128,10.58233447,146729,29554.6875,50944,128
29.44870346,408320,30.34906988,420804,0.004255176,59,128,10.579089,146684,29574.21875,51584,128
29.24330106,405472,30.30493144,420192,0.072049507,999,128,10.54757184,146247,29593.75,52224,128
28.95027089,401409,30.31827394,420377,0.12707831,1762,128,10.57779081,146666,29613.28125,52864,128
28.97371041,401734,30.27319792,419752,0.090512644,1255,128,10.59041209,146841,29632.8125,53504,128
