Device,Device,Device,Device,Device,Device,Device,Device,Device,Device,Device,Device
ECG Vx-RL,ECG Vx-RL,ECG LA-RA,ECG LA-RA,ExG2 CH1,ExG2 CH1,EXG1 Status,ECG LL-RA,ECG LL-RA,Timestamp,Timestamp,EXG2 Status
CAL,RAW,CAL,RAW,CAL,RAW,RAW,RAW,CAL,CAL,RAW,RAW
mV,No Units,mV,No Units,mV,No Units,No Units,No Units,mV,mSecs,No Units,No Units
-0.110850943,-1537,-4.429638318,-61419,0.572285124,7935,128,-285780,-20.61091907,4058.59375,1920,128
-4.7086769,-65288,-4.410165478,-61149,1.033863549,14335,128,-284139,-20.49256748,4078.125,2560,128
-4.138122694,-57377,-4.132352964,-57297,0.00223577,31,128,-281491,-20.30158941,4097.65625,3200,128
-3.563962408,-49416,-3.189506911,-44224,1.182866834,16401,128,-275657,-19.88083182,4117.1875,3840,128
-4.135886924,-57346,-4.319436469,-59891,1.033863549,14335,128,-281696,-20.31637434,4136.71875,4480,128
-2.271326455,-31493,-4.378720448,-60713,0.948543662,13152,128,-281531,-20.30447427,4156.25,5120,128
-2.362055464,-32751,-4.378071353,-60704,1.031050805,14296,128,-280959,-20.2632207,4175.78125,5760,128
-1.113341583,-15437,-4.354126972,-60372,1.033863549,14335,128,-280774,-20.2498782,4195.3125,6400,128
-0.595508289,-8257,-4.37706165,-60690,1.029608372,14276,128,-280509,-20.23076597,4214.84375,7040,128
-0.186795019,-2590,-4.362348838,-60486,1.14817633,15920,128,-280590,-20.23660782,4234.375,7680,128
-4.717403617,-65409,-4.361771865,-60478,1.145219343,15879,128,-280639,-20.24014178,4253.90625,8320,128
-4.689564668,-65023,-7.892991053,-109440,1.178106806,16335,128,-280201,-20.2085525,4273.4375,8960,128
-4.715239968,-65379,-7.854478103,-108906,1.181424401,16381,128,-279980,-20.19261362,4292.96875,9600,128
-7.091142784,-98322,-7.850727779,-108854,1.163177629,16128,128,-280020,-20.19549849,4312.5,10240,128
-7.091070663,-98321,-7.837818007,-108675,1.179549239,16355,128,-279709,-20.17306866,4332.03125,10880,128
-7.237549691,-100352,-7.786034678,-107957,1.121635571,15552,128,-278996,-20.12164594,4351.5625,11520,128
-7.167952319,-99387,-7.773269149,-107780,1.173491022,16271,128,-278776,-20.10577918,4371.09375,12160,128
-7.104845894,-98512,-7.738722889,-107301,0.017381313,241,128,-278389,-20.07786811,4390.625,12800,128
-7.228678731,-100229,-7.774423096,-107796,1.179332874,16352,128,-278934,-20.1171744,4410.15625,13440,128
-7.09092642,-98319,-7.807671166,-108257,1.15394606,16000,128,-278999,-20.12186231,4429.6875,14080,128
-7.161533494,-99298,-7.831831912,-108592,1.181424401,16381,128,-279478,-20.15640857,4449.21875,14720,128
-7.26055649,-100671,-7.850150806,-108846,1.163105507,16127,128,-279416,-20.15193703,4468.75,15360,128
-7.366935893,-102146,-7.844308954,-108765,1.158561845,16064,128,-279323,-20.14522971,4488.28125,16000,128
-7.239929705,-100385,-7.863853915,-109036,1.163177629,16128,128,-279038,-20.12467505,4507.8125,16640,128
-7.36635892,-102138,-7.835221629,-108639,1.125890747,15611,128,-278982,-20.12063624,4527.34375,17280,128
-7.384100841,-102384,-7.883687363,-109311,1.173563143,16272,128,-278697,-20.10008157,4546.875,17920,128
-7.090998541,-98320,-7.873229727,-109166,1.177313468,16324,128,-278682,-20.09899975,4566.40625,18560,128
-7.090421568,-98312,-7.906838406,-109632,4.33E-04,6,128,-278556,-20.08991243,4585.9375,19200,128
-7.089916717,-98305,-7.85390113,-108898,0.004615784,64,128,-278388,-20.07779599,4605.46875,19840,128
-7.130881802,-98873,-7.878710971,-109242,5.05E-04,7,128,-278497,-20.08565725,4625,20480,128
-7.378908083,-102312,-7.905756582,-109617,0.017886164,248,128,-278373,-20.07671417,4644.53125,21120,128
-7.313926496,-101411,-7.87070547,-109131,1.179765604,16358,128,-278078,-20.05543829,4664.0625,21760,128
-7.126121774,-98807,-7.851809603,-108869,4.33E-04,6,128,-277149,-19.98843729,4683.59375,22400,128
-7.161894102,-99303,-7.802983261,-108192,0.001081824,15,128,-276928,-19.97249841,4703.125,23040,128
-7.161533494,-99298,-7.843515616,-108754,0.143089311,1984,128,-277334,-20.00177979,4722.65625,23680,128
-7.108091367,-98557,-7.86450301,-109045,0.045869356,636,128,-277992,-20.04923583,4742.1875,24320,128
-7.202426458,-99865,-7.897823202,-109507,1.179837725,16359,128,-278463,-20.08320511,4761.71875,24960,128
-7.164923211,-99345,-7.895587432,-109476,0.006274582,87,128,-278642,-20.09611489,4781.25,25600,128
-7.366863771,-102145,-7.93979799,-110089,1.177024982,16320,128,-278704,-20.10058643,4800.78125,26240,128
-7.130953924,-98874,-7.928402773,-109931,1.16187944,16110,128,-278826,-20.10938527,4820.3125,26880,128
-7.606956673,-105474,-7.982349751,-110679,1.179549239,16355,128,-278603,-20.09330214,4839.84375,27520,128
-2.354915423,-32652,-6.661586364,-92366,1.324730077,18368,128,-271481,-19.5796519,4859.375,28160,128
-7.126770869,-98816,-7.644748407,-105998,0.041469937,575,128,-278872,-20.11270286,4878.90625,28800,128
-7.311979212,-101384,-7.942178004,-110122,1.091128122,15129,128,-279072,-20.12712719,4898.4375,29440,128
-7.374941394,-102257,-7.958693857,-110351,1.144714492,15872,128,-278934,-20.1171744,4917.96875,30080,128
-7.415257384,-102816,-8.008313538,-111039,1.177601955,16328,128,-278901,-20.11479439,4937.5,30720,128
-7.384894178,-102395,-7.933956138,-110008,1.144930857,15875,128,-278759,-20.10455312,4957.03125,31360,128
-7.14761402,-99105,-7.937922828,-110063,1.179477117,16354,128,-278796,-20.10722162,4976.5625,32000,128
-7.357560081,-102016,-7.940302842,-110096,1.146733898,15900,128,-278794,-20.10707737,4996.09375,32640,128
-7.23574665,-100327,-7.987398265,-110749,1.145724195,15886,128,-279256,-20.14039757,5015.625,33280,128
-7.226082352,-100193,-7.90171777,-109561,1.14464237,15871,128,-279023,-20.12359323,5035.15625,33920,128
-7.311690725,-101380,-7.906622041,-109629,1.146950262,15903,128,-278930,-20.11688591,5054.6875,34560,128
-7.089916717,-98305,-7.847338062,-108807,0.001081824,15,128,-278104,-20.05731345,5074.21875,35200,128
-7.092152487,-98336,-7.862339361,-109015,0.070102223,972,128,-277718,-20.0294745,5093.75,35840,128
-7.154537696,-99201,-7.819859722,-108426,0.017309191,240,128,-277257,-19.99622643,5113.28125,36480,128
-7.125689045,-98801,-7.779615853,-107868,0.006923676,96,128,-276939,-19.97329175,5132.8125,37120,128
-7.126482383,-98812,-7.829884628,-108565,0.138473527,1920,128,-277399,-20.0064677,5152.34375,37760,128
-7.09092642,-98319,-7.876763687,-109215,0.034618382,480,128,-278052,-20.05356312,5171.875,38400,128
-7.105927718,-98527,-7.899626243,-109532,0.037431125,519,128,-278541,-20.0888306,5191.40625,39040,128
-7.09049369,-98313,-7.890538918,-109406,1.18048682,16368,128,-278597,-20.09286941,5210.9375,39680,128
-7.12590541,-98804,-7.918738475,-109797,1.181063793,16376,128,-278718,-20.10159613,5230.46875,40320,128
-7.237621813,-100353,-7.89017831,-109401,1.18048682,16368,128,-278686,-20.09928824,5250,40960,128
-7.09006096,-98307,-7.926455489,-109904,0.004038811,56,128,-278669,-20.09806217,5269.53125,41600,128
-7.090133082,-98308,-7.888591634,-109379,0.004543663,63,128,-278485,-20.08479179,5289.0625,42240,128
-7.098210704,-98420,-7.883470998,-109308,0.002812744,39,128,-278182,-20.06293894,5308.59375,42880,128
-7.145306128,-99073,-7.925878516,-109896,0.018463137,256,128,-278302,-20.07159353,5328.125,43520,128
-7.202931309,-99872,-7.902799595,-109576,0.017597677,244,128,-278240,-20.06712199,5347.65625,44160,128
-7.094388258,-98367,-7.910300244,-109680,0.017453434,242,128,-278103,-20.05724133,5367.1875,44800,128
-7.094532501,-98369,-7.92205607,-109843,0.032238368,447,128,-278239,-20.06704987,5386.71875,45440,128
-7.383091138,-102370,-7.902438987,-109571,0.008726717,121,128,-278061,-20.05421222,5406.25,46080,128
-7.362247987,-102081,-7.8764752,-109211,0.073780426,1023,128,-277521,-20.01526654,5425.78125,46720,128
-7.156773467,-99232,-7.858661158,-108964,0.035772328,496,128,-277030,-19.97985482,5445.3125,47360,128
-7.358497662,-102029,-7.818345167,-108405,0.039162044,543,128,-276757,-19.96016562,5464.84375,48000,128
-7.384245084,-102386,-7.871643051,-109144,0.006995798,97,128,-277789,-20.03459514,5484.375,48640,128
-7.384822057,-102394,-7.910228122,-109679,7.21E-05,1,128,-278195,-20.06387652,5503.90625,49280,128
-7.105062259,-98515,-7.939437382,-110084,1.44E-04,2,128,-278516,-20.08702756,5523.4375,49920,128
-7.119847193,-98720,-7.926599732,-109906,1.177241347,16323,128,-278514,-20.08688332,5542.96875,50560,128
-7.163841386,-99330,-7.921695461,-109838,1.17695286,16319,128,-278618,-20.09438397,5562.5,51200,128
-7.316018023,-101440,-7.943043464,-110134,0.004615784,64,128,-278246,-20.06755472,5582.03125,51840,128
-7.163625021,-99327,-7.748675674,-107439,1.217485215,16881,128,-277595,-20.02060354,5601.5625,52480,128
-2.23389533,-30974,-6.869657263,-95251,1.218422797,16894,128,-274434,-19.79262707,5621.09375,53120,128
-7.237549691,-100352,-7.793751692,-108064,4.33E-04,6,128,-279324,-20.14530184,5640.625,53760,128
-7.219158676,-100097,-7.91275238,-109714,1.181352279,16380,128,-278946,-20.11803986,5660.15625,54400,128
-7.235386042,-100322,-7.922272435,-109846,1.145796316,15887,128,-278699,-20.10022582,5679.6875,55040,128
-7.129150883,-98849,-7.932225219,-109984,1.145724195,15886,128,-278782,-20.10621191,5699.21875,55680,128
-7.161461373,-99297,-7.905612338,-109615,1.163249751,16129,128,-278531,-20.08810938,5718.75,56320,128
-7.126698747,-98815,-7.933307044,-109999,1.179332874,16352,128,-278808,-20.10808708,5738.28125,56960,128
-7.367296501,-102151,-7.910156001,-109678,1.144714492,15872,128,-278686,-20.09928824,5757.8125,57600,128
-7.092224609,-98337,-7.904674757,-109602,1.164331575,16144,128,-279024,-20.12366535,5777.34375,58240,128
-7.089916717,-98305,-7.887798296,-109368,1.159138818,16072,128,-278817,-20.10873617,5796.875,58880,128
-7.168312927,-99392,-7.869623645,-109116,1.172264954,16254,128,-278713,-20.10123552,5816.40625,59520,128
-7.101384056,-98464,-7.883182512,-109304,0.007428528,103,128,-278086,-20.05601526,5835.9375,60160,128
-7.103980434,-98500,-7.81005118,-108290,0.035267476,489,128,-277771,-20.03329695,5855.46875,60800,128
-7.145522493,-99076,-7.811349369,-108308,0.068659791,952,128,-277592,-20.02038718,5875,61440,128
-7.181511185,-99575,-7.786828016,-107968,0.065125831,903,128,-277649,-20.02449811,5894.53125,62080,128
-7.099076164,-98432,-7.817984559,-108400,0.004832149,67,128,-278201,-20.06430925,5914.0625,62720,128
-7.362247987,-102081,-7.832336763,-108599,0.008943082,124,128,-278621,-20.09460033,5933.59375,63360,128
-7.117611422,-98689,-7.877629146,-109227,1.180558941,16369,128,-278711,-20.10109128,5953.125,64000,128
-7.108307732,-98560,-7.859670861,-108978,1.181424401,16381,128,-278912,-20.11558773,5972.65625,64640,128
-7.383019016,-102369,-7.860824807,-108994,1.144786614,15873,128,-278922,-20.11630894,5992.1875,65280,128
-7.163769265,-99329,-7.90301596,-109579,1.172914049,16263,128,-279114,-20.13015629,6011.71875,384,128
-7.315585293,-101434,-7.897390473,-109501,1.177024982,16320,128,-278759,-20.10455312,6031.25,1024,128
-7.092080366,-98335,-7.897534716,-109503,1.165341278,16158,128,-278766,-20.10505797,6050.78125,1664,128
-7.106071962,-98529,-7.892558323,-109434,0,0,128,-278526,-20.08774878,6070.3125,2304,128
-7.14097883,-99013,-7.881307349,-109278,0.017958286,249,128,-278301,-20.07152141,6089.84375,2944,128
-7.376960799,-102285,-7.870056375,-109122,0.036854152,511,128,-278467,-20.0834936,6109.375,3584,128
-7.14984979,-99136,-7.886355863,-109348,0.03231049,448,128,-278286,-20.07043959,6128.90625,4224,128
-7.108091367,-98557,-7.879937038,-109259,0.017020704,236,128,-278445,-20.08190692,6148.4375,4864,128
-7.119630828,-98717,-7.912031163,-109704,0.003678203,51,128,-278489,-20.08508028,6167.96875,5504,128
-7.091070663,-98321,-7.873590335,-109171,0.018391015,255,128,-277779,-20.03387392,6187.5,6144,128
-7.320633807,-101504,-7.816830613,-108384,0.071472534,991,128,-276909,-19.9711281,6207.03125,6784,128
-7.229255704,-100237,-7.82332156,-108474,0.032887463,456,128,-276599,-19.9487704,6226.5625,7424,128
-7.23928061,-100376,-7.876835808,-109216,0.009087325,126,128,-277911,-20.04339397,6246.09375,8064,128
-7.089916717,-98305,-7.852963549,-108885,0,0,128,-278160,-20.06135226,6265.625,8704,128
-7.303324616,-101264,-7.889889823,-109397,0.034834747,483,128,-278130,-20.05918861,6285.15625,9344,128
-7.108091367,-98557,-7.923210016,-109859,0,0,128,-278632,-20.09539367,6304.6875,9984,128
-7.380134151,-102329,-7.896164405,-109484,0.004615784,64,128,-278442,-20.08169056,6324.21875,10624,128
-7.122299328,-98754,-7.994971036,-110854,0.001081824,15,128,-278351,-20.07512749,6343.75,11264,128
-4.579074333,-63491,-7.28132752,-100959,1.254988462,17401,128,-275871,-19.89626585,6363.28125,11904,128
-4.726635185,-65537,-7.63869019,-105914,0.237135915,3288,128,-278127,-20.05897225,6382.8125,12544,128
-7.107153786,-98544,-7.933090679,-109996,1.180991671,16375,128,-279049,-20.12546839,6402.34375,13184,128
-7.153455872,-99186,-7.931864611,-109979,1.181063793,16376,128,-278814,-20.10851981,6421.875,13824,128
-7.348328513,-101888,-7.94109618,-110107,1.176664373,16315,128,-278561,-20.09027303,6441.40625,14464,128
-7.345155161,-101844,-7.964463587,-110431,1.181280158,16379,128,-278944,-20.11789562,6460.9375,15104,128
-7.366575285,-102141,-7.945134991,-110163,1.167721292,16191,128,-278836,-20.11010648,6480.46875,15744,128
-7.321499267,-101516,-7.934244625,-110012,1.163177629,16128,128,-278775,-20.10570706,6500,16384,128
-7.3796293,-102322,-7.944990748,-110161,1.181568644,16383,128,-278994,-20.1215017,6519.53125,17024,128
-7.23351088,-100296,-7.94419741,-110150,1.153369087,15992,128,-278934,-20.1171744,6539.0625,17664,128
-7.145378249,-99074,-7.929484597,-109946,1.180558941,16369,128,-278847,-20.11089982,6558.59375,18304,128
-7.362320109,-102082,-7.917945137,-109786,1.17695286,16319,128,-278597,-20.09286941,6578.125,18944,128
-7.089916717,-98305,-7.873662457,-109172,1.179260752,16351,128,-278257,-20.06834806,6597.65625,19584,128
-7.246781259,-100480,-7.821085789,-108443,0.00223577,31,128,-277920,-20.04404307,6617.1875,20224,128
-7.235530285,-100324,-7.817407586,-108392,0.009231568,128,128,-277876,-20.04086972,6636.71875,20864,128
-7.089988838,-98306,-7.862411483,-109016,0.004471541,62,128,-278106,-20.05745769,6656.25,21504,128
-7.357560081,-102016,-7.873229727,-109166,0.004615784,64,128,-278458,-20.08284451,6675.78125,22144,128
-7.094316136,-98366,-7.943404072,-110139,1.158561845,16064,128,-279071,-20.12705506,6695.3125,22784,128
-7.219447162,-100101,-7.939581625,-110086,1.168730994,16205,128,-279223,-20.13801755,6714.84375,23424,128
-7.12590541,-98804,-7.947515005,-110196,1.165413399,16159,128,-279363,-20.14811458,6734.375,24064,128
-7.126698747,-98815,-7.974272129,-110567,1.116947665,15487,128,-279473,-20.15604796,6753.90625,24704,128
-7.236539988,-100338,-7.966050263,-110453,1.156181831,16031,128,-279161,-20.13354601,6773.4375,25344,128
-7.389437841,-102458,-7.951986546,-110258,1.164259453,16143,128,-279103,-20.12936296,6792.96875,25984,128
-7.399174261,-102593,-7.985523103,-110723,1.180270455,16365,128,-278931,-20.11695804,6812.5,26624,128
-7.438192062,-103134,-7.970666047,-110517,1.162456413,16118,128,-278773,-20.10556282,6832.03125,27264,128
-7.402636099,-102641,-8.011919619,-111089,1.179765604,16358,128,-278874,-20.1128471,6851.5625,27904,128
-7.387057827,-102425,-7.961290236,-110387,1.172625562,16259,128,-278967,-20.11955441,6871.09375,28544,128
-7.402636099,-102641,-7.99114859,-110801,1.126107112,15614,128,-279042,-20.12496354,6890.625,29184,128
-7.385326908,-102401,-7.976435778,-110597,1.145219343,15879,128,-278676,-20.09856702,6910.15625,29824,128
-7.108956827,-98569,-7.951121086,-110246,0.008943082,124,128,-278179,-20.06272257,6929.6875,30464,128
-7.14761402,-99105,-7.959992046,-110369,0.055317289,767,128,-277828,-20.03740788,6949.21875,31104,128
-7.168240806,-99391,-7.897101986,-109497,0.064837344,899,128,-277709,-20.02882541,6968.75,31744,128
-7.089916717,-98305,-7.98537886,-110721,1.177024982,16320,128,-278766,-20.10505797,6988.28125,32384,128
-7.431412629,-103040,-8.014515998,-111125,1.112404002,15424,128,-279494,-20.15756251,7007.8125,33024,128
-7.394486355,-102528,-8.01992512,-111200,1.052326685,14591,128,-279879,-20.18532934,7027.34375,33664,128
-7.542191451,-104576,-8.03233004,-111372,1.072304377,14868,128,-279926,-20.18871906,7046.875,34304,128
-7.423335007,-102928,-8.03009427,-111341,1.106490029,15342,128,-279956,-20.19088271,7066.40625,34944,128
-7.385543273,-102404,-8.070049652,-111895,1.042950874,14461,128,-279661,-20.16960683,7085.9375,35584,128
-7.320201077,-101498,-7.461847956,-103462,0.143954771,1996,128,-277517,-20.01497805,7105.46875,36224,128
-4.726707307,-65538,-6.956275339,-96452,0.019400718,269,128,-275639,-19.87953363,7125,36864,128
-7.092224609,-98337,-8.034060959,-111396,1.038190846,14395,128,-280657,-20.24143997,7144.53125,37504,128
-7.678429208,-106465,-8.066515692,-111846,1.144714492,15872,128,-280055,-20.19802275,7164.0625,38144,128
-7.389509963,-102459,-8.043581014,-111528,1.043095117,14463,128,-279919,-20.18821421,7183.59375,38784,128
-7.459684308,-103432,-8.051586515,-111639,1.036099319,14366,128,-279974,-20.19218089,7203.125,39424,128
-7.394342112,-102526,-8.061178692,-111772,1.052615172,14595,128,-280075,-20.19946518,7222.65625,40064,128
-7.422397425,-102915,-8.031248216,-111357,1.074323782,14896,128,-280047,-20.19744577,7242.1875,40704,128
-7.144368547,-99060,-8.029445175,-111332,1.0397054,14416,128,-279977,-20.19239726,7261.71875,41344,128
-7.602268768,-105409,-8.048990136,-111603,1.064370997,14758,128,-280456,-20.22694352,7281.25,41984,128
-7.403717924,-102656,-8.045744663,-111558,1.037397508,14384,128,-280224,-20.2102113,7300.78125,42624,128
-7.403790045,-102657,-8.011847497,-111088,1.067616471,14803,128,-280073,-20.19932094,7320.3125,43264,128
-7.094460379,-98368,-7.984729765,-110712,1.071366795,14855,128,-279817,-20.1808578,7339.84375,43904,128
-7.53815264,-104520,-7.981195805,-110663,1.167721292,16191,128,-279332,-20.14587881,7359.375,44544,128
-7.385254787,-102400,-7.928474895,-109932,1.164259453,16143,128,-279025,-20.12373747,7378.90625,45184,128
-7.163625021,-99327,-7.900996554,-109551,1.172914049,16263,128,-278746,-20.10361553,7398.4375,45824,128
-7.237549691,-100352,-7.941024058,-110106,1.168370386,16200,128,-279384,-20.14962913,7417.96875,46464,128
-7.388788746,-102449,-7.980113981,-110648,1.089541446,15107,128,-279693,-20.17191472,7437.5,47104,128
-7.091142784,-98322,-8.008529903,-111042,1.070861944,14848,128,-279882,-20.18554571,7457.03125,47744,128
-7.095181596,-98378,-8.00001955,-110924,1.089325081,15104,128,-279976,-20.19232514,7476.5625,48384,128
-7.537575667,-104512,-8.027065161,-111299,1.089829932,15111,128,-279894,-20.18641116,7496.09375,49024,128
-7.45889097,-103421,-8.029012445,-111326,1.089325081,15104,128,-280048,-20.1975179,7515.625,49664,128
-7.108379854,-98561,-8.046898609,-111574,1.09502269,15183,128,-279656,-20.16924622,7535.15625,50304,128
-7.401410031,-102624,-8.02836335,-111317,1.146373289,15895,128,-279529,-20.16008677,7554.6875,50944,128
-7.429176859,-103009,-8.027642134,-111307,1.177097103,16321,128,-279397,-20.15056672,7574.21875,51584,128
-7.607966376,-105488,-8.040191298,-111481,1.167504927,16188,128,-279316,-20.14472486,7593.75,52224,128
-7.603999687,-105433,-8.047114974,-111577,1.167504927,16188,128,-279515,-20.15907707,7613.28125,52864,128
-7.459179456,-103425,-8.038460378,-111457,1.107499731,15356,128,-279610,-20.16592862,7632.8125,53504,128
-7.163625021,-99327,-8.039325838,-111469,1.176880738,16318,128,-279644,-20.16838076,7652.34375,54144,128
-7.452183658,-103328,-8.045961028,-111561,1.145652073,15885,128,-279250,-20.13996484,7671.875,54784,128
-7.108451975,-98562,-8.00131774,-110942,1.179116509,16349,128,-278567,-20.09070576,7691.40625,55424,128
-7.535339896,-104481,-8.001606226,-110946,0.006923676,96,128,-278166,-20.06178499,7710.9375,56064,128
-7.099004042,-98431,-7.958405371,-110347,0.004183054,58,128,-278441,-20.08161844,7730.46875,56704,128
-7.107009543,-98542,-8.009395362,-111054,1.145579951,15884,128,-279444,-20.15395643,7750,57344,128
-7.662273963,-106241,-8.062981732,-111797,1.039633279,14415,128,-280284,-20.2145386,7769.53125,57984,128
-7.675904951,-106430,-8.117866292,-112558,1.181352279,16380,128,-280592,-20.23675206,7789.0625,58624,128
-7.612005188,-105544,-8.098177087,-112285,1.179837725,16359,128,-280671,-20.24244967,7808.59375,59264,128
-7.311690725,-101380,-8.124068752,-112644,1.180703185,16371,128,-280702,-20.24468544,7828.125,59904,128
-7.67143341,-106368,-8.116063251,-112533,1.181568644,16383,128,-280380,-20.22146228,7847.65625,60544,128
-4.726490942,-65535,-7.232861785,-100287,1.338505308,18559,128,-276376,-19.93268727,7867.1875,61184,128
-7.12590541,-98804,-7.234376339,-100308,0.062313087,864,128,-277652,-20.02471447,7886.71875,61824,128
-7.233943609,-100302,-8.033772473,-111392,1.103749407,15304,128,-281537,-20.304907,7906.25,62464,128
-7.678429208,-106465,-8.084618221,-112097,1.170606157,16231,128,-280986,-20.26516798,7925.78125,63104,128
-7.542263572,-104577,-8.125439063,-112663,1.170101305,16224,128,-280831,-20.25398913,7945.3125,63744,128
-7.643810826,-105985,-8.087430964,-112136,1.181568644,16383,128,-280837,-20.25442186,7964.84375,64384,128
-7.387562679,-102432,-8.056562907,-111708,1.0397054,14416,128,-280354,-20.21958711,7984.375,65024,128
-7.641575055,-105954,-8.083103667,-112076,1.163177629,16128,128,-280766,-20.24930122,8003.90625,128,128
-7.611356093,-105535,-8.062837489,-111795,1.177024982,16320,128,-280765,-20.2492291,8023.4375,768,128
-7.514496745,-104192,-8.066659935,-111848,1.170606157,16231,128,-280763,-20.24908486,8042.96875,1408,128
-7.551350898,-104703,-8.030815486,-111351,1.179909847,16360,128,-280696,-20.24425271,8062.5,2048,128
-7.399174261,-102593,-8.019852998,-111199,1.052254564,14590,128,-280287,-20.21475496,8082.03125,2688,128
-7.106144083,-98530,-7.987758873,-110754,1.085719,15054,128,-279910,-20.18756511,8101.5625,3328,128
-7.236756353,-100341,-7.966915723,-110465,1.149186033,15934,128,-279392,-20.15020611,8121.09375,3968,128
-7.318325915,-101472,-7.92739307,-109917,1.161951561,16111,128,-279319,-20.14494123,8140.625,4608,128
-7.172928712,-99456,-7.913257231,-109721,1.160869737,16096,128,-279725,-20.17422261,8160.15625,5248,128
-7.385326908,-102401,-7.993744969,-110837,1.03480113,14348,128,-280212,-20.20934584,8179.6875,5888,128
-7.418502858,-102861,-8.004707456,-110989,1.181496523,16382,128,-280706,-20.24497393,8199.21875,6528,128
-7.421676209,-102905,-8.011342646,-111081,1.179332874,16352,128,-281002,-20.26632193,8218.75,7168,128
-7.418430736,-102860,-8.00001955,-110924,1.165341278,16158,128,-280810,-20.25247458,8238.28125,7808,128
-7.392106341,-102495,-8.006943227,-111020,1.163177629,16128,128,-281004,-20.26646617,8257.8125,8448,128
-7.396794247,-102560,-8.006005646,-111007,1.181568644,16383,128,-280744,-20.24771455,8277.34375,9088,128
-7.163264413,-99322,-8.040047054,-111479,1.043095117,14463,128,-280640,-20.2402139,8296.875,9728,128
-7.12857391,-98841,-8.024180296,-111259,1.052326685,14591,128,-280374,-20.22102955,8316.40625,10368,128
-7.608543349,-105496,-7.998577118,-110904,1.051244861,14576,128,-280141,-20.20422521,8335.9375,11008,128
-7.565342494,-104897,-8.003841997,-110977,1.065092214,14768,128,-280142,-20.20429733,8355.46875,11648,128
-7.395712423,-102545,-7.986893414,-110742,1.146156925,15892,128,-280043,-20.19715729,8375,12288,128
-7.154465575,-99200,-7.989850401,-110783,1.051316983,14577,128,-280111,-20.20206156,8394.53125,12928,128
-7.533536855,-104456,-7.995620131,-110863,1.094229352,15172,128,-279996,-20.19376757,8414.0625,13568,128
-7.386120246,-102412,-7.99821651,-110899,1.06978012,14833,128,-280158,-20.20545127,8433.59375,14208,128
-7.099076164,-98432,-7.981989143,-110674,1.107643975,15358,128,-279586,-20.1641977,8453.125,14848,128
-7.385038422,-102397,-7.944413775,-110153,1.14817633,15920,128,-278817,-20.10873617,8472.65625,15488,128
-7.348256391,-101887,-7.93446099,-110015,1.172120711,16252,128,-278660,-20.09741307,8492.1875,16128,128
-7.357704324,-102018,-7.91275238,-109714,1.146084803,15891,128,-279469,-20.15575947,8511.71875,16768,128
-7.396866369,-102561,-7.98804736,-110758,1.052326685,14591,128,-280369,-20.22066894,8531.25,17408,128
-7.376744434,-102282,-7.967564817,-110474,1.107788218,15360,128,-280309,-20.21634164,8550.78125,18048,128
-7.606956673,-105474,-7.966627236,-110461,1.035017495,14351,128,-280301,-20.21576467,8570.3125,18688,128
-7.235818772,-100328,-7.974200007,-110566,1.052326685,14591,128,-280084,-20.20011427,8589.84375,19328,128
-7.546662992,-104638,-8.049567109,-111611,1.052903658,14599,128,-279661,-20.16960683,8609.375,19968,128
-7.162615319,-99313,-7.511251272,-104147,1.187987469,16472,128,-278312,-20.07231475,8628.90625,20608,128
-2.326427379,-32257,-6.694473826,-92822,1.18272259,16399,128,-274214,-19.77676031,8648.4375,21248,128
-7.308012522,-101329,-7.889673458,-109394,1.177097103,16321,128,-280817,-20.25297943,8667.96875,21888,128
-7.175308725,-99489,-7.932369463,-109986,1.181352279,16380,128,-280324,-20.21742346,8687.5,22528,128
-7.390014814,-102466,-7.957612033,-110336,1.034440522,14343,128,-279859,-20.18388691,8707.03125,23168,128
-7.385254787,-102400,-7.94419741,-110150,1.107643975,15358,128,-279988,-20.1931906,8726.5625,23808,128
-7.386480854,-102417,-7.948668951,-110212,1.067327984,14799,128,-279701,-20.17249169,8746.09375,24448,128
-7.383235381,-102372,-7.937057368,-110051,1.107716096,15359,128,-279969,-20.19182029,8765.625,25088,128
-7.126842991,-98817,-7.917440285,-109779,1.052759415,14597,128,-280154,-20.20516279,8785.15625,25728,128
-7.228895095,-100232,-7.967853304,-110478,1.035161738,14353,128,-280301,-20.21576467,8804.6875,26368,128
-7.116457476,-98673,-7.965978142,-110452,1.042878752,14460,128,-280327,-20.21763983,8824.21875,27008,128
-7.34775154,-101880,-7.929123989,-109941,1.125962868,15612,128,-280076,-20.1995373,8843.75,27648,128
-7.385038422,-102397,-7.943620437,-110142,1.089036595,15100,128,-279836,-20.18222811,8863.28125,28288,128
-7.384461449,-102389,-7.898328054,-109514,1.158561845,16064,128,-279052,-20.12568475,8882.8125,28928,128
-7.107225908,-98545,-7.860824807,-108994,1.163610359,16134,128,-278972,-20.11991502,8902.34375,29568,128
-7.246564895,-100477,-7.833562831,-108616,1.179909847,16360,128,-279137,-20.13181509,8921.875,30208,128
-7.108307732,-98560,-7.863853915,-109036,1.103100312,15295,128,-279751,-20.17609777,8941.40625,30848,128
-7.172928712,-99456,-7.920685759,-109824,1.070284971,14840,128,-280135,-20.20379248,8960.9375,31488,128
-7.374941394,-102257,-7.944990748,-110161,1.172625562,16259,128,-280654,-20.2412236,8980.46875,32128,128
-7.1608844,-99289,-7.940447085,-110098,1.043527847,14469,128,-280443,-20.22600594,9000,32768,128
-7.367152258,-102149,-7.953789586,-110283,1.042662387,14457,128,-280636,-20.23992541,9019.53125,33408,128
-7.385182665,-102399,-7.968502399,-110487,1.180558941,16369,128,-280601,-20.23740116,9039.0625,34048,128
-7.22954419,-100241,-7.979681251,-110642,1.052470929,14593,128,-280416,-20.22405865,9058.59375,34688,128
-7.3876348,-102433,-7.99691832,-110881,1.03393567,14336,128,-280234,-20.21093252,9078.125,35328,128
-7.368955299,-102174,-7.959775681,-110366,1.089252959,15103,128,-279906,-20.18727662,9097.65625,35968,128
-7.090277325,-98310,-7.994971036,-110854,1.075477728,14912,128,-279864,-20.18424752,9117.1875,36608,128
-7.367657109,-102156,-7.965401169,-110444,1.105985177,15335,128,-279891,-20.1861948,9136.71875,37248,128
-7.385038422,-102397,-7.973262426,-110553,1.103172434,15296,128,-279872,-20.18482449,9156.25,37888,128
-7.123164788,-98766,-7.964102979,-110426,1.107716096,15359,128,-279764,-20.17703535,9175.78125,38528,128
-7.21980777,-100106,-7.97124302,-110525,1.181352279,16380,128,-279143,-20.13224782,9195.3125,39168,128
-7.166077157,-99361,-7.905468095,-109613,0.003461838,48,128,-278477,-20.08421482,9214.84375,39808,128
-7.312411942,-101390,-7.871931538,-109148,0.004543663,63,128,-278074,-20.0551498,9234.375,40448,128
-7.108307732,-98560,-7.865296348,-109056,0.014929177,207,128,-278326,-20.07332445,9253.90625,41088,128
-7.382946895,-102368,-7.895154702,-109470,1.149258155,15935,128,-278853,-20.11133255,9273.4375,41728,128
-7.356694622,-102004,-7.9535011,-110279,1.12560226,15607,128,-279387,-20.1498455,9292.96875,42368,128
-7.357848568,-102020,-7.911670555,-109699,1.112331881,15423,128,-279453,-20.15460553,9312.5,43008,128
-7.23307815,-100290,-7.935831301,-110034,1.104182137,15310,128,-279602,-20.16535165,9332.03125,43648,128
-7.348400634,-101889,-7.939221017,-110081,1.145796316,15887,128,-279528,-20.16001465,9351.5625,44288,128
-7.416555574,-102834,-7.862195118,-109013,1.171832224,16248,128,-279248,-20.13982059,9371.09375,44928,128
-2.10414852,-29175,-6.828259448,-94677,1.625765756,22542,128,-273638,-19.73521825,9390.625,45568,128
-7.117611422,-98689,-7.600537849,-105385,0.036709909,509,128,-278147,-20.06041468,9410.15625,46208,128
-7.121001139,-98736,-7.886788593,-109354,1.1167313,15484,128,-279171,-20.13426723,9429.6875,46848,128
-7.31147436,-101377,-7.910949339,-109689,1.178755901,16344,128,-278832,-20.10981799,9449.21875,47488,128
-7.090421568,-98312,-7.913112988,-109719,1.181352279,16380,128,-278919,-20.11609258,9468.75,48128,128
-7.382946895,-102368,-7.899482,-109530,1.153873939,15999,128,-278827,-20.10945739,9488.28125,48768,128
-7.108451975,-98562,-7.857723577,-108951,1.18091955,16374,128,-278182,-20.06293894,9507.8125,49408,128
-7.272240194,-100833,-7.861329658,-109001,1.179765604,16358,128,-278556,-20.08991243,9527.34375,50048,128
-7.376239583,-102275,-7.870777592,-109132,1.177529833,16327,128,-278885,-20.11364044,9546.875,50688,128
-7.124535099,-98785,-7.897823202,-109507,1.179332874,16352,128,-278872,-20.11270286,9566.40625,51328,128
-7.370325609,-102193,-7.923210016,-109859,1.163610359,16134,128,-279034,-20.12438656,9585.9375,51968,128
-7.099076164,-98432,-7.864719375,-109048,1.172481319,16257,128,-278605,-20.09344639,9605.46875,52608,128
-7.094460379,-98368,-7.845390778,-108780,0.004543663,63,128,-278415,-20.07974328,9625,53248,128
-7.122227206,-98753,-7.8197876,-108425,0.036782031,510,128,-278054,-20.05370737,9644.53125,53888,128
-7.236467866,-100337,-7.818128803,-108402,2.16E-04,3,128,-277982,-20.04851461,9664.0625,54528,128
-7.237333326,-100349,-7.837529521,-108671,0.008149744,113,128,-278179,-20.06272257,9683.59375,55168,128
-7.125616923,-98800,-7.863853915,-109036,1.181280158,16379,128,-278581,-20.09171547,9703.125,55808,128
-7.099076164,-98432,-7.920613637,-109823,1.177601955,16328,128,-278967,-20.11955441,9722.65625,56448,128
-7.320561686,-101503,-7.917007556,-109773,1.177890441,16332,128,-279079,-20.12763204,9742.1875,57088,128
-7.236539988,-100338,-7.953140492,-110274,1.140170829,15809,128,-279157,-20.13325752,9761.71875,57728,128
-7.367512866,-102154,-7.945784085,-110172,1.165413399,16159,128,-279272,-20.14155151,9781.25,58368,128
-7.219230797,-100098,-7.962516303,-110404,1.142622965,15843,128,-279133,-20.13152661,9800.78125,59008,128
-7.311546482,-101378,-7.93756222,-110058,1.145219343,15879,128,-278867,-20.11234225,9820.3125,59648,128
-7.200911903,-99844,-7.910877217,-109688,1.177241347,16323,128,-278837,-20.1101786,9839.84375,60288,128
-7.3849663,-102396,-7.931576125,-109975,1.173779508,16275,128,-278650,-20.09669186,9859.375,60928,128
-7.384677814,-102392,-7.952419275,-110264,1.172481319,16257,128,-278655,-20.09705247,9878.90625,61568,128
-7.366863771,-102145,-7.959775681,-110366,1.180703185,16371,128,-278797,-20.10729374,9898.4375,62208,128
-7.376023218,-102272,-7.966266628,-110456,1.172120711,16252,128,-278971,-20.1198429,9917.96875,62848,128
-7.126770869,-98816,-7.933884017,-110007,1.18091955,16374,128,-278796,-20.10722162,9937.5,63488,128
-7.383163259,-102371,-7.925517908,-109891,0.00223577,31,128,-277961,-20.04700006,9957.03125,64128,128
-7.367008015,-102147,-7.960713263,-110379,0.001009703,14,128,-277762,-20.03264785,9976.5625,64768,128
-7.089916717,-98305,-7.94996714,-110230,0.035772328,496,128,-278455,-20.08262814,9996.09375,65408,128
-7.376383826,-102277,-7.960280533,-110373,1.159787912,16081,128,-279343,-20.14667215,10015.625,512,128
-7.20033493,-99836,-7.938860409,-110076,1.107355488,15354,128,-279622,-20.16679408,10035.15625,1152,128
-7.385254787,-102400,-7.969728466,-110504,1.098773014,15235,128,-279678,-20.17083289,10054.6875,1792,128
-7.371407434,-102208,-7.96193933,-110396,1.107716096,15359,128,-279821,-20.18114629,10074.21875,2432,128
-7.163697143,-99328,-8.029805783,-111337,1.037253265,14382,128,-280022,-20.19564273,10093.75,3072,128
-7.098571312,-98425,-8.031103972,-111355,1.16368248,16135,128,-279802,-20.17977597,10113.28125,3712,128
-2.354049963,-32640,-6.784625862,-94072,1.532368247,21247,128,-273732,-19.74199769,10132.8125,4352,128
-7.109461678,-98576,-7.775288555,-107808,1.144714492,15872,128,-279998,-20.19391181,10152.34375,4992,128
-7.56296248,-104864,-8.016751768,-111156,1.042013293,14448,128,-280499,-20.23004475,10171.875,5632,128
-7.607894255,-105487,-7.996485591,-110875,1.050595766,14567,128,-280121,-20.20278277,10191.40625,6272,128
-7.533248369,-104452,-7.994826793,-110852,1.10786034,15361,128,-280149,-20.20480218,10210.9375,6912,128
-7.094388258,-98367,-7.998937726,-110909,1.070717701,14846,128,-280182,-20.20718219,10230.46875,7552,128
-8.008890511,-111047,-8.001389861,-110943,1.069635876,14831,128,-280241,-20.21143737,10250,8192,128
-7.108379854,-98561,-7.995836496,-110866,1.112187637,15421,128,-280531,-20.23235264,10269.53125,8832,128
-7.097056758,-98404,-7.984152792,-110704,1.121635571,15552,128,-280448,-20.22636655,10289.0625,9472,128
-7.56519825,-104895,-8.006871105,-111019,1.180198333,16364,128,-280691,-20.2438921,10308.59375,10112,128
-7.536565964,-104498,-7.979681251,-110642,1.121635571,15552,128,-280440,-20.22578957,10328.125,10752,128
-7.387562679,-102432,-7.980041859,-110647,1.051893956,14585,128,-280359,-20.21994772,10347.65625,11392,128
-7.122732058,-98760,-7.92696034,-109911,1.171255251,16240,128,-279691,-20.17177047,10367.1875,12032,128
-7.122227206,-98753,-7.885129796,-109331,1.136492626,15758,128,-279282,-20.14227273,10386.71875,12672,128
-7.385182665,-102399,-7.879648552,-109255,1.177529833,16327,128,-279091,-20.1284975,10406.25,13312,128
-7.366286798,-102137,-7.876330957,-109209,1.107788218,15360,128,-279263,-20.14090242,10425.78125,13952,128
-7.099076164,-98432,-7.901934135,-109564,1.09415723,15171,128,-279726,-20.17429473,10445.3125,14592,128
-7.32741324,-101598,-7.913617839,-109726,1.149258155,15935,128,-279877,-20.1851851,10464.84375,15232,128
-7.340034525,-101773,-7.931720368,-109977,1.151421803,15965,128,-279983,-20.19282999,10484.375,15872,128
-7.125328437,-98796,-7.937706463,-110060,1.14817633,15920,128,-280032,-20.19636395,10503.90625,16512,128
-7.369171663,-102177,-7.960208411,-110372,1.09855665,15232,128,-280063,-20.19859972,10523.4375,17152,128
-7.382946895,-102368,-7.954727167,-110296,1.09855665,15232,128,-279768,-20.17732384,10542.96875,17792,128
-7.233150272,-100291,-7.958693857,-110351,1.098412406,15230,128,-279706,-20.1728523,10562.5,18432,128
-7.163769265,-99329,-7.922633043,-109851,1.112908854,15431,128,-279481,-20.15662493,10582.03125,19072,128
-7.370902583,-102201,-7.961218114,-110386,1.18048682,16368,128,-279312,-20.14443638,10601.5625,19712,128
-7.329360524,-101625,-7.913329353,-109722,1.12336649,15576,128,-279334,-20.14602305,10621.09375,20352,128
-7.367080136,-102148,-7.920902124,-109827,1.11586584,15472,128,-279360,-20.14789821,10640.625,20992,128
-7.17242386,-99449,-7.936552517,-110044,1.10786034,15361,128,-279541,-20.16095223,10660.15625,21632,128
-0.590820383,-8192,-7.93446099,-110015,1.17918863,16350,128,-278722,-20.10188462,10699.21875,22912,0
-7.237333326,-100349,-7.891909229,-109425,2.88E-04,4,128,-278229,-20.06632865,10718.75,23552,128
-7.126338139,-98810,-7.869623645,-109116,0.004543663,63,128,-278331,-20.07368506,10738.28125,24192,128
-7.107875002,-98554,-7.923137894,-109858,1.108293069,15367,128,-279432,-20.15309097,10757.8125,24832,128
-7.200479174,-99838,-7.980041859,-110647,1.093652379,15164,128,-279992,-20.19347908,10777.34375,25472,128
-7.385326908,-102401,-7.994971036,-110854,1.070789822,14847,128,-280191,-20.20783129,10796.875,26112,128
-7.387418436,-102430,-7.974632737,-110572,1.066751011,14791,128,-280341,-20.21864953,10816.40625,26752,128
-7.237261204,-100348,-8.001461983,-110944,1.043095117,14463,128,-280494,-20.22968414,10835.9375,27392,128
-7.394486355,-102528,-8.037667041,-111446,1.038407211,14398,128,-280251,-20.21215859,10855.46875,28032,128
-7.096840393,-98401,-7.358209176,-102025,0.465112384,6449,128,-277757,-20.03228724,10875,28672,128
-4.735866754,-65665,-7.531733815,-104431,0.16869249,2339,128,-279796,-20.17934324,10894.53125,29312,128
-7.117034449,-98681,-7.940374963,-110097,1.145724195,15886,128,-281249,-20.28413597,10914.0625,29952,128
-7.221466568,-100129,-7.967564817,-110474,1.043095117,14463,128,-280384,-20.22175076,10933.59375,30592,128
-7.145522493,-99076,-8.011414768,-111082,1.038262968,14396,128,-280141,-20.20422521,10953.125,31232,128
-7.167231103,-99377,-7.958044762,-110342,1.104542745,15315,128,-280077,-20.19960942,10972.65625,31872,128
-7.220168378,-100111,-7.956818695,-110325,1.084925662,15043,128,-279977,-20.19239726,10992.1875,32512,128
-7.126338139,-98810,-7.923786989,-109867,1.166639467,16176,128,-279844,-20.18280508,11011.71875,33152,128
-7.091719758,-98330,-7.939509504,-110085,1.100864542,15264,128,-279959,-20.19109907,11031.25,33792,128
-7.347535175,-101877,-7.932008854,-109981,1.099061501,15239,128,-280029,-20.19614758,11050.78125,34432,128
-7.096840393,-98401,-7.925085178,-109885,1.102883947,15292,128,-280038,-20.19679668,11070.3125,35072,128
-7.382946895,-102368,-7.872796997,-109160,1.147959965,15917,128,-279689,-20.17162623,11089.84375,35712,128
-7.23531392,-100321,-7.826494911,-108518,1.170461913,16229,128,-278971,-20.1198429,11109.375,36352,128
-7.223990825,-100164,-7.817623951,-108395,1.179332874,16352,128,-278716,-20.10145189,11128.90625,36992,128
-7.162615319,-99313,-7.73966047,-107314,1.179909847,16360,128,-278217,-20.06546319,11148.4375,37632,128
-7.099076164,-98432,-7.723360982,-107088,0.001081824,15,128,-278467,-20.0834936,11167.96875,38272,128
-7.163769265,-99329,-7.749036282,-107444,0,0,128,-278723,-20.10195674,11187.5,38912,128
-7.107442273,-98548,-7.812070586,-108318,1.146950262,15903,128,-279432,-20.15309097,11207.03125,39552,128
-7.23531392,-100321,-7.815388181,-108364,1.164331575,16144,128,-279377,-20.14912428,11226.5625,40192,128
-7.095686447,-98385,-7.814450599,-108351,1.172409197,16256,128,-279542,-20.16102435,11246.09375,40832,128
-7.200695539,-99841,-7.784015272,-107929,1.180558941,16369,128,-279541,-20.16095223,11265.625,41472,128
-7.163697143,-99328,-7.807022072,-108248,1.109735502,15387,128,-279402,-20.15092732,11285.15625,42112,128
-7.228534487,-100227,-7.822023371,-108456,1.179549239,16355,128,-279379,-20.14926853,11304.6875,42752,128
-7.131314532,-98879,-7.816830613,-108384,1.122140422,15559,128,-279097,-20.12893023,11324.21875,43392,128
-7.237116961,-100346,-7.807022072,-108248,1.181424401,16381,128,-279035,-20.12445869,11343.75,44032,128
-7.237333326,-100349,-7.785313461,-107947,1.144786614,15873,128,-278787,-20.10657252,11363.28125,44672,128
-7.089916717,-98305,-7.794040179,-108068,1.179765604,16358,128,-278713,-20.10123552,11382.8125,45312,128
-7.235818772,-100328,-7.758556337,-107576,1.174428603,16284,128,-278419,-20.08003176,11402.34375,45952,128
-7.15915348,-99265,-7.749973863,-107457,1.180991671,16375,128,-278794,-20.10707737,11421.875,46592,128
-7.133766667,-98913,-7.68427106,-106546,8.65E-04,12,128,-277927,-20.04454792,11441.40625,47232,128
-7.107225908,-98545,-7.696748101,-106719,0.007212163,100,128,-277324,-20.00105858,11460.9375,47872,128
-7.233150272,-100291,-7.634579257,-105857,0.106379402,1475,128,-277033,-19.98007118,11480.46875,48512,128
-7.374292299,-102248,-7.649580556,-106065,0.016299488,226,128,-277897,-20.04238427,11500,49152,128
-7.170692941,-99425,-7.721774307,-107066,0.00353396,49,128,-278556,-20.08991243,11519.53125,49792,128
-7.163408657,-99324,-7.736054389,-107264,1.15394606,16000,128,-278907,-20.11522712,11539.0625,50432,128
-7.123886004,-98776,-7.738578646,-107299,1.140531437,15814,128,-279058,-20.12611748,11558.59375,51072,128
-7.223702338,-100160,-7.772475812,-107769,1.108653678,15372,128,-278924,-20.11645318,11578.125,51712,128
-7.237549691,-100352,-7.771826717,-107760,1.144065397,15863,128,-279116,-20.13030054,11597.65625,52352,128
-7.126554504,-98813,-7.351501864,-101932,0.293030178,4063,128,-277474,-20.01187682,11617.1875,52992,128
-2.003250361,-27776,-6.502774537,-90164,1.494360148,20720,128,-273476,-19.72353455,11636.71875,53632,128
-7.163697143,-99328,-7.703816021,-106817,1.163249751,16129,128,-279432,-20.15309097,11656.25,54272,128
-7.098715556,-98427,-7.783654664,-107924,1.15481152,16012,128,-279056,-20.12597324,11675.78125,54912,128
-7.163192292,-99321,-7.72148582,-107062,1.173274657,16268,128,-278827,-20.10945739,11695.3125,55552,128
-7.125616923,-98800,-7.756753296,-107551,1.174067995,16279,128,-278919,-20.11609258,11714.84375,56192,128
-7.126842991,-98817,-7.796131706,-108097,1.174644968,16287,128,-279024,-20.12366535,11734.375,56832,128
-7.205022836,-99901,-7.761369081,-107615,1.173491022,16271,128,-279016,-20.12308837,11753.90625,57472,128
-7.226082352,-100193,-7.780697677,-107883,1.171832224,16248,128,-279113,-20.13008417,11773.4375,58112,128
-7.098859799,-98429,-7.748315066,-107434,1.121779814,15554,128,-279003,-20.12215079,11792.96875,58752,128
-7.154609818,-99202,-7.754084796,-107514,1.144714492,15872,128,-279092,-20.12856962,11812.5,59392,128
-7.099076164,-98432,-7.723505226,-107090,1.163177629,16128,128,-278866,-20.11227013,11832.03125,60032,128
-7.123453274,-98770,-7.709946359,-106902,0.004543663,63,128,-278484,-20.08471967,11851.5625,60672,128
-7.09893192,-98430,-7.689752303,-106622,0.00223577,31,128,-278469,-20.08363784,11871.09375,61312,128
-7.380711124,-102337,-7.649075705,-106058,0.004399419,61,128,-277817,-20.03661454,11890.625,61952,128
-7.221538689,-100130,-7.633208946,-105838,0.036926274,512,128,-277961,-20.04700006,11910.15625,62592,128
-7.316018023,-101440,-7.6550618,-106141,0.045869356,636,128,-278247,-20.06762684,11929.6875,63232,128
-7.320128956,-101497,-7.647633272,-106038,0.032815341,455,128,-278572,-20.09106637,11949.21875,63872,128
-7.376744434,-102282,-7.690762006,-106636,1.180414698,16367,128,-279121,-20.13066115,11968.75,64512,128
-7.384172962,-102385,-7.68917533,-106614,1.112331881,15423,128,-279401,-20.1508552,11988.28125,65152,128
-7.09006096,-98307,-7.758412094,-107574,1.153729696,15997,128,-279639,-20.16802015,12007.8125,256,128
-7.089916717,-98305,-7.740021079,-107319,1.114711894,15456,128,-279652,-20.16895773,12027.34375,896,128
-7.099076164,-98432,-7.735982267,-107263,1.179332874,16352,128,-279413,-20.15172066,12046.875,1536,128
-7.147037047,-99097,-7.745790809,-107399,1.181568644,16383,128,-279466,-20.15554311,12066.40625,2176,128
-7.105278624,-98518,-7.714562144,-106966,1.167793413,16192,128,-279204,-20.13664724,12085.9375,2816,128
-7.122227206,-98753,-7.71261486,-106939,1.149258155,15935,128,-279170,-20.13419511,12105.46875,3456,128
-7.135497586,-98937,-7.742473214,-107353,1.179837725,16359,128,-278959,-20.11897744,12125,4096,128
-7.092080366,-98335,-7.751560539,-107479,1.174789211,16289,128,-279442,-20.15381219,12144.53125,4736,128
-7.090998541,-98320,-7.713840927,-106956,1.144065397,15863,128,-278851,-20.11118831,12164.0625,5376,128
-7.374220177,-102247,-7.669486126,-106341,0.004615784,64,128,-278206,-20.06466986,12183.59375,6016,128
-7.307940401,-101328,-7.629747108,-105790,0.017309191,240,128,-277995,-20.04945219,12203.125,6656,128
-7.385254787,-102400,-7.610851241,-105528,0.055028803,763,128,-277861,-20.03978789,12222.65625,7296,128
-7.359867973,-102048,-7.67677041,-106442,1.16764917,16190,128,-279129,-20.13123812,12242.1875,7936,128
-7.367296501,-102151,-7.65729757,-106172,1.122140422,15559,128,-279277,-20.14191212,12261.71875,8576,128
-7.37833111,-102304,-7.668187936,-106323,1.121563449,15551,128,-279494,-20.15756251,12281.25,9216,128
-7.10866834,-98565,-7.67763587,-106454,1.165413399,16159,128,-279319,-20.14494123,12300.78125,9856,128
-7.380711124,-102337,-7.689535938,-106619,1.180414698,16367,128,-279419,-20.15215339,12320.3125,10496,128
-7.092152487,-98336,-7.679078302,-106474,1.110023988,15391,128,-279300,-20.14357092,12339.84375,11136,128
-2.287337457,-31715,-6.986494301,-96871,1.412357856,19583,128,-276402,-19.93456244,12359.375,11776,128
-2.361550613,-32744,-7.309310712,-101347,0.182756207,2534,128,-278752,-20.10404826,12378.90625,12416,128
-7.371335312,-102207,-7.634146528,-105851,1.14464237,15871,128,-280072,-20.19924881,12398.4375,13056,128
-7.64489265,-106000,-7.658451516,-106188,1.106634272,15344,128,-279383,-20.14955701,12417.96875,13696,128
-7.091647636,-98329,-7.652826029,-106110,1.111105813,15406,128,-279129,-20.13123812,12437.5,14336,128
-7.346020621,-101856,-7.618856742,-105639,1.126179233,15615,128,-278802,-20.10765435,12457.03125,14976,128
-7.362464352,-102084,-7.594046902,-105295,1.153369087,15992,128,-278807,-20.10801495,12476.5625,15616,128
-7.607100917,-105476,-7.632776217,-105832,1.145291465,15880,128,-278871,-20.11263074,12496.09375,16256,128
-7.384677814,-102392,-7.584526847,-105163,0.004038811,56,128,-278458,-20.08284451,12515.625,16896,128
-7.260195882,-100666,-7.560221858,-104826,1.44E-04,2,128,-278246,-20.06755472,12535.15625,17536,128
-7.315945901,-101439,-7.499856055,-103989,0.039162044,543,128,-277536,-20.01634836,12554.6875,18176,128
-7.237477569,-100351,-7.493220865,-103897,0.073203453,1015,128,-277513,-20.01468957,12574.21875,18816,128
-7.099148285,-98433,-7.452472145,-103332,0.09123386,1265,128,-276724,-19.9577856,12593.75,19456,128
-7.229472068,-100240,-7.462569173,-103472,0.073780426,1023,128,-276439,-19.93723094,12613.28125,20096,128
-7.092080366,-98335,-7.38539903,-102402,0.293318664,4067,128,-275786,-19.89013551,12632.8125,20736,128
-4.722091522,-65474,-7.373931691,-102243,0.286106501,3967,128,-275819,-19.89251553,12652.34375,21376,128
-4.723101225,-65488,-7.395640301,-102544,0.223577049,3100,128,-276399,-19.93434607,12671.875,22016,128
-7.108451975,-98562,-7.459467943,-103429,0.072049507,999,128,-276519,-19.94300067,12691.40625,22656,128
-7.094244015,-98365,-7.434946589,-103089,0.12931408,1793,128,-276719,-19.95742499,12710.9375,23296,128
-7.093522798,-98355,-7.420594385,-102890,0.143594163,1991,128,-276666,-19.95360255,12730.46875,23936,128
-7.129295126,-98851,-7.425570777,-102959,0.145829933,2022,128,-276621,-19.95035707,12750,24576,128
-4.646435934,-64425,-7.421820452,-102907,0.222639468,3087,128,-276246,-19.92331146,12769.53125,25216,128
-7.105783475,-98525,-7.427301696,-102983,0.179871342,2494,128,-276022,-19.90715622,12789.0625,25856,128
-7.106071962,-98529,-7.43855267,-103139,0.222062495,3079,128,-276035,-19.9080938,12808.59375,26496,128
-7.096768272,-98400,-7.412084033,-102772,0.2214134,3070,128,-276026,-19.9074447,12828.125,27136,128
-7.103691948,-98496,-7.398453045,-102583,0.281130109,3898,128,-275662,-19.88119243,12847.65625,27776,128
-4.661869962,-64639,-7.409199167,-102732,0.221052792,3065,128,-275859,-19.89540039,12867.1875,28416,128
-7.215119864,-100041,-7.359363122,-102041,0.221485522,3071,128,-275601,-19.87679301,12886.71875,29056,128
-7.131386653,-98880,-7.351141256,-101927,0.29533807,4095,128,-274966,-19.83099578,12906.25,29696,128
-4.708172048,-65281,-7.309454955,-101349,0.521511498,7231,128,-274248,-19.77921245,12925.78125,30336,128
-4.72418305,-65503,-7.268129262,-100776,0.553605622,7676,128,-273818,-19.74820015,12945.3125,30976,128
-7.15915348,-99265,-7.329865376,-101632,0.459270532,6368,128,-274582,-19.80330107,12964.84375,31616,128
-7.093306433,-98352,-7.319479861,-101488,0.277524028,3848,128,-275445,-19.86554204,12984.375,32256,128
-7.089916717,-98305,-7.363906785,-102104,0.293895637,4075,128,-275736,-19.88652943,13003.90625,32896,128
-4.721947279,-65472,-7.323013821,-101537,0.212253953,2943,128,-275596,-19.8764324,13023.4375,33536,128
-7.108163489,-98558,-7.377754137,-102296,0.216941859,3008,128,-275842,-19.89417432,13042.96875,34176,128
-7.163480778,-99325,-7.337438147,-101737,0.294833218,4088,128,-275429,-19.86438809,13062.5,34816,128
-4.654946286,-64543,-6.87838398,-95372,1.324946442,18371,128,-273724,-19.74142072,13082.03125,35456,128
-2.08510841,-28911,-6.148152488,-85247,2.097801816,29087,128,-270160,-19.48437923,13101.5625,36096,128
-4.587007712,-63601,-7.134920613,-98929,0.183477424,2544,128,-275484,-19.86835478,13121.09375,36736,128
-7.091864001,-98332,-7.309743441,-101353,0.14878692,2063,128,-275263,-19.8524159,13140.625,37376,128
-4.72598609,-65528,-7.277288708,-100903,0.293174421,4065,128,-274847,-19.8224133,13160.15625,38016,128
-4.657109935,-64573,-7.270076545,-100803,0.265335472,3679,128,-274830,-19.82118724,13179.6875,38656,128
-7.125689045,-98801,-7.263513477,-100712,0.295265948,4094,128,-274626,-19.80647442,13199.21875,39296,128
-4.586286495,-63591,-7.25875345,-100646,0.293102299,4064,128,-274576,-19.80286834,13218.75,39936,128
-4.726563063,-65536,-7.221971419,-100136,0.291443502,4041,128,-274236,-19.77834699,13238.28125,40576,128
-4.67016395,-64754,-7.196945214,-99789,0.544806784,7554,128,-273928,-19.75613353,13257.8125,41216,128
-7.12547268,-98798,-7.146315831,-99087,0.583896707,8096,128,-273271,-19.70874962,13277.34375,41856,128
-4.597393226,-63745,-7.149561304,-99132,0.534204904,7407,128,-273206,-19.70406171,13296.875,42496,128
-4.50500542,-62464,-7.119919314,-98721,0.557067461,7724,128,-272479,-19.65162929,13316.40625,43136,128
-2.29058293,-31760,-7.042460685,-97647,0.58670945,8135,128,-272442,-19.64896079,13335.9375,43776,128
-2.361911221,-32749,-7.032147292,-97504,0.545167392,7559,128,-271781,-19.60128839,13355.46875,44416,128
-2.216009166,-30726,-6.970266935,-96646,0.515813889,7152,128,-271663,-19.59277804,13375,45056,128
-2.246805101,-31153,-7.022338751,-97368,0.5171842,7171,128,-272203,-19.63172372,13394.53125,45696,128
-2.356357855,-32672,-7.053206808,-97796,0.590748261,8191,128,-272414,-19.64694138,13414.0625,46336,128
-4.442836576,-61602,-7.102105272,-98474,0.590604018,8189,128,-272707,-19.66807302,13433.59375,46976,128
-2.361262126,-32740,-7.098499191,-98424,0.58050699,8049,128,-273079,-19.69490226,13453.125,47616,128
-4.431297115,-61442,-7.108019246,-98556,0.51761693,7177,128,-273237,-19.70629748,13472.65625,48256,128
-4.636555271,-64288,-7.133261816,-98906,0.574160287,7961,128,-272950,-19.68559857,13492.1875,48896,128
-4.587007712,-63601,-7.115519895,-98660,0.518049659,7183,128,-272915,-19.68307432,13511.71875,49536,128
-4.491158067,-62272,-7.125689045,-98801,0.586204599,8128,128,-272398,-19.64578744,13531.25,50176,128
-4.59710474,-63741,-7.11927022,-98712,0.589666437,8176,128,-272384,-19.64477773,13550.78125,50816,128
-4.50457269,-62458,-7.134560005,-98924,0.579280922,8032,128,-272536,-19.65574022,13570.3125,51456,128
-4.44038444,-61568,-7.11176957,-98608,0.57343907,7951,128,-272417,-19.64715775,13589.84375,52096,128
-4.606769038,-63875,-7.12150599,-98743,0.517112078,7170,128,-272378,-19.644345,13609.375,52736,128
-4.614702417,-63985,-7.102321637,-98477,0.452202612,6270,128,-271589,-19.58744104,13628.90625,53376,128
-2.354122085,-32641,-7.082199703,-98198,0.586204599,8128,128,-271024,-19.54669232,13648.4375,54016,128
-2.361117883,-32738,-7.020463588,-97342,0.534349148,7409,128,-270832,-19.53284496,13667.96875,54656,128
-2.356357855,-32672,-7.075852999,-98110,0.473117885,6560,128,-271584,-19.58708043,13687.5,55296,128
-4.433460764,-61472,-7.10289861,-98485,0.581588814,8064,128,-272460,-19.65025898,13707.03125,55936,128
-4.666774233,-64707,-7.10643257,-98534,0.58093972,8055,128,-272624,-19.66208692,13726.5625,56576,128
-4.450192982,-61704,-7.113500489,-98632,0.576684544,7996,128,-272848,-19.67824217,13746.09375,57216,128
-4.580661008,-63513,-7.13744487,-98964,0.590748261,8191,128,-272841,-19.67773732,13765.625,57856,128
-4.587007712,-63601,-7.134920613,-98929,0.590748261,8191,128,-272929,-19.68408402,13785.15625,58496,128
-2.335947434,-32389,-6.689353191,-92751,1.32884101,18425,128,-271174,-19.55751056,13804.6875,59136,128
-1.788688515,-24801,-6.070189008,-84166,1.181352279,16380,128,-267796,-19.3138837,13824.21875,59776,128
-2.27154282,-31496,-7.125184193,-98794,0.046085721,639,128,-273426,-19.71992847,13843.75,60416,128
-4.587007712,-63601,-7.114293827,-98643,0.544662541,7552,128,-273150,-19.7000229,13863.28125,61056,128
-4.471540984,-62000,-7.134848492,-98928,0.589882802,8179,128,-272925,-19.68379553,13882.8125,61696,128
-2.36277668,-32761,-7.132540599,-98896,0.556057758,7710,128,-272814,-19.67579003,13902.34375,62336,128
-4.431224994,-61441,-7.119919314,-98721,0.58981068,8178,128,-272654,-19.66425057,13921.875,62976,128
-4.578930089,-63489,-7.106071962,-98529,0.45119291,6256,128,-272419,-19.64730199,13941.40625,63616,128
-2.29058293,-31760,-7.037917022,-97584,0.463309343,6424,128,-272039,-19.61989577,13960.9375,64256,128
-2.288852011,-31736,-7.047509199,-97717,0.507664145,7039,128,-272151,-19.62797339,13980.46875,64896,128
-2.290005957,-31752,-7.035032157,-97544,0.469656047,6512,128,-272032,-19.61939092,14000,0,128
-2.363281532,-32768,-7.051475889,-97772,0.512424172,7105,128,-271624,-19.58996529,14019.53125,640,128
-2.348496598,-32563,-6.981085179,-96796,0.563630529,7815,128,-271163,-19.55671722,14039.0625,1280,128
-2.251420885,-31217,-6.975748178,-96722,0.552956528,7667,128,-270857,-19.53464801,14058.59375,1920,128
-2.325273433,-32241,-6.941851013,-96252,1.145002978,15876,128,-270587,-19.51517517,14078.125,2560,128
-2.345972341,-32528,-6.906078685,-95756,1.03393567,14336,128,-270266,-19.49202412,14097.65625,3200,128
-2.345251125,-32518,-6.922810903,-95988,0.585122774,8113,128,-270772,-19.52851767,14117.1875,3840,128
-2.22949591,-30913,-6.956131095,-96450,0.586565207,8133,128,-270963,-19.5422929,14136.71875,4480,128
-2.310127891,-32031,-7.017290237,-97298,0.518049659,7183,128,-271544,-19.58419556,14156.25,5120,128
-2.289501105,-31745,-7.016064169,-97281,0.508601726,7052,128,-271460,-19.57813735,14175.78125,5760,128
-2.284885321,-31681,-7.011736871,-97221,0.514587821,7135,128,-271394,-19.57337732,14195.3125,6400,128
-2.307819999,-31999,-6.999908924,-97057,0.588945221,8166,128,-271215,-19.56046755,14214.84375,7040,128
-2.362127586,-32752,-6.995870113,-97001,0.535142486,7420,128,-271108,-19.55275053,14234.375,7680,128
-2.344529908,-32508,-7.011592628,-97219,0.590387653,8186,128,-270767,-19.52815706,14253.90625,8320,128
-2.224735883,-30847,-6.965867515,-96585,1.035161738,14353,128,-270253,-19.49108654,14273.4375,8960,128
-2.33573107,-32386,-7.000053167,-97059,1.038479333,14399,128,-270299,-19.49440414,14292.96875,9600,128
-2.223870423,-30835,-6.959665055,-96499,0.574088165,7960,128,-270472,-19.50688118,14312.5,10240,128
-2.251709372,-31221,-6.967742678,-96611,0.588224004,8156,128,-270511,-19.50969392,14332.03125,10880,128
-2.326211015,-32254,-6.9731518,-96686,1.047566658,14525,128,-270147,-19.48344165,14351.5625,11520,128
-2.21665826,-30735,-6.947404378,-96329,1.151566047,15967,128,-269610,-19.44471233,14371.09375,12160,128
-2.231443194,-30940,-6.917618146,-95916,1.181568644,16383,128,-269282,-19.42105644,14390.625,12800,128
-2.331043164,-32321,-6.910622348,-95819,1.115937962,15473,128,-269211,-19.4159358,14410.15625,13440,128
-2.303564823,-31940,-6.975676057,-96721,1.041292076,14438,128,-270661,-19.52051217,14429.6875,14080,128
-2.253728778,-31249,-6.980508206,-96788,0.572717854,7941,128,-271267,-19.56421787,14449.21875,14720,128
-2.358521504,-32702,-6.984547017,-96844,0.525045457,7280,128,-271113,-19.55311114,14468.75,15360,128
-2.317195811,-32129,-6.961251731,-96521,0.517472686,7175,128,-271235,-19.56190998,14488.28125,16000,128
-2.224808004,-30848,-7.015703561,-97276,0.59024341,8184,128,-271015,-19.54604322,14507.8125,16640,128
-2.326427379,-32257,-7.020463588,-97342,0.552668041,7663,128,-270546,-19.51221818,14527.34375,17280,128
-1.616822674,-22418,-6.315979518,-87574,2.250194818,31200,128,-267803,-19.31438855,14546.875,17920,128
-1.773542973,-24591,-6.577348301,-91198,1.034440522,14343,128,-270793,-19.53003222,14566.40625,18560,128
-2.206128503,-30589,-6.932763688,-96126,0.480113683,6657,128,-271839,-19.60547144,14585.9375,19200,128
-2.324407974,-32229,-6.994139194,-96977,0.517039957,7169,128,-270866,-19.5352971,14605.46875,19840,128
-2.224303153,-30841,-6.969329353,-96633,0.576396057,7992,128,-270536,-19.51149696,14625,20480,128
-2.215864923,-30724,-6.932042471,-96116,0.588728856,8163,128,-270474,-19.50702542,14644.53125,21120,128
-2.139488118,-29665,-6.936009161,-96171,0.590748261,8191,128,-270466,-19.50644845,14664.0625,21760,128
-2.224808004,-30848,-6.947620743,-96332,0.585627626,8120,128,-270424,-19.50341934,14683.59375,22400,128
-2.358737869,-32705,-6.920142403,-95951,0.589305829,8171,128,-270442,-19.50471753,14703.125,23040,128
-2.217812206,-30751,-6.950289243,-96369,0.585627626,8120,128,-270408,-19.50226539,14722.65625,23680,128
-2.095349681,-29053,-6.904924739,-95740,0.581588814,8064,128,-270224,-19.48899501,14742.1875,24320,128
-2.179731986,-30223,-6.90629505,-95759,1.043455725,14468,128,-270171,-19.48517257,14761.71875,24960,128
-2.356357855,-32672,-6.853574139,-95028,1.107139123,15351,128,-269120,-19.40937274,14781.25,25600,128
-2.123260751,-29440,-6.848958355,-94964,1.123438611,15577,128,-268839,-19.38910656,14800.78125,26240,128
-2.076021084,-28785,-6.812248446,-94455,1.172409197,16256,128,-268518,-19.36595552,14820.3125,26880,128
-2.224808004,-30848,-6.802656269,-94322,1.177024982,16320,128,-268724,-19.38081257,14839.84375,27520,128
-2.247886926,-31168,-6.826744893,-94656,1.172192832,16253,128,-269187,-19.41420489,14859.375,28160,128
-2.143022077,-29714,-6.889562832,-95527,1.100576055,15260,128,-269818,-19.45971363,14878.90625,28800,128
-2.084603558,-28904,-6.901679266,-95695,1.034152035,14339,128,-269941,-19.46858459,14898.4375,29440,128
-2.199421191,-30496,-6.941634648,-96249,1.038262968,14396,128,-270080,-19.4786095,14917.96875,30080,128
-2.21088853,-30655,-6.927931539,-96059,1.046629077,14512,128,-269900,-19.46562761,14937.5,30720,128
-2.215071585,-30713,-6.923315754,-95995,1.034945373,14350,128,-269874,-19.46375244,14957.03125,31360,128
-2.238727479,-31041,-6.965795394,-96584,1.042662387,14457,128,-269701,-19.4512754,14976.5625,32000,128
-2.290005957,-31752,-6.947115892,-96325,1.098628771,15233,128,-269551,-19.44045716,14996.09375,32640,128
-2.216514017,-30733,-6.988585828,-96900,1.103100312,15295,128,-269621,-19.44550567,15015.625,33280,128
-2.362271829,-32754,-6.926272741,-96036,1.09855665,15232,128,-269405,-19.4299274,15035.15625,33920,128
-2.071910151,-28728,-6.953174109,-96409,1.163249751,16129,128,-269794,-19.45798271,15054.6875,34560,128
-2.220336463,-30786,-6.956563825,-96456,1.10742761,15355,128,-269381,-19.42819648,15074.21875,35200,128
-2.291159903,-31768,-6.951803798,-96390,1.171832224,16248,128,-268964,-19.39812176,15093.75,35840,128
-2.32866315,-32288,-6.909468402,-95803,1.037974481,14392,128,-268229,-19.34511236,15113.28125,36480,128
-2.141146915,-29688,-6.852564437,-95014,1.181063793,16376,128,-267672,-19.30494062,15132.8125,37120,128
-2.069746503,-28698,-6.851698977,-95002,1.034945373,14350,128,-268020,-19.33003894,15152.34375,37760,128
-2.071621665,-28724,-6.890500413,-95540,1.1450751,15877,128,-268747,-19.38247137,15171.875,38400,128
-2.354049963,-32640,-6.936874621,-96183,1.098484528,15231,128,-269623,-19.44564992,15191.40625,39040,128
-2.362199707,-32753,-6.958366866,-96481,1.107355488,15354,128,-269686,-19.45019358,15210.9375,39680,128
-2.210095192,-30644,-6.945024365,-96296,1.096320879,15201,128,-269704,-19.45149177,15230.46875,40320,128
-2.305223621,-31963,-6.902544725,-95707,1.110889448,15403,128,-269141,-19.41088729,15250,40960,128
-2.288347159,-31729,-6.995797991,-97000,1.17695286,16319,128,-268892,-19.392929,15269.53125,41600,128
-0.263099702,-3648,-5.875821218,-81471,2.307747878,31998,128,-264020,-19.04155243,15289.0625,42240,128
-1.698897087,-23556,-6.206210399,-86052,0.774369928,10737,128,-267437,-19.28799203,15308.59375,42880,128
-2.104797614,-29184,-6.903410185,-95719,0.294256245,4080,128,-269928,-19.46764701,15328.125,43520,128
-2.102561844,-29153,-6.900741685,-95682,1.111754908,15415,128,-269130,-19.41009395,15347.65625,44160,128
-2.215648558,-30721,-6.914805402,-95877,1.164259453,16143,128,-268887,-19.3925684,15367.1875,44800,128
-2.192569636,-30401,-6.920286646,-95953,1.163177629,16128,128,-268751,-19.38275986,15386.71875,45440,128
-2.361550613,-32744,-6.885163413,-95466,1.108293069,15367,128,-268917,-19.39473205,15406.25,46080,128
-2.198195123,-30479,-6.924325457,-96009,1.179332874,16352,128,-269242,-19.41817157,15425.78125,46720,128
-2.136963861,-29630,-6.928147903,-96062,1.174067995,16279,128,-269387,-19.42862921,15445.3125,47360,128
-2.354554815,-32647,-6.933412782,-96135,1.171255251,16240,128,-269504,-19.43706744,15464.84375,48000,128
-2.183265946,-30272,-6.913002361,-95852,1.163105507,16127,128,-269572,-19.44197171,15484.375,48640,128
-2.104292763,-29177,-6.88061975,-95403,1.172409197,16256,128,-269001,-19.40079026,15503.90625,49280,128
-2.140065091,-29673,-6.866772397,-95211,1.180558941,16369,128,-268587,-19.37093191,15523.4375,49920,128
-2.137180226,-29633,-6.816936352,-94520,1.172337076,16255,128,-267924,-19.32311527,15542.96875,50560,128
-2.06787134,-28672,-6.788376187,-94124,1.144426005,15868,128,-267984,-19.32744257,15562.5,51200,128
-2.252646953,-31234,-6.841601949,-94862,1.181352279,16380,128,-268316,-19.35138695,15582.03125,51840,128
-2.362199707,-32753,-6.83633707,-94789,1.144714492,15872,128,-268732,-19.38138954,15601.5625,52480,128
-2.361262126,-32740,-6.896270144,-95620,1.119255557,15519,128,-269123,-19.4095891,15621.09375,53120,128
-2.073713192,-28753,-6.837635259,-94807,1.103388799,15299,128,-269369,-19.42733102,15640.625,53760,128
-2.214710976,-30708,-6.876941547,-95352,1.089829932,15111,128,-269556,-19.44081777,15660.15625,54400,128
-2.143959659,-29727,-6.857180221,-95078,1.089325081,15104,128,-269424,-19.43129771,15679.6875,55040,128
-2.289501105,-31745,-6.886894332,-95490,1.102883947,15292,128,-269388,-19.42870133,15699.21875,55680,128
-2.289501105,-31745,-6.834389786,-94762,1.157696385,16052,128,-268961,-19.3979054,15718.75,56320,128
-2.344890516,-32513,-6.891870724,-95559,1.177890441,16332,128,-269092,-19.40735333,15738.28125,56960,128
-2.080636869,-28849,-6.844486814,-94902,1.114711894,15456,128,-268832,-19.38860171,15757.8125,57600,128
-2.274499807,-31537,-6.834894637,-94769,1.127838031,15638,128,-269034,-19.40317028,15777.34375,58240,128
-2.292025362,-31780,-6.880403385,-95400,1.166639467,16176,128,-269022,-19.40230482,15796.875,58880,128
-2.132564441,-29569,-6.876508817,-95346,1.167793413,16192,128,-269117,-19.40915637,15816.40625,59520,128
-2.344818395,-32512,-6.843044382,-94882,1.174212238,16281,128,-268901,-19.3935781,15835.9375,60160,128
-2.215648558,-30721,-6.832009772,-94729,1.181568644,16383,128,-268227,-19.34496812,15855.46875,60800,128
-1.813931085,-25151,-6.76637909,-93819,1.10786034,15361,128,-267871,-19.31929282,15875,61440,128
-2.039311175,-28276,-6.765874239,-93812,1.051893956,14585,128,-268079,-19.33429412,15894.53125,62080,128
-2.067943462,-28673,-6.87131606,-95274,1.088892351,15098,128,-269622,-19.44557779,15914.0625,62720,128
-2.213917639,-30697,-6.885235534,-95467,1.03393567,14336,128,-269821,-19.45993,15933.59375,63360,128
-2.290005957,-31752,-6.887327062,-95496,1.0343684,14342,128,-270130,-19.48221558,15953.125,64000,128
-2.215504314,-30719,-6.882639156,-95431,1.034152035,14339,128,-269966,-19.47038763,15972.65625,64640,128
-2.095926654,-29061,-6.900813806,-95683,1.070717701,14846,128,-270015,-19.47392159,15992.1875,65280,128
-2.068376192,-28679,-6.827826718,-94671,1.775850865,24623,128,-269969,-19.470604,16011.71875,384,128
-0.481051264,-6670,-5.811344482,-80577,2.35433845,32644,128,-265700,-19.16271677,16031.25,1024,128
-2.069674381,-28697,-6.800276256,-94289,0.595364046,8255,128,-269981,-19.47146946,16050.78125,1664,128
-2.243054777,-31101,-6.858839018,-95101,0.888466345,12319,128,-270273,-19.49252897,16070.3125,2304,128
-2.10948552,-29249,-6.910694469,-95820,1.051244861,14576,128,-270137,-19.48272043,16089.84375,2944,128
-2.234039573,-30976,-6.848525625,-94958,1.125241652,15602,128,-270094,-19.4796192,16109.375,3584,128
-2.214494612,-30705,-6.884514318,-95457,1.034152035,14339,128,-270181,-19.48589378,16128.90625,4224,128
-2.233318357,-30966,-6.861796005,-95142,0.582670639,8079,128,-270406,-19.50212115,16148.4375,4864,128
-2.123837724,-29448,-6.916896929,-95906,0.581011841,8056,128,-270680,-19.52188248,16167.96875,5504,128
-2.19805088,-30477,-6.871243938,-95273,0.590531896,8188,128,-270740,-19.52620977,16187.5,6144,128
-2.143887537,-29726,-6.87218152,-95286,0.586637328,8134,128,-270636,-19.51870913,16207.03125,6784,128
-2.204109097,-30561,-6.875354871,-95330,0.590099167,8182,128,-270652,-19.51986307,16226.5625,7424,128
-2.280558024,-31621,-6.834029178,-94757,1.111177935,15407,128,-270289,-19.49368292,16246.09375,8064,128
-2.072559246,-28737,-6.83633707,-94789,1.053480632,14607,128,-270039,-19.47565251,16265.625,8704,128
-2.049480325,-28417,-6.762268157,-93762,1.179837725,16359,128,-269753,-19.45502573,16285.15625,9344,128
-2.253151805,-31241,-6.80445931,-94347,1.098845136,15236,128,-269739,-19.45401602,16304.6875,9984,128
-2.048254257,-28400,-6.772509429,-93904,1.107788218,15360,128,-270072,-19.47803253,16324.21875,10624,128
-2.076886544,-28797,-6.839798908,-94837,0.588728856,8163,128,-270494,-19.50846785,16343.75,11264,128
-2.084026585,-28896,-6.828908542,-94686,0.558437772,7743,128,-270722,-19.52491159,16363.28125,11904,128
-2.129102603,-29521,-6.911271442,-95828,0.586204599,8128,128,-270971,-19.54286987,16382.8125,12544,128
-2.340130489,-32447,-6.917257538,-95911,0.588728856,8163,128,-271029,-19.54705293,16402.34375,13184,128
-2.322316447,-32200,-6.893529522,-95582,0.518987241,7196,128,-270948,-19.54121107,16421.875,13824,128
-2.142661469,-29709,-6.893168914,-95577,0.590099167,8182,128,-270604,-19.51640123,16441.40625,14464,128
-2.359819694,-32720,-6.924758187,-96015,0.589882802,8179,128,-270473,-19.5069533,16460.9375,15104,128
-2.083665977,-28891,-6.940769188,-96237,0.581156085,8058,128,-270403,-19.50190479,16480.46875,15744,128
-2.297578728,-31857,-6.904636252,-95736,1.115793719,15471,128,-270263,-19.49180776,16500,16384,128
-2.178938649,-30212,-6.905501712,-95748,0.58627672,8129,128,-270399,-19.5016163,16519.53125,17024,128
-2.36320941,-32767,-6.933701269,-96139,0.586637328,8134,128,-270386,-19.50067872,16539.0625,17664,128
-2.362704559,-32760,-6.932258836,-96119,0.586132477,8127,128,-270419,-19.50305873,16558.59375,18304,128
-2.197257542,-30466,-6.906511415,-95762,1.181568644,16383,128,-269461,-19.43396621,16578.125,18944,128
-2.171510121,-30109,-6.890284048,-95537,1.144714492,15872,128,-269172,-19.41312306,16597.65625,19584,128
-2.363281532,-32768,-6.940697067,-96236,1.107211245,15352,128,-269327,-19.42430191,16617.1875,20224,128
-2.13162686,-29556,-6.928796998,-96071,0.590748261,8191,128,-270407,-19.50219327,16636.71875,20864,128
-2.2848132,-31680,-6.992408275,-96953,0.573511192,7952,128,-271087,-19.55123598,16656.25,21504,128
-2.287193213,-31713,-6.98245549,-96815,0.51631874,7159,128,-271372,-19.57179064,16675.78125,22144,128
-2.291232025,-31769,-7.022555116,-97371,0.491292535,6812,128,-271692,-19.59486957,16695.3125,22784,128
-2.361117883,-32738,-6.995365261,-96994,0.555120177,7697,128,-271853,-19.60648115,16714.84375,23424,128
-4.731106726,-65599,-7.051692254,-97775,0.443115287,6144,128,-271923,-19.61152966,16734.375,24064,128
-1.796982503,-24916,-6.154282827,-85332,2.36320941,32767,128,-267459,-19.28957871,16753.90625,24704,128
-1.601749253,-22209,-6.330043236,-87769,0.922724119,12794,128,-268486,-19.36364762,16773.4375,25344,128
-2.107177628,-29217,-6.938966148,-96212,0.293607151,4071,128,-271658,-19.59241743,16792.96875,25984,128
-2.227476505,-30885,-6.972502705,-96677,0.479825196,6653,128,-271411,-19.57460339,16812.5,26624,128
-2.289573227,-31746,-6.977190611,-96742,0.515886011,7153,128,-271547,-19.58441193,16832.03125,27264,128
-2.307892121,-32000,-6.978416679,-96759,0.516607227,7163,128,-271405,-19.57417066,16851.5625,27904,128
-2.363281532,-32768,-6.988008855,-96892,0.516895713,7167,128,-271497,-19.58080585,16871.09375,28544,128
-2.363281532,-32768,-6.996302843,-97007,0.502904117,6973,128,-271755,-19.59941323,16890.625,29184,128
-2.326643744,-32260,-7.020896318,-97348,0.480257926,6659,128,-271869,-19.60763509,16910.15625,29824,128
-2.233606843,-30970,-7.011087777,-97212,0.471098479,6532,128,-272123,-19.62595399,16929.6875,30464,128
-2.327004352,-32265,-6.984474896,-96843,0.537666743,7455,128,-272097,-19.62407883,16949.21875,31104,128
-2.104581249,-29181,-6.940480702,-96233,0.546970433,7584,128,-271964,-19.61448665,16968.75,31744,128
-2.238078384,-31032,-6.967959043,-96614,0.516823592,7166,128,-271746,-19.59876413,16988.28125,32384,128
-2.363137288,-32766,-6.958727474,-96486,0.558437772,7743,128,-271252,-19.56313605,17007.8125,33024,128
-2.220047977,-30782,-6.950072879,-96366,0.589666437,8176,128,-271264,-19.56400151,17027.34375,33664,128
-2.328735272,-32289,-6.953751082,-96417,0.555048055,7696,128,-271309,-19.56724698,17046.875,34304,128
-2.215937044,-30725,-7.00769806,-97165,0.450038964,6240,128,-272028,-19.61910243,17066.40625,34944,128
-2.326571623,-32259,-7.025439981,-97411,0.444846206,6168,128,-272366,-19.64347954,17085.9375,35584,128
-2.349434179,-32576,-7.072896012,-98069,0.581733058,8066,128,-272678,-19.66598149,17105.46875,36224,128
-2.346909922,-32541,-7.075276026,-98102,0.576900909,7999,128,-272541,-19.65610083,17125,36864,128
-2.361622734,-32745,-7.051403767,-97771,0.557572312,7731,128,-272717,-19.66879423,17144.53125,37504,128
-2.362199707,-32753,-7.08299304,-98209,0.581588814,8064,128,-272751,-19.67124637,17164.0625,38144,128
-2.36277668,-32761,-7.075059661,-98099,0.586132477,8127,128,-272604,-19.66064449,17183.59375,38784,128
-4.136896627,-57360,-7.095542204,-98383,0.517256322,7172,128,-272252,-19.63525768,17203.125,39424,128
-2.352679652,-32621,-7.042316442,-97645,0.561322637,7783,128,-272154,-19.62818976,17222.65625,40064,128
-2.292385971,-31785,-7.042027955,-97641,0.523963633,7265,128,-272061,-19.62148245,17242.1875,40704,128
-2.358665747,-32704,-7.084074865,-98224,0.47023302,6520,128,-272016,-19.61823697,17261.71875,41344,128
-2.308324851,-32006,-7.034887914,-97542,0.535430972,7424,128,-272039,-19.61989577,17281.25,41984,128
-2.354122085,-32641,-7.041234617,-97630,0.524035755,7266,128,-271344,-19.56977124,17300.78125,42624,128
-2.354122085,-32641,-6.999908924,-97057,0.524035755,7266,128,-270819,-19.53190738,17320.3125,43264,128
-1.181640766,-16384,-7.0014956,-97079,0.144171136,1999,128,-270592,-19.51553577,17339.84375,43904,0
-2.298660552,-31872,-6.942283743,-96258,0.590315532,8185,128,-270272,-19.49245685,17359.375,44544,128
-2.307387269,-31993,-7.045273429,-97686,0.514587821,7135,128,-271561,-19.58542163,17378.90625,45184,128
-2.326427379,-32257,-7.033733968,-97526,0.55439896,7687,128,-271730,-19.59761019,17398.4375,45824,128
-2.354122085,-32641,-7.015415074,-97272,0.525910917,7292,128,-271887,-19.60893328,17417.96875,46464,128
-2.358737869,-32705,-7.035897617,-97556,0.470737871,6527,128,-271992,-19.61650605,17437.5,47104,128
-2.353977842,-32639,-7.050971037,-97765,0.49857682,6913,128,-271886,-19.60886116,17457.03125,47744,128
-2.361262126,-32740,-7.018516304,-97315,0.553821987,7679,128,-271784,-19.60150476,17476.5625,48384,128
-2.36277668,-32761,-6.130771176,-85006,1.772244784,24573,128,-266700,-19.23483839,17496.09375,49024,128
-2.293972646,-31807,-6.81022904,-94427,0.608922912,8443,128,-272026,-19.61895819,17515.625,49664,128
-2.305872715,-31972,-7.0528462,-97791,0.352963251,4894,128,-272401,-19.6460038,17535.15625,50304,128
-2.344818395,-32512,-7.066982039,-97987,0.479608831,6650,128,-271785,-19.60157688,17554.6875,50944,128
-2.344241422,-32504,-7.037412171,-97577,0.516679349,7164,128,-271791,-19.60200961,17574.21875,51584,128
-2.36277668,-32761,-7.078882108,-98152,0.480041561,6656,128,-271858,-19.60684176,17593.75,52224,128
-2.36277668,-32761,-7.07058812,-98037,0.516679349,7164,128,-271761,-19.59984596,17613.28125,52864,128
-2.306882418,-31986,-7.087536703,-98272,0.489056765,6781,128,-271990,-19.61636181,17632.8125,53504,128
-2.36320941,-32767,-7.112562908,-98619,0.449750477,6236,128,-272168,-19.62919946,17652.34375,54144,128
-4.578930089,-63489,-7.083786378,-98220,0.519275727,7200,128,-272412,-19.64679714,17671.875,54784,128
-2.358737869,-32705,-7.096479785,-98396,0.586204599,8128,128,-272256,-19.63554616,17691.40625,55424,128
-2.34993903,-32583,-7.060563214,-97898,0.525910917,7292,128,-272009,-19.61773212,17710.9375,56064,128
-2.335658948,-32385,-7.064529903,-97953,0.514732065,7137,128,-271869,-19.60763509,17730.46875,56704,128
-2.278971348,-31599,-7.029695157,-97470,0.581444571,8062,128,-271466,-19.57857008,17750,57344,128
-2.215648558,-30721,-7.023132089,-97379,0.516030254,7155,128,-271379,-19.5722955,17769.53125,57984,128
-2.294044768,-31808,-7.050682551,-97761,0.47996944,6655,128,-271838,-19.60539932,17789.0625,58624,128
-2.348352355,-32561,-7.053855902,-97805,0.47996944,6655,128,-272222,-19.63309403,17808.59375,59264,128
-2.32866315,-32288,-7.094748866,-98372,0.590748261,8191,128,-272637,-19.6630245,17828.125,59904,128
-2.359386964,-32714,-7.111481084,-98604,0.58937795,8172,128,-272707,-19.66807302,17847.65625,60544,128
-4.583473752,-63552,-7.120712652,-98732,0.563053556,7807,128,-272836,-19.67737671,17867.1875,61184,128
-2.363281532,-32768,-7.117467179,-98687,0.565505691,7841,128,-272901,-19.68206461,17886.71875,61824,128
-4.615784242,-64000,-7.150138277,-99140,0.588440369,8159,128,-272929,-19.68408402,17906.25,62464,128
-4.615207269,-63992,-7.129944221,-98860,0.58937795,8172,128,-272829,-19.67687186,17925.78125,63104,128
-4.466997321,-61937,-7.185766361,-99634,0.572429368,7937,128,-272445,-19.64917715,17945.3125,63744,128
-4.615423634,-63995,-7.15028252,-99142,0.581733058,8066,128,-272521,-19.6546584,17964.84375,64384,128
-4.587007712,-63601,-7.131963626,-98888,0.459703262,6374,128,-272422,-19.64751835,17984.375,65024,128
-4.431297115,-61442,-7.151869196,-99164,0.450255328,6243,128,-272375,-19.64412864,18003.90625,128,128
-4.607634498,-63887,-7.107009543,-98542,0.525045457,7280,128,-272201,-19.63157947,18023.4375,768,128
-4.431224994,-61441,-7.138743059,-98982,0.446288639,6188,128,-272216,-19.6326613,18042.96875,1408,128
-4.446154171,-61648,-7.124679342,-98787,0.516967835,7168,128,-272141,-19.62725218,18062.5,2048,128
-4.449111158,-61689,-7.105494989,-98521,0.576035449,7987,128,-271156,-19.55621237,18082.03125,2688,128
-2.354266328,-32643,-7.037556414,-97579,0.581588814,8064,128,-270564,-19.51351637,18101.5625,3328,128
-2.326499501,-32258,-7.046715861,-97706,0.586204599,8128,128,-270534,-19.51135272,18121.09375,3968,128
-2.362343951,-32755,-7.111048354,-98598,0.516967835,7168,128,-271848,-19.60612054,18140.625,4608,128
-4.448678428,-61683,-7.140041249,-99000,0.471963939,6544,128,-272145,-19.62754066,18160.15625,5248,128
-4.438076548,-61536,-7.130160586,-98863,0.44325953,6146,128,-272381,-19.64456137,18179.6875,5888,128
-4.610879971,-63932,-7.131891505,-98887,0.443548017,6150,128,-272224,-19.63323827,18199.21875,6528,128
-4.579002211,-63490,-7.135136978,-98932,0.44369226,6152,128,-272056,-19.62112184,18218.75,7168,128
-4.570780345,-63376,-7.082920919,-98208,0.581660936,8065,128,-271401,-19.57388217,18238.28125,7808,128
-2.234183816,-30978,-5.991287946,-83072,2.224735883,30847,128,-266345,-19.20923522,18257.8125,8448,128
-1.777076933,-24640,-6.932619444,-96124,0.118856444,1648,128,-272976,-19.68747374,18277.34375,9088,128
-4.597321105,-63744,-7.108451975,-98562,0.330605546,4584,128,-272566,-19.65790387,18296.875,9728,128
-4.440456562,-61569,-7.146387952,-99088,0.475714263,6596,128,-271886,-19.60886116,18316.40625,10368,128
-4.578930089,-63489,-7.136218802,-98947,0.460424478,6384,128,-271708,-19.59602351,18335.9375,11008,128
-4.486542283,-62208,-7.142853992,-99039,0.480041561,6656,128,-271736,-19.59804292,18355.46875,11648,128
-4.578930089,-63489,-7.104124678,-98502,0.554903812,7694,128,-271710,-19.59616775,18375,12288,128
-4.43814867,-61537,-7.123020544,-98764,0.507808388,7041,128,-271589,-19.58744104,18394.53125,12928,128
-4.468007024,-61951,-7.116313233,-98671,0.478887615,6640,128,-271641,-19.59119136,18414.0625,13568,128
-4.583329509,-63550,-7.125544801,-98799,0.472540912,6552,128,-271754,-19.59934111,18433.59375,14208,128
-4.434037737,-61480,-7.091791879,-98331,0.590748261,8191,128,-271287,-19.56566031,18453.125,14848,128
-2.358809991,-32706,-7.044624334,-97677,0.588007639,8153,128,-271032,-19.54726929,18472.65625,15488,128
-2.349434179,-32576,-6.993273734,-96965,0.581588814,8064,128,-270299,-19.49440414,18492.1875,16128,128
-2.358882112,-32707,-6.95411169,-96422,1.109879745,15389,128,-269756,-19.45524209,18511.71875,16768,128
-2.363281532,-32768,-6.923459998,-95997,1.144786614,15873,128,-269665,-19.44867902,18531.25,17408,128
-2.363281532,-32768,-6.961468096,-96524,1.098628771,15233,128,-269559,-19.44103413,18550.78125,18048,128
-2.349145692,-32572,-6.961323853,-96522,1.041364198,14439,128,-270072,-19.47803253,18570.3125,18688,128
-2.273273739,-31520,-6.963271137,-96549,0.58627672,8129,128,-270204,-19.48755258,18589.84375,19328,128
-2.326715866,-32261,-7.011808993,-97222,0.582454274,8076,128,-270859,-19.53479225,18609.375,19968,128
-2.289789592,-31749,-6.998754978,-97041,0.589594315,8175,128,-271007,-19.54546625,18628.90625,20608,128
-2.361117883,-32738,-7.083137284,-98211,0.516967835,7168,128,-271257,-19.56349666,18648.4375,21248,128
-4.44038444,-61568,-7.096335542,-98394,0.571780273,7928,128,-271144,-19.55534691,18667.96875,21888,128
-2.361117883,-32738,-7.099581015,-98439,0.55793292,7736,128,-270917,-19.5389753,18687.5,22528,128
-4.587584685,-63609,-7.117034449,-98681,0.530743066,7359,128,-270929,-19.53984076,18707.03125,23168,128
-4.476877985,-62074,-7.114149584,-98641,0.559591718,7759,128,-270791,-19.52988798,18726.5625,23808,128
-4.44038444,-61568,-7.099941623,-98444,0.582670639,8079,128,-270846,-19.53385467,18746.09375,24448,128
-4.431657723,-61447,-7.117106571,-98682,0.581300328,8060,128,-271086,-19.55116386,18765.625,25088,128
-4.449111158,-61689,-7.110543503,-98591,0.588728856,8163,128,-270944,-19.54092259,18785.15625,25728,128
-4.431874088,-61450,-7.123092666,-98765,0.526415768,7299,128,-271054,-19.54885597,18804.6875,26368,128
-2.353833598,-32637,-7.099076164,-98432,0.589738558,8177,128,-271266,-19.56414575,18824.21875,27008,128
-4.597321105,-63744,-7.102826488,-98484,0.58317549,8086,128,-271082,-19.55087537,18843.75,27648,128
-2.356357855,-32672,-7.092873704,-98346,0.572357246,7936,128,-270201,-19.48733622,18863.28125,28288,128
-2.294044768,-31808,-7.01433325,-97257,1.129713193,15664,128,-269745,-19.45444875,18882.8125,28928,128
-2.360613031,-32731,-7.011015655,-97211,1.089325081,15104,128,-270068,-19.47774404,18902.34375,29568,128
-2.362127586,-32752,-7.068424471,-98007,0.584401558,8103,128,-270671,-19.52123338,18921.875,30208,128
-2.363281532,-32768,-7.103042853,-98487,0.553749866,7678,128,-271079,-19.55065901,18941.40625,30848,128
-2.36277668,-32761,-7.073256621,-98074,0.583824585,8095,128,-271107,-19.55267841,18960.9375,31488,128
-2.360901518,-32735,-7.087320338,-98269,0.558221407,7740,128,-270812,-19.53140253,18980.46875,32128,128
-2.307892121,-32000,-7.091214906,-98323,0.590531896,8188,128,-270763,-19.52786857,19000,32768,128
-2.362199707,-32753,-7.068135985,-98003,1.777004811,24639,128,-270240,-19.49014896,19019.53125,33408,128
-1.182217739,-16392,-5.847188931,-81074,2.100253952,29121,128,-265265,-19.13134386,19039.0625,34048,128
-2.291232025,-31769,-6.878816709,-95378,0.683352433,9475,128,-270641,-19.51906973,19058.59375,34688,128
-2.363281532,-32768,-7.102105272,-98474,0.57343907,7951,128,-270988,-19.54409594,19078.125,35328,128
-2.361117883,-32738,-7.089700352,-98302,0.562909313,7805,128,-270567,-19.51373273,19097.65625,35968,128
-2.335081975,-32377,-7.104413164,-98506,0.590099167,8182,128,-270736,-19.52592129,19117.1875,36608,128
-4.150743979,-57552,-7.082416067,-98201,0.590748261,8191,128,-270491,-19.50825149,19136.71875,37248,128
-2.290005957,-31752,-7.03604186,-97558,0.589017342,8167,128,-270427,-19.5036357,19156.25,37888,128
-2.343231719,-32490,-7.103042853,-98487,0.590459775,8187,128,-270579,-19.51459819,19175.78125,38528,128
-2.326427379,-32257,-7.053278929,-97797,0.571780273,7928,128,-270632,-19.51842064,19195.3125,39168,128
-2.293467795,-31800,-7.056885011,-97847,0.590748261,8191,128,-270559,-19.51315576,19214.84375,39808,128
-2.354122085,-32641,-7.028901819,-97459,0.58670945,8135,128,-270481,-19.50753027,19234.375,40448,128
-2.291664754,-31775,-7.019598129,-97330,0.590748261,8191,128,-270276,-19.49274534,19253.90625,41088,128
-2.288924132,-31737,-6.994139194,-96977,1.11586584,15472,128,-269969,-19.470604,19273.4375,41728,128
-2.215648558,-30721,-6.953967447,-96420,1.163466115,16132,128,-269459,-19.43382197,19292.96875,42368,128
-2.326427379,-32257,-6.923892727,-96003,1.161374588,16103,128,-269477,-19.43512016,19312.5,43008,128
-2.362199707,-32753,-6.941057675,-96241,1.165197035,16156,128,-269540,-19.43966382,19332.03125,43648,128
-2.216153409,-30728,-6.967814799,-96612,1.063866146,14751,128,-269933,-19.46800762,19351.5625,44288,128
-2.362848802,-32762,-6.955698366,-96444,1.107788218,15360,128,-270113,-19.48098951,19371.09375,44928,128
-2.288924132,-31737,-6.992696761,-96957,0.590748261,8191,128,-270311,-19.4952696,19390.625,45568,128
-2.340058367,-32446,-7.01656902,-97288,1.034007792,14337,128,-270291,-19.49382716,19410.15625,46208,128
-2.215864923,-30724,-7.000990749,-97072,1.047783023,14528,128,-270207,-19.48776895,19429.6875,46848,128
-2.355925126,-32666,-7.005678654,-97137,1.040787225,14431,128,-269817,-19.45964151,19449.21875,47488,128
-2.345539611,-32522,-6.999548316,-97052,1.148536938,15925,128,-269707,-19.45170813,19468.75,48128,128
-2.292097484,-31781,-6.992336153,-96952,1.107716096,15359,128,-269396,-19.42927831,19488.28125,48768,128
-2.363281532,-32768,-7.006760479,-97152,1.106706394,15345,128,-269453,-19.43338924,19507.8125,49408,128
-2.29765085,-31858,-7.005678654,-97137,1.102018488,15280,128,-269426,-19.43144195,19527.34375,50048,128
-2.347126287,-32544,-7.006255627,-97145,1.098412406,15230,128,-269592,-19.44341414,19546.875,50688,128
-2.362632437,-32759,-6.958222623,-96479,1.163177629,16128,128,-269365,-19.42704254,19566.40625,51328,128
-2.354122085,-32641,-6.976830003,-96737,1.107643975,15358,128,-269418,-19.43086498,19585.9375,51968,128
-2.248175412,-31172,-6.965795394,-96584,1.17695286,16319,128,-269389,-19.42877345,19605.46875,52608,128
-2.216153409,-30728,-6.94834196,-96342,1.181568644,16383,128,-268275,-19.34842996,19625,53248,128
-2.363065167,-32765,-6.934710972,-96153,1.14464237,15871,128,-267801,-19.31424431,19644.53125,53888,128
-2.21132126,-30661,-6.882422791,-95428,1.116010084,15474,128,-267916,-19.3225383,19664.0625,54528,128
-2.294189011,-31810,-6.956275339,-96452,1.181568644,16383,128,-268612,-19.37273495,19683.59375,55168,128
-2.22019222,-30784,-6.948846811,-96349,1.144714492,15872,128,-269216,-19.41629641,19703.125,55808,128
-2.357583923,-32689,-6.953967447,-96420,1.107499731,15356,128,-269419,-19.4309371,19722.65625,56448,128
-2.363281532,-32768,-6.974666354,-96707,1.102883947,15292,128,-269512,-19.43764441,19742.1875,57088,128
-2.253656656,-31248,-6.989595531,-96914,1.105408204,15327,128,-269584,-19.44283717,19761.71875,57728,128
-2.354626936,-32648,-7.027964238,-97446,1.168875238,16207,128,-269489,-19.43598562,19781.25,58368,128
-1.627063945,-22560,-5.853535635,-81162,2.354266328,32643,128,-263599,-19.01118922,19800.78125,59008,128
-2.030584458,-28155,-6.740992277,-93467,0.708595003,9825,128,-269079,-19.40641575,19820.3125,59648,128
-2.287337457,-31715,-7.024574521,-97399,0.895462143,12416,128,-270136,-19.48264831,19839.84375,60288,128
-2.287986551,-31724,-7.056885011,-97847,0.922075024,12785,128,-269859,-19.46267062,19859.375,60928,128
-2.363281532,-32768,-7.06395293,-97945,1.042878752,14460,128,-269777,-19.45675665,19878.90625,61568,128
-2.292169606,-31782,-7.02673817,-97429,1.087233554,15075,128,-269856,-19.46245425,19898.4375,62208,128
-2.351814193,-32609,-7.05775047,-97859,1.034007792,14337,128,-269949,-19.46916157,19917.96875,62848,128
-2.363281532,-32768,-7.056019551,-97835,1.087017189,15072,128,-270158,-19.48423499,19937.5,63488,128
-2.346621435,-32537,-7.054288632,-97811,1.043599968,14470,128,-270186,-19.48625439,19957.03125,64128,128
-2.289573227,-31746,-7.039287333,-97603,1.063866146,14751,128,-270286,-19.49346656,19976.5625,64768,128
-2.304502404,-31953,-7.031209711,-97491,1.03393567,14336,128,-270173,-19.48531681,19996.09375,65408,128
-2.21795645,-30753,-7.034815792,-97541,1.070284971,14840,128,-269750,-19.45480936,20015.625,512,128
-2.362848802,-32762,-7.024358156,-97396,1.098773014,15235,128,-269562,-19.4412505,20035.15625,1152,128
-2.22149041,-30802,-6.98512399,-96852,1.107283367,15353,128,-269343,-19.42545586,20054.6875,1792,128
-2.275437388,-31550,-6.977046368,-96740,1.108870042,15375,128,-269437,-19.43223529,20074.21875,2432,128
-2.328158299,-32281,-6.989739774,-96916,1.099638474,15247,128,-269509,-19.43742805,20093.75,3072,128
-2.288924132,-31737,-7.020463588,-97342,1.089325081,15104,128,-270216,-19.48841804,20113.28125,3712,128
-2.362704559,-32760,-7.022266629,-97367,1.043095117,14463,128,-270233,-19.48964411,20132.8125,4352,128
-2.343664449,-32496,-7.084363351,-98228,0.568751165,7886,128,-270906,-19.53818197,20152.34375,4992,128
-2.344890516,-32513,-7.071814188,-98054,0.586204599,8128,128,-270892,-19.53717226,20171.875,5632,128
-2.35614149,-32669,-7.123236909,-98767,0.59024341,8184,128,-270861,-19.53493649,20191.40625,6272,128
-4.464040335,-61896,-7.074266323,-98088,0.555625028,7704,128,-270760,-19.52765221,20210.9375,6912,128
-2.348352355,-32561,-7.074915418,-98097,0.567813583,7873,128,-270651,-19.51979095,20230.46875,7552,128
-4.155143399,-57613,-7.103836191,-98498,0.588512491,8160,128,-270718,-19.5246231,20250,8192,128
-4.431729845,-61448,-7.090349447,-98311,0.590531896,8188,128,-270587,-19.51517517,20269.53125,8832,128
-2.349794787,-32581,-7.088762771,-98289,0.522088471,7239,128,-271031,-19.54719717,20289.0625,9472,128
-2.307675756,-31997,-7.052485591,-97786,0.517039957,7169,128,-270987,-19.54402382,20308.59375,10112,128
-4.432306818,-61456,-7.098643434,-98426,0.58714218,8141,128,-271254,-19.56328029,20328.125,10752,128
-4.579434941,-63496,-7.057389862,-97854,0.526127282,7295,128,-271311,-19.56739122,20347.65625,11392,128
-2.313661851,-32080,-7.041018252,-97627,0.582310031,8074,128,-271190,-19.55866451,20367.1875,12032,128
-4.447163874,-61662,-7.050971037,-97765,0.517761173,7179,128,-270555,-19.51286727,20386.71875,12672,128
-2.362993045,-32764,-7.015126588,-97268,1.11586584,15472,128,-270237,-19.4899326,20406.25,13312,128
-2.251997859,-31225,-7.000269532,-97062,0.582093666,8071,128,-270846,-19.53385467,20425.78125,13952,128
-2.361478491,-32743,-7.051692254,-97775,0.484513102,6718,128,-271622,-19.58982105,20445.3125,14592,128
-4.582391928,-63537,-7.077079067,-98127,0.443620139,6151,128,-272135,-19.62681945,20464.84375,15232,128
-2.345106881,-32516,-7.073400864,-98076,0.460640843,6387,128,-272141,-19.62725218,20484.375,15872,128
-2.361045761,-32737,-7.046571618,-97704,0.534781877,7415,128,-271994,-19.6166503,20503.90625,16512,128
-4.136031167,-57348,-7.07722331,-98129,0.45696264,6336,128,-272024,-19.61881395,20523.4375,17152,128
-4.722091522,-65474,-7.142637627,-99036,0.581660936,8065,128,-271695,-19.59508593,20542.96875,17792,128
-1.62374635,-22514,-5.808387495,-80536,2.362199707,32753,128,-265431,-19.14331605,20562.5,18432,128
-2.327509204,-32272,-6.769985172,-93869,0.025314692,351,128,-272546,-19.65646144,20582.03125,19072,128
-4.504789055,-62461,-7.092368852,-98339,0.378205821,5244,128,-272553,-19.65696629,20601.5625,19712,128
-4.503995717,-62450,-7.1432146,-99044,0.590748261,8191,128,-272389,-19.64513834,20621.09375,20352,128
-4.709253873,-65296,-7.124967828,-98791,0.455808694,6320,128,-271979,-19.61556847,20640.625,20992,128
-4.591623496,-63665,-7.12107326,-98737,0.535286729,7422,128,-272142,-19.6273243,20660.15625,21632,128
-4.475435552,-62054,-7.134704248,-98926,0.44765895,6207,128,-272072,-19.62227578,20679.6875,22272,128
-4.476012525,-62062,-7.148984331,-99124,0.448668653,6221,128,-272156,-19.628334,20699.21875,22912,128
-4.504789055,-62461,-7.158288021,-99253,0.445278936,6174,128,-272264,-19.63612314,20718.75,23552,128
-4.468151268,-61953,-7.126121774,-98807,0.447442585,6204,128,-272234,-19.63395949,20738.28125,24192,128
-4.433965616,-61479,-7.116313233,-98671,0.447154098,6200,128,-272279,-19.63720496,20757.8125,24832,128
-4.606624795,-63873,-7.078305135,-98144,0.463309343,6424,128,-271608,-19.58881135,20777.34375,25472,128
-2.33573107,-32386,-7.064313539,-97950,0.508890213,7056,128,-271599,-19.58816225,20796.875,26112,128
-2.358737869,-32705,-7.030488495,-97481,0.517544808,7176,128,-271096,-19.55188507,20816.40625,26752,128
-2.363065167,-32765,-7.038133387,-97587,0.581588814,8064,128,-270452,-19.50543875,20835.9375,27392,128
-2.293756282,-31804,-7.02320421,-97380,0.557283826,7727,128,-270801,-19.53060919,20855.46875,28032,128
-2.292313849,-31784,-7.066982039,-97987,0.588728856,8163,128,-271186,-19.55837602,20875,28672,128
-2.326427379,-32257,-7.063087471,-97933,0.554759569,7692,128,-271220,-19.56082816,20894.53125,29312,128
-2.354122085,-32641,-7.100807083,-98456,0.478743372,6638,128,-271449,-19.57734401,20914.0625,29952,128
-2.344962638,-32514,-7.07989181,-98166,0.515958132,7154,128,-271502,-19.58116646,20933.59375,30592,128
-4.615351512,-63994,-7.097994339,-98417,0.475425777,6592,128,-271294,-19.56616516,20953.125,31232,128
-2.353833598,-32637,-7.07989181,-98166,0.518698754,7192,128,-271334,-19.56905002,20972.65625,31872,128
-2.348280233,-32560,-7.079386959,-98159,0.572357246,7936,128,-271032,-19.54726929,20992.1875,32512,128
-2.363281532,-32768,-7.108812584,-98567,0.581444571,8062,128,-270650,-19.51971883,21011.71875,33152,128
-2.358737869,-32705,-7.085517297,-98244,0.588728856,8163,128,-270877,-19.53609044,21031.25,33792,128
-2.363281532,-32768,-7.101528299,-98466,0.570265719,7907,128,-270826,-19.53241223,21050.78125,34432,128
-2.358954234,-32708,-7.062438376,-97924,0.581805179,8067,128,-270961,-19.54214865,21070.3125,35072,128
-2.360901518,-32735,-7.105855597,-98526,0.583824585,8095,128,-271178,-19.55779905,21089.84375,35712,128
-2.359314842,-32713,-7.059337146,-97881,0.576900909,7999,128,-271043,-19.54806263,21109.375,36352,128
-2.345106881,-32516,-7.03560913,-97552,0.590748261,8191,128,-271046,-19.54827899,21128.90625,36992,128
-2.326715866,-32261,-7.038061266,-97586,0.589017342,8167,128,-270229,-19.48935562,21148.4375,37632,128
-2.278033767,-31586,-7.00459683,-97122,1.181352279,16380,128,-269592,-19.44341414,21167.96875,38272,128
-2.343952935,-32500,-7.005534411,-97135,1.145724195,15886,128,-269923,-19.4672864,21187.5,38912,128
-2.299237525,-31880,-7.026954535,-97432,0.59067614,8190,128,-270690,-19.52260369,21207.03125,39552,128
-2.334721367,-32372,-7.070515999,-98036,0.589594315,8175,128,-271318,-19.56789608,21226.5625,40192,128
-2.348424476,-32562,-7.080036054,-98168,0.507808388,7041,128,-271439,-19.57662279,21246.09375,40832,128
-2.363281532,-32768,-7.092585217,-98342,0.581516693,8063,128,-271325,-19.56840093,21265.625,41472,128
-2.325778285,-32248,-7.052341348,-97784,0.586204599,8128,128,-271144,-19.55534691,21285.15625,42112,128
-4.581526468,-63525,-7.106937421,-98541,0.588512491,8160,128,-270491,-19.50825149,21304.6875,42752,128
-1.839173655,-25501,-5.927243939,-82184,2.181246541,30244,128,-265607,-19.15600945,21324.21875,43392,128
-2.348857206,-32568,-6.489215671,-89976,0.595941019,8263,128,-269729,-19.45329481,21343.75,44032,128
-2.361478491,-32743,-7.062871106,-97930,0.443403774,6148,128,-271846,-19.6059763,21363.28125,44672,128
-4.435263805,-61497,-7.093522798,-98355,0.514659943,7136,128,-271456,-19.57784886,21382.8125,45312,128
-4.431224994,-61441,-7.10376407,-98497,0.507592023,7038,128,-271546,-19.58433981,21402.34375,45952,128
-4.144974249,-57472,-7.098859799,-98429,0.511775078,7096,128,-271447,-19.57719977,21421.875,46592,128
-4.431297115,-61442,-7.129799978,-98858,0.51675147,7165,128,-271391,-19.57316096,21441.40625,47232,128
-2.327509204,-32272,-7.060995944,-97904,0.588584612,8161,128,-271389,-19.57301671,21460.9375,47872,128
-4.599628997,-63776,-7.112562908,-98619,0.512856902,7111,128,-271457,-19.57792098,21480.46875,48512,128
-4.449543887,-61695,-7.071669945,-98052,0.516390862,7160,128,-271227,-19.56133301,21500,49152,128
-4.431297115,-61442,-7.110615624,-98592,0.513145389,7115,128,-271478,-19.57943554,21519.53125,49792,128
-2.36320941,-32767,-7.075492391,-98105,0.516967835,7168,128,-271121,-19.55368812,21539.0625,50432,128
-2.326643744,-32260,-7.058976538,-97876,0.562548704,7800,128,-270744,-19.52649826,21558.59375,51072,128
-2.29368416,-31803,-7.004380465,-97119,0.590531896,8188,128,-270412,-19.50255388,21578.125,51712,128
-2.326427379,-32257,-7.016713264,-97290,1.108797921,15374,128,-270166,-19.48481196,21597.65625,52352,128
-2.36277668,-32761,-7.029983643,-97474,0.572934219,7944,128,-270552,-19.51265091,21617.1875,52992,128
-2.291736876,-31776,-7.008347155,-97174,0.590748261,8191,128,-270696,-19.52303642,21636.71875,53632,128
-2.298804796,-31874,-7.044552212,-97676,0.572862097,7943,128,-270977,-19.5433026,21656.25,54272,128
-2.362993045,-32764,-7.039359455,-97604,0.572862097,7943,128,-271082,-19.55087537,21675.78125,54912,128
-2.345972341,-32528,-7.072391161,-98062,0.555048055,7696,128,-271344,-19.56977124,21695.3125,55552,128
-2.362416072,-32756,-7.06214989,-97920,0.588512491,8160,128,-271088,-19.5513081,21714.84375,56192,128
-4.690213763,-65032,-7.090421568,-98312,0.554326839,7686,128,-270842,-19.53356618,21734.375,56832,128
-2.363281532,-32768,-7.079459081,-98160,0.59067614,8190,128,-270594,-19.51568002,21753.90625,57472,128
-2.234039573,-30976,-7.011376263,-97216,1.111827029,15416,128,-269984,-19.47168582,21773.4375,58112,128
-2.354266328,-32643,-7.046787983,-97707,1.103388799,15299,128,-269737,-19.45387178,21792.96875,58752,128
-2.362848802,-32762,-7.016280534,-97284,1.099638474,15247,128,-269482,-19.43548077,21812.5,59392,128
-2.349434179,-32576,-7.020607832,-97344,1.106634272,15344,128,-269581,-19.44262081,21832.03125,60032,128
-2.250266939,-31201,-6.97538757,-96717,1.172481319,16257,128,-269101,-19.40800243,21851.5625,60672,128
-2.363281532,-32768,-6.96031415,-96508,1.181496523,16382,128,-269038,-19.40345876,21871.09375,61312,128
-2.216225531,-30729,-6.926128498,-96034,1.151638168,15968,128,-268526,-19.36653249,21890.625,61952,128
-2.363065167,-32765,-6.920935741,-95962,1.144714492,15872,128,-267663,-19.30429152,21910.15625,62592,128
-2.067943462,-28673,-6.834317664,-94761,1.142622965,15843,128,-266777,-19.24039176,21929.6875,63232,128
-2.097369086,-29081,-6.82393215,-94617,1.102667582,15289,128,-267487,-19.29159812,21949.21875,63872,128
-2.327076474,-32266,-6.908242334,-95786,1.038407211,14398,128,-268116,-19.33696262,21968.75,64512,128
-2.104581249,-29181,-6.918195119,-95924,1.047566658,14525,128,-268576,-19.37013857,21988.28125,65152,128
-2.208147908,-30617,-6.934710972,-96153,1.163177629,16128,128,-268942,-19.39653509,22007.8125,256,128
-2.067943462,-28673,-6.914805402,-95877,1.173491022,16271,128,-268967,-19.39833813,22027.34375,896,128
-2.363281532,-32768,-6.978200314,-96756,1.121851936,15555,128,-269089,-19.40713697,22046.875,1536,128
-2.308324851,-32006,-6.967959043,-96614,1.116947665,15487,128,-268816,-19.38744776,22066.40625,2176,128
-0.068154939,-945,-5.810334779,-80563,2.36320941,32767,128,-262981,-18.96661806,22085.9375,2816,128
-1.777149055,-24641,-6.699017489,-92885,0.73282787,10161,128,-268495,-19.36429672,22105.46875,3456,128
-2.076886544,-28797,-6.926489106,-96039,0.886446939,12291,128,-269477,-19.43512016,22125,4096,128
-2.224303153,-30841,-6.950866217,-96377,1.148825425,15929,128,-268613,-19.37280707,22144.53125,4736,128
-2.215576436,-30720,-6.940552824,-96234,1.172914049,16263,128,-268553,-19.36847977,22164.0625,5376,128
-2.2901502,-31754,-6.897856819,-95642,1.04367209,14471,128,-268155,-19.33977536,22183.59375,6016,128
-2.361334248,-32741,-6.852492315,-95013,1.112259759,15422,128,-268242,-19.34604995,22203.125,6656,128
-2.361550613,-32744,-6.912641753,-95847,1.181568644,16383,128,-268554,-19.36855189,22222.65625,7296,128
-2.071333178,-28720,-6.890211927,-95536,1.163177629,16128,128,-268537,-19.36732583,22242.1875,7936,128
-2.151027578,-29825,-6.877590642,-95361,1.177024982,16320,128,-268539,-19.36747007,22261.71875,8576,128
-2.137685077,-29640,-6.86424814,-95176,1.179404995,16353,128,-268511,-19.36545066,22281.25,9216,128
-2.33529834,-32380,-6.851122004,-94994,1.1167313,15484,128,-268272,-19.34821359,22300.78125,9856,128
-2.095854532,-29060,-6.825302461,-94636,1.070789822,14847,128,-267946,-19.32470194,22320.3125,10496,128
-2.077102909,-28800,-6.819388487,-94554,1.105480326,15328,128,-267777,-19.31251339,22339.84375,11136,128
-2.088137518,-28953,-6.814700581,-94489,1.099638474,15247,128,-267506,-19.29296843,22359.375,11776,128
-2.096143019,-29064,-6.825013974,-94632,1.03393567,14336,128,-267947,-19.32477407,22378.90625,12416,128
-2.361334248,-32741,-6.864103897,-95174,1.178178928,16336,128,-268334,-19.35268514,22398.4375,13056,128
-2.070107111,-28703,-6.851482612,-94999,1.16144671,16104,128,-268566,-19.36941735,22417.96875,13696,128
-2.362920924,-32763,-6.904852617,-95739,1.178106806,16335,128,-269027,-19.40266542,22437.5,14336,128
-2.362199707,-32753,-6.898722279,-95654,1.114711894,15456,128,-269235,-19.41766672,22457.03125,14976,128
-2.215504314,-30719,-6.938821905,-96210,1.181352279,16380,128,-269383,-19.42834072,22476.5625,15616,128
-2.185862325,-30308,-6.912713875,-95848,1.120553746,15537,128,-269147,-19.41132002,22496.09375,16256,128
-2.217379477,-30745,-6.964785691,-96570,1.171471616,16243,128,-268937,-19.39617448,22515.625,16896,128
-2.354122085,-32641,-6.936586134,-96179,1.181568644,16383,128,-268695,-19.37872104,22535.15625,17536,128
-2.351742071,-32608,-6.930383674,-96093,1.172192832,16253,128,-268931,-19.39574175,22554.6875,18176,128
-2.354122085,-32641,-6.923748484,-96001,1.144498127,15869,128,-268995,-19.40035753,22574.21875,18816,128
-2.232020167,-30948,-6.95944869,-96496,1.108870042,15375,128,-269201,-19.41521459,22593.75,19456,128
-2.362993045,-32764,-6.950866217,-96377,1.180558941,16369,128,-269486,-19.43576925,22613.28125,20096,128
-2.330971042,-32320,-6.983609436,-96831,1.107932461,15362,128,-269134,-19.41038244,22632.8125,20736,128
-2.216802504,-30737,-6.914805402,-95877,1.135122315,15739,128,-268537,-19.36732583,22652.34375,21376,128
-2.116409196,-29345,-6.916969051,-95907,1.181063793,16376,128,-268390,-19.35672395,22671.875,22016,128
-2.150017875,-29811,-6.904564131,-95735,1.179332874,16352,128,-268629,-19.37396102,22691.40625,22656,128
-2.363281532,-32768,-6.992768883,-96958,1.089613568,15108,128,-269564,-19.44139474,22710.9375,23296,128
-2.347126287,-32544,-6.999692559,-97054,1.043022995,14462,128,-270212,-19.48812955,22730.46875,23936,128
-2.236635952,-31012,-6.963487502,-96552,1.109447015,15383,128,-270282,-19.49317807,22750,24576,128
-2.354122085,-32641,-7.009284736,-97187,0.573511192,7952,128,-270537,-19.51156908,22769.53125,25216,128
-2.356357855,-32672,-7.00813079,-97171,0.574376652,7964,128,-270560,-19.51322788,22789.0625,25856,128
-2.354626936,-32648,-7.053423173,-97799,0.590748261,8191,128,-270520,-19.51034302,22808.59375,26496,128
-1.694064938,-23489,-6.402309108,-88771,2.23389533,30974,128,-268106,-19.3362414,22828.125,27136,128
-2.220769193,-30792,-6.651922065,-92232,0.14655115,2032,128,-270699,-19.52325279,22847.65625,27776,128
-2.358665747,-32704,-7.028541211,-97454,0.462011154,6406,128,-272042,-19.62011214,22867.1875,28416,128
-2.326643744,-32260,-7.062438376,-97924,0.516535105,7162,128,-271374,-19.57193489,22886.71875,29056,128
-2.304213918,-31949,-7.049023753,-97738,0.516895713,7167,128,-271445,-19.57705552,22906.25,29696,128
-2.330394069,-32312,-7.080468783,-98174,0.51761693,7177,128,-271430,-19.5759737,22925.78125,30336,128
-2.347126287,-32544,-7.036618833,-97566,0.572357246,7936,128,-271517,-19.58224828,22945.3125,30976,128
-2.354049963,-32640,-7.053423173,-97799,0.514732065,7137,128,-271573,-19.58628709,22964.84375,31616,128
-2.358665747,-32704,-7.066765674,-97984,0.516390862,7160,128,-271750,-19.59905262,22984.375,32256,128
-2.327509204,-32272,-7.063303836,-97936,0.493888914,6848,128,-271676,-19.59371562,23003.90625,32896,128
-2.296641147,-31844,-7.042460685,-97647,0.486965237,6752,128,-271764,-19.60006232,23023.4375,33536,128
-2.298444187,-31869,-7.04354251,-97662,0.558293528,7741,128,-271307,-19.56710274,23042.96875,34176,128
-2.236347465,-31008,-6.964857813,-96571,0.535070364,7419,128,-270886,-19.53673953,23062.5,34816,128
-2.216153409,-30728,-6.94437527,-96287,0.590315532,8185,128,-270445,-19.50493389,23082.03125,35456,128
-2.290655052,-31761,-6.933629147,-96138,1.143560546,15856,128,-270253,-19.49108654,23101.5625,36096,128
-2.363281532,-32768,-6.914012064,-95866,0.58981068,8178,128,-270382,-19.50039023,23121.09375,36736,128
-2.109197034,-29245,-6.916824808,-95905,0.581588814,8064,128,-270707,-19.52382976,23140.625,37376,128
-2.307819999,-31999,-6.975676057,-96721,0.516607227,7163,128,-271493,-19.58051736,23160.15625,38016,128
-2.274716172,-31540,-7.000341654,-97063,0.498721063,6915,128,-271613,-19.58917196,23179.6875,38656,128
-2.344962638,-32514,-7.017578723,-97302,0.517112078,7170,128,-272062,-19.62155457,23199.21875,39296,128
-2.289428984,-31744,-7.01433325,-97257,0.553894109,7680,128,-271863,-19.60720236,23218.75,39936,128
-2.308180607,-32004,-7.036979441,-97571,0.516390862,7160,128,-271622,-19.58982105,23238.28125,40576,128
-2.335586826,-32384,-7.062077768,-97919,0.516102376,7156,128,-271516,-19.58217616,23257.8125,41216,128
-2.347198409,-32545,-7.054504997,-97814,0.521006646,7224,128,-271527,-19.5829695,23277.34375,41856,128
-2.303564823,-31940,-7.026016954,-97419,0.516895713,7167,128,-271373,-19.57186277,23296.875,42496,128
-2.291520511,-31773,-7.02673817,-97429,0.516607227,7163,128,-271629,-19.5903259,23316.40625,43136,128
-2.326427379,-32257,-7.030849103,-97486,0.514948429,7140,128,-271612,-19.58909984,23335.9375,43776,128
-2.29058293,-31760,-7.036763076,-97568,0.475930628,6599,128,-272035,-19.61960728,23355.46875,44416,128
-2.307892121,-32000,-7.031570319,-97496,0.451265031,6257,128,-272159,-19.62855037,23375,45056,128
-2.307675756,-31997,-7.034310941,-97534,0.573222706,7948,128,-271608,-19.58881135,23394.53125,45696,128
-2.336740772,-32400,-6.987864612,-96890,0.53535885,7423,128,-271016,-19.54611534,23414.0625,46336,128
-2.326355258,-32256,-6.976613638,-96734,0.523314538,7256,128,-270896,-19.53746075,23433.59375,46976,128
-2.22019222,-30784,-6.950145,-96367,0.525045457,7280,128,-271264,-19.56400151,23453.125,47616,128
-2.296641147,-31844,-7.020896318,-97348,0.44369226,6152,128,-272326,-19.64059468,23472.65625,48256,128
-2.358737869,-32705,-7.039431577,-97605,0.589666437,8176,128,-272459,-19.65018685,23492.1875,48896,128
-2.353545112,-32633,-7.060491092,-97897,0.572357246,7936,128,-272638,-19.66309663,23511.71875,49536,128
-2.293467795,-31800,-7.024574521,-97399,0.585483382,8118,128,-272714,-19.66857787,23531.25,50176,128
-4.652854759,-64514,-7.097489488,-98410,0.572357246,7936,128,-272592,-19.65977903,23550.78125,50816,128
-2.362199707,-32753,-6.89259194,-95569,1.183804415,16414,128,-272194,-19.63107462,23570.3125,51456,128
-0.165735503,-2298,-5.833341579,-80882,2.219543126,30775,128,-266058,-19.18853631,23589.84375,52096,128
-2.215576436,-30720,-6.926993957,-96046,0.073275575,1016,128,-273750,-19.74329588,23609.375,52736,128
-2.289501105,-31745,-7.045057064,-97683,0.425806096,5904,128,-273295,-19.71048054,23628.90625,53376,128
-2.320080676,-32169,-7.046715861,-97706,0.588728856,8163,128,-272701,-19.66764029,23648.4375,54016,128
-4.439879589,-61561,-7.098787677,-98428,0.556057758,7710,128,-272802,-19.67492457,23667.96875,54656,128
-4.802723503,-66592,-7.036618833,-97566,0.59067614,8190,128,-272578,-19.65876933,23687.5,55296,128
-2.354122085,-32641,-7.053278929,-97797,0.586493085,8132,128,-272483,-19.65191777,23707.03125,55936,128
-4.744809836,-65789,-7.028541211,-97454,0.590748261,8191,128,-272516,-19.65429779,23726.5625,56576,128
-2.362560315,-32758,-7.033733968,-97526,0.590099167,8182,128,-272458,-19.65011473,23746.09375,57216,128
-4.72771701,-65552,-7.054000146,-97807,0.572429368,7937,128,-272543,-19.65624507,23765.625,57856,128
-2.289501105,-31745,-7.022050264,-97364,0.518049659,7183,128,-272277,-19.63706072,23785.15625,58496,128
-2.327148596,-32267,-7.016785385,-97291,0.565145083,7836,128,-271716,-19.59660048,23804.6875,59136,128
-2.36277668,-32761,-6.920503011,-95956,0.556129879,7711,128,-271333,-19.5689779,23824.21875,59776,128
-2.233534722,-30969,-6.959088082,-96491,0.519275727,7200,128,-271060,-19.5492887,23843.75,60416,128
-2.326643744,-32260,-6.917906632,-95920,0.525045457,7280,128,-271035,-19.54748566,23863.28125,61056,128
-2.140786307,-29683,-6.941490405,-96247,0.58670945,8135,128,-271401,-19.57388217,23882.8125,61696,128
-2.306810296,-31985,-6.95988142,-96502,0.498721063,6915,128,-271825,-19.60446174,23902.34375,62336,128
-2.219903734,-30780,-6.969545718,-96636,0.461506303,6399,128,-272164,-19.62891097,23921.875,62976,128
-2.358954234,-32708,-7.002361059,-97091,0.443331652,6147,128,-272181,-19.63013704,23941.40625,63616,128
-2.250266939,-31201,-7.004741073,-97124,0.479897318,6654,128,-272092,-19.62371822,23960.9375,64256,128
301.3183953,4177920,-7.032147292,-97504,1.177024982,16320,128,-271837,-19.6053272,24000,0,0
-2.335586826,-32384,-7.036113982,-97559,0.507808388,7041,128,-271868,-19.60756297,24019.53125,640,128
-2.303564823,-31940,-7.013107182,-97240,0.515092673,7142,128,-271616,-19.58938832,24039.0625,1280,128
-2.25250271,-31232,-7.048591024,-97732,0.514659943,7136,128,-271576,-19.58650346,24058.59375,1920,128
-2.363281532,-32768,-7.030488495,-97481,0.512568416,7107,128,-271526,-19.58289737,24078.125,2560,128
-2.21975949,-30778,-7.044624334,-97677,0.516895713,7167,128,-271556,-19.58506102,24097.65625,3200,128
-2.28661624,-31705,-6.991614937,-96942,0.582093666,8071,128,-271596,-19.58794589,24117.1875,3840,128
-2.289428984,-31744,-7.041306739,-97631,0.503048361,6975,128,-271541,-19.5839792,24136.71875,4480,128
-2.326427379,-32257,-6.99262464,-96956,0.590315532,8185,128,-271048,-19.54842324,24156.25,5120,128
-2.101984871,-29145,-6.955121393,-96436,0.590531896,8188,128,-270477,-19.50724179,24175.78125,5760,128
-2.357511801,-32688,-6.923748484,-96001,1.109879745,15389,128,-270618,-19.51741094,24195.3125,6400,128
-2.307892121,-32000,-6.978200314,-96756,0.443187409,6145,128,-271571,-19.58614285,24214.84375,7040,128
-2.358737869,-32705,-7.020463588,-97342,0.517977538,7182,128,-272279,-19.63720496,24234.375,7680,128
-2.298660552,-31872,-7.024574521,-97399,0.59024341,8184,128,-272320,-19.64016195,24253.90625,8320,128
-2.363281532,-32768,-7.07058812,-98037,0.576828787,7998,128,-272625,-19.66215904,24273.4375,8960,128
-2.361550613,-32744,-6.998538613,-97038,0.586204599,8128,128,-272481,-19.65177353,24292.96875,9600,128
-4.436057143,-61508,-7.078882108,-98152,0.526127282,7295,128,-272448,-19.64939352,24312.5,10240,128
-1.779456947,-24673,-6.108918322,-84703,1.652595002,22914,128,-268232,-19.34532873,24332.03125,10880,128
-2.086334477,-28928,-6.848814112,-94962,0.106235159,1473,128,-273209,-19.70427808,24351.5625,11520,128
-2.305728472,-31970,-7.05198074,-97779,0.357434792,4956,128,-273441,-19.72101029,24371.09375,12160,128
-2.330105582,-32308,-7.061356552,-97909,0.554110474,7683,128,-273141,-19.69937381,24390.625,12800,128
-2.363281532,-32768,-7.104485286,-98507,0.583824585,8095,128,-273035,-19.69172891,24410.15625,13440,128
-2.345467489,-32521,-7.072319039,-98061,0.589594315,8175,128,-273056,-19.69324347,24429.6875,14080,128
-2.354410571,-32645,-7.053783781,-97804,0.516967835,7168,128,-273409,-19.7187024,24449.21875,14720,128
-2.361190004,-32739,-7.105711354,-98524,0.558221407,7740,128,-273360,-19.71516844,24468.75,15360,128
-4.43237894,-61457,-7.058327443,-97867,0.581516693,8063,128,-273576,-19.73074671,24488.28125,16000,128
-2.354626936,-32648,-7.05904866,-97877,0.570265719,7907,128,-273566,-19.7300255,24507.8125,16640,128
-2.36097364,-32736,-7.050033456,-97752,0.5171842,7171,128,-273305,-19.71120175,24527.34375,17280,128
-2.362199707,-32753,-7.005390168,-97133,0.56413538,7822,128,-272987,-19.68826707,24546.875,17920,128
-2.303276337,-31936,-6.974810597,-96709,0.588873099,8165,128,-272497,-19.65292748,24566.40625,18560,128
-2.344818395,-32512,-6.956419582,-96454,0.586781572,8136,128,-272254,-19.63540192,24585.9375,19200,128
-2.295054471,-31822,-6.930239431,-96091,0.534277026,7408,128,-272022,-19.6186697,24605.46875,19840,128
-2.224303153,-30841,-6.946178311,-96312,0.526127282,7295,128,-272307,-19.63922437,24625,20480,128
-2.234616546,-30984,-6.946466797,-96316,0.555625028,7704,128,-272730,-19.66973182,24644.53125,21120,128
-2.344241422,-32504,-7.000558019,-97066,0.590604018,8189,128,-273211,-19.70442232,24664.0625,21760,128
-2.363281532,-32768,-7.004236222,-97117,0.586204599,8128,128,-273251,-19.70730718,24683.59375,22400,128
-2.29058293,-31760,-7.020247223,-97339,0.590748261,8191,128,-273567,-19.73009762,24703.125,23040,128
-2.298804796,-31874,-6.976757881,-96736,0.586420964,8131,128,-273358,-19.7150242,24722.65625,23680,128
-2.363065167,-32765,-7.043037658,-97655,0.510260524,7075,128,-273331,-19.71307691,24742.1875,24320,128
-2.287625943,-31719,-6.984907625,-96849,0.544085567,7544,128,-273036,-19.69180103,24761.71875,24960,128
-2.344890516,-32513,-7.011592628,-97219,0.560745664,7775,128,-272760,-19.67189546,24781.25,25600,128
-2.349650544,-32579,-6.971781489,-96667,0.582670639,8079,128,-272328,-19.64073892,24800.78125,26240,128
-2.238655357,-31040,-7.010294439,-97201,0.589666437,8176,128,-272666,-19.66511603,24820.3125,26880,128
-2.363281532,-32768,-7.014982345,-97266,0.553894109,7680,128,-272764,-19.67218395,24839.84375,27520,128
-2.354122085,-32641,-6.983970044,-96836,0.572429368,7937,128,-272959,-19.68624767,24859.375,28160,128
-2.256830008,-31292,-7.02587271,-97417,0.553894109,7680,128,-272791,-19.67413124,24878.90625,28800,128
-2.330466191,-32313,-6.974377868,-96703,0.535142486,7420,128,-271859,-19.60691388,24898.4375,29440,128
-2.137180226,-29633,-6.926561228,-96040,0.590531896,8188,128,-271372,-19.57179064,24917.96875,30080,128
-2.130112306,-29535,-6.951226825,-96382,0.572862097,7943,128,-271459,-19.57806523,24937.5,30720,128
-2.2334626,-30968,-6.994139194,-96977,0.461434181,6398,128,-272164,-19.62891097,24957.03125,31360,128
-2.224880126,-30849,-6.989956139,-96919,0.520429673,7216,128,-273037,-19.69187316,24976.5625,32000,128
-2.290005957,-31752,-7.002433181,-97092,0.590748261,8191,128,-273118,-19.69771501,24996.09375,32640,128
-2.362848802,-32762,-7.01036656,-97202,0.554903812,7694,128,-272740,-19.67045303,25015.625,33280,128
-2.326427379,-32257,-6.985845206,-96862,0.587935518,8152,128,-272589,-19.65956267,25035.15625,33920,128
-2.275581631,-31552,-7.066693552,-97983,0.587286423,8143,128,-272375,-19.64412864,25054.6875,34560,128
-2.36277668,-32761,-6.05922652,-84014,1.762580486,24439,128,-267874,-19.31950919,25074.21875,35200,128
-1.16144671,-16104,-6.518497052,-90382,0.868560775,12043,128,-271132,-19.55448145,25093.75,35840,128
-2.346044462,-32529,-7.0014956,-97079,0.414266636,5744,128,-273017,-19.69043072,25113.28125,36480,128
-2.28971747,-31748,-7.008491398,-97176,0.572645732,7940,128,-272556,-19.65718265,25132.8125,37120,128
-2.326499501,-32258,-7.019309642,-97326,0.585122774,8113,128,-272463,-19.65047534,25152.34375,37760,128
-2.215648558,-30721,-7.01786721,-97306,0.588945221,8166,128,-272623,-19.6620148,25171.875,38400,128
-2.271614942,-31497,-6.996230721,-97006,0.522088471,7239,128,-272584,-19.65920206,25191.40625,39040,128
-2.344818395,-32512,-7.025079373,-97406,0.58627672,8129,128,-272606,-19.66078873,25210.9375,39680,128
-2.358377261,-32700,-7.003587127,-97108,0.587935518,8152,128,-272702,-19.66771241,25230.46875,40320,128
-2.215648558,-30721,-7.008347155,-97174,0.59024341,8184,128,-272577,-19.65869721,25250,40960,128
-2.25250271,-31232,-6.972646948,-96679,0.51761693,7177,128,-272456,-19.64997049,25269.53125,41600,128
-2.273273739,-31520,-6.987648247,-96887,0.520357552,7215,128,-271958,-19.61405392,25289.0625,42240,128
-2.344890516,-32513,-6.92843639,-96066,0.589882802,8179,128,-271545,-19.58426769,25308.59375,42880,128
-2.197185421,-30465,-6.88768767,-95501,0.519347849,7201,128,-271317,-19.56782395,25328.125,43520,128
-2.358593626,-32703,-6.883937345,-95449,0.533772175,7401,128,-271374,-19.57193489,25347.65625,44160,128
-2.068087705,-28675,-6.878672466,-95376,0.590748261,8191,128,-271279,-19.56508333,25367.1875,44800,128
-2.086334477,-28928,-6.984330652,-96841,0.502759874,6971,128,-271948,-19.6133327,25386.71875,45440,128
-2.225745586,-30861,-6.948846811,-96349,0.539469783,7480,128,-272184,-19.63035341,25406.25,46080,128
-2.330971042,-32320,-6.981013057,-96795,0.574593016,7967,128,-272672,-19.66554876,25425.78125,46720,128
-2.351742071,-32608,-7.006327749,-97146,0.590748261,8191,128,-272656,-19.66439482,25445.3125,47360,128
-2.29058293,-31760,-7.022555116,-97371,0.58627672,8129,128,-272635,-19.66288026,25464.84375,48000,128
-2.362199707,-32753,-7.024574521,-97399,0.586060355,8126,128,-272511,-19.65393718,25484.375,48640,128
-2.289501105,-31745,-7.020679953,-97345,0.583896707,8096,128,-272472,-19.65112444,25503.90625,49280,128
-2.233751086,-30972,-7.018949034,-97321,0.519275727,7200,128,-272231,-19.63374312,25523.4375,49920,128
-2.35614149,-32669,-7.023420575,-97383,0.517039957,7169,128,-272051,-19.62076123,25542.96875,50560,128
-2.271254333,-31492,-7.027964238,-97446,0.534781877,7415,128,-272230,-19.633671,25562.5,51200,128
-2.326932231,-32264,-7.005606533,-97136,0.557355947,7728,128,-272170,-19.6293437,25582.03125,51840,128
-2.234111695,-30977,-7.00063014,-97067,0.544662541,7552,128,-271967,-19.61470301,25601.5625,52480,128
-2.356357855,-32672,-6.966300245,-96591,0.557211704,7726,128,-271060,-19.5492887,25621.09375,53120,128
-2.354626936,-32648,-6.942500108,-96261,0.572357246,7936,128,-270587,-19.51517517,25640.625,53760,128
-2.308541215,-32009,-6.899804103,-95669,0.59024341,8184,128,-270077,-19.47839313,25660.15625,54400,128
-2.141723888,-29696,-6.908747185,-95793,1.036099319,14366,128,-270466,-19.50644845,25679.6875,55040,128
-2.293179309,-31796,-6.916247835,-95897,0.590171288,8183,128,-271598,-19.58809013,25699.21875,55680,128
-2.36320941,-32767,-6.941201918,-96243,0.508818091,7055,128,-271802,-19.60280294,25718.75,56320,128
-2.22769287,-30888,-6.949063176,-96352,0.528218809,7324,128,-271716,-19.59660048,25738.28125,56960,128
-2.354410571,-32645,-6.946178311,-96312,0.53312308,7392,128,-271849,-19.60619266,25757.8125,57600,128
-2.215792801,-30723,-6.979859111,-96779,0.47823852,6631,128,-272025,-19.61888607,25777.34375,58240,128
-2.326499501,-32258,-6.868719681,-95238,0.589954923,8180,128,-271180,-19.55794329,25796.875,58880,128
-0.589666437,-8176,-5.885846124,-81610,2.076093206,28786,128,-265866,-19.17468896,25816.40625,59520,128
-2.354122085,-32641,-6.769408199,-93861,0.144243258,2000,128,-272093,-19.62379034,25835.9375,60160,128
-2.081718693,-28864,-6.931465498,-96108,0.351304454,4871,128,-272135,-19.62681945,25855.46875,60800,128
-2.307315148,-31992,-6.910478104,-95817,0.515164794,7143,128,-271550,-19.58462829,25875,61440,128
-2.21355703,-30692,-6.954255933,-96424,0.47996944,6655,128,-271561,-19.58542163,25894.53125,62080,128
-2.353617233,-32634,-6.914156307,-95868,0.520429673,7216,128,-271136,-19.55476994,25914.0625,62720,128
-2.358809991,-32706,-6.953751082,-96417,0.535575215,7426,128,-271139,-19.5549863,25933.59375,63360,128
-2.104364884,-29178,-6.932619444,-96124,0.590748261,8191,128,-271371,-19.57171852,25953.125,64000,128
-2.358737869,-32705,-6.918772092,-95932,0.590171288,8183,128,-271327,-19.56854517,25972.65625,64640,128
-2.136026279,-29617,-6.93550431,-96164,0.514587821,7135,128,-271521,-19.58253677,25992.1875,65280,128
-2.101335776,-29136,-6.904924739,-95740,0.516895713,7167,128,-271274,-19.56472272,26011.71875,384,128
-2.363281532,-32768,-6.902905333,-95712,0.57343907,7951,128,-271046,-19.54827899,26031.25,1024,128
-2.071982273,-28729,-6.843188625,-94884,0.562981434,7806,128,-270410,-19.50240964,26050.78125,1664,128
-2.317628541,-32135,-6.84030376,-94844,1.052326685,14591,128,-270111,-19.48084527,26070.3125,2304,128
-2.100758803,-29128,-6.855593545,-95056,1.056726105,14652,128,-270024,-19.47457069,26089.84375,2944,128
-2.330682556,-32316,-6.887759791,-95502,1.035017495,14351,128,-270372,-19.49966902,26109.375,3584,128
-2.103066695,-29160,-6.866483911,-95207,0.581516693,8063,128,-270749,-19.52685887,26128.90625,4224,128
-2.36277668,-32761,-6.912858118,-95850,0.556129879,7711,128,-270979,-19.54344684,26148.4375,4864,128
-2.077102909,-28800,-6.907376874,-95774,0.588728856,8163,128,-271252,-19.56313605,26167.96875,5504,128
-2.071261057,-28719,-6.924325457,-96009,0.554759569,7692,128,-271278,-19.56501121,26187.5,6144,128
-2.206489111,-30594,-6.958438988,-96482,0.572357246,7936,128,-271197,-19.55916936,26207.03125,6784,128
-2.070179232,-28704,-6.900381076,-95677,0.534853999,7416,128,-270872,-19.53572983,26226.5625,7424,128
-2.363065167,-32765,-6.941490405,-96247,0.590315532,8185,128,-270763,-19.52786857,26246.09375,8064,128
-2.326427379,-32257,-6.951875919,-96391,0.581805179,8067,128,-270529,-19.51099211,26265.625,8704,128
-2.359603329,-32717,-6.924686065,-96014,1.109519137,15384,128,-270456,-19.50572723,26285.15625,9344,128
-2.113596453,-29306,-6.914012064,-95866,0.587286423,8143,128,-270369,-19.49945265,26304.6875,9984,128
-2.363281532,-32768,-6.901751387,-95696,1.123943463,15584,128,-270215,-19.48834592,26324.21875,10624,128
-2.076886544,-28797,-6.910117496,-95812,1.047999388,14531,128,-270354,-19.49837083,26343.75,11264,128
-2.178650162,-30208,-6.890211927,-95536,1.145796316,15887,128,-269782,-19.45711725,26363.28125,11904,128
-2.306810296,-31985,-6.873263344,-95301,1.167577048,16189,128,-269214,-19.41615217,26382.8125,12544,128
-2.327653447,-32274,-6.809868432,-94422,1.148104208,15919,128,-268757,-19.38319258,26402.34375,13184,128
-2.350011152,-32584,-6.825590947,-94640,1.163177629,16128,128,-269134,-19.41038244,26421.875,13824,128
-2.298155701,-31865,-6.876653061,-95348,1.038767819,14403,128,-270129,-19.48214346,26441.40625,14464,128
-2.215720679,-30722,-6.963054772,-96546,0.572862097,7943,128,-270971,-19.54286987,26460.9375,15104,128
-2.216514017,-30733,-6.936369769,-96176,0.517112078,7170,128,-270986,-19.5439517,26480.46875,15744,128
-2.292962944,-31793,-6.957573528,-96470,0.582021544,8070,128,-271224,-19.56111664,26500,16384,128
-2.215648558,-30721,-6.933484904,-96136,0.516967835,7168,128,-271129,-19.55426509,26519.53125,17024,128
-2.319503703,-32161,-6.972214219,-96673,0.549278325,7616,128,-270903,-19.5379656,26539.0625,17664,128
