Device,Device,Device,Device,Device,Device,Device,Device,Device,Device,Device,Device
ECG Vx-RL,ECG Vx-RL,ECG LA-RA,ECG LA-RA,ExG2 CH1,ExG2 CH1,EXG1 Status,ECG LL-RA,ECG LL-RA,Timestamp,Timestamp,EXG2 Status
CAL,RAW,CAL,RAW,CAL,RAW,RAW,CAL,RAW,CAL,RAW,RAW
mV,No Units,mV,No Units,mV,No Units,No Units,mV,No Units,mSecs,No Units,No Units
-4.786351894,-66365,-24.19745555,-335509,1.172914049,16263,128,14.93076383,207022,156078.125,2560,128
-5.243891507,-72709,-24.05660201,-333556,0.95864069,13292,128,14.78991029,205069,156097.6563,3200,128
-0.517256322,-7172,-24.02385879,-333102,0.572357246,7936,128,14.74461791,204441,156117.1875,3840,128
-0.53535885,-7423,-23.93608677,-331885,0.450111085,6241,128,14.67978056,203542,156136.7188,4480,128
-0.46626633,-6465,-23.93276917,-331839,0.586781572,8136,128,14.62561722,202791,156156.25,5120,128
-0.138473527,-1920,-23.95245838,-332112,0.424724272,5889,128,14.54873556,201725,156175.7813,5760,128
-0.037142639,-515,-23.90875267,-331506,0.334067384,4632,128,14.50409228,201106,156195.3125,6400,128
-0.285096799,-3953,-23.93291341,-331841,0.296275651,4108,128,14.44012039,200219,156214.8438,7040,128
-9.148484367,-126848,-23.89144348,-331266,0.140204446,1944,128,14.40867536,199783,156234.375,7680,128
-8.345337909,-115712,-23.88177918,-331132,0.138473527,1920,128,14.39071708,199534,156253.9063,8320,128
-7.171846887,-99441,-23.88192342,-331134,1.16454794,16147,128,16.55436594,229534,156273.4375,8960,128
-7.312556185,-101392,-23.89115499,-331262,0.003678203,51,128,16.52205545,229086,156292.9688,9600,128
-4.894606458,-67866,-23.83778499,-330522,1.172337076,16255,128,16.5312149,229213,156312.5,10240,128
-5.021973255,-69632,-23.8514881,-330712,0.009808542,136,128,16.5225603,229093,156332.0313,10880,128
-4.888115512,-67776,-23.83468376,-330479,1.147022384,15904,128,16.52212757,229087,156351.5625,11520,128
-4.762984486,-66041,-23.80893633,-330122,1.149979371,15945,128,16.48794192,228613,156371.0938,12160,128
-0.072914967,-1011,-23.80208478,-330027,1.180631063,16370,128,16.39476077,227321,156390.625,12800,128
-0.036565666,-507,-23.83735226,-330516,1.029175643,14270,128,16.31686942,226241,156410.1563,13440,128
-0.240020781,-3328,-23.83872257,-330535,0.959938879,13310,128,16.26234546,225485,156429.6875,14080,128
-0.18463137,-2560,-23.79718051,-329959,1.046845442,14515,128,16.27604857,225675,156449.2188,14720,128
-4.615207269,-63992,-23.20369163,-321730,2.216081287,30727,128,16.6569229,230956,156468.75,15360,128
-4.21010008,-58375,-23.51388675,-326031,0.258483918,3584,128,16.4128633,227572,156488.2813,16000,128
-0.295410191,-4096,-23.75405178,-329361,0.915151348,12689,128,16.02117074,222141,156507.8125,16640,128
-0.001875162,-26,-23.74510869,-329237,1.181063793,16376,128,16.1354114,223725,156527.3438,17280,128
-0.036854152,-511,-23.73255953,-329063,1.052903658,14599,128,16.14002718,223789,156546.875,17920,128
-3.61E-04,-5,-23.73371348,-329079,1.180414698,16367,128,16.12077071,223522,156566.4063,18560,128
-0.074068913,-1027,-23.71864006,-328870,1.038479333,14399,128,16.12069859,223521,156585.9375,19200,128
-0.00223577,-31,-23.68229075,-328366,1.034296278,14341,128,16.11189975,223399,156605.4688,19840,128
-0.032887463,-456,-23.65286513,-327958,1.042878752,14460,128,16.10447122,223296,156625,20480,128
-0.144892352,-2009,-23.55066878,-326541,1.06624616,14784,128,16.15668728,224020,156644.5313,21120,128
0.004327298,60,-23.48979813,-325697,1.105480326,15328,128,16.18834867,224459,156664.0625,21760,128
0.164870043,2286,-23.47948473,-325554,1.152503628,15980,128,16.18524744,224416,156683.5938,22400,128
-37.6694152,-522304,-23.52960927,-326249,1.178828022,16345,128,16.12877621,223633,156703.125,23040,128
-37.79894564,-524100,-23.63151713,-327662,0.951356405,13191,128,15.95683825,221249,156722.6563,23680,128
0.138401406,1919,-23.69426294,-328532,0.589666437,8176,128,15.83495269,219559,156742.1875,24320,128
-37.77384731,-523752,-23.72166916,-328912,0.57343907,7951,128,15.75799891,218492,156761.7188,24960,128
-0.040460234,-561,-23.74020442,-329169,0.447514707,6205,128,15.7132835,217872,156781.25,25600,128
0.005120636,71,-23.73731956,-329129,0.479464588,6648,128,15.69099792,217563,156800.7813,26240,128
-37.81034086,-524258,-23.73443469,-329089,0.294328367,4081,128,15.63330062,216763,156820.3125,26880,128
-0.064765223,-898,-23.77049551,-329589,0.229563144,3183,128,15.58014698,216026,156839.8438,27520,128
0.009664298,134,-23.73436257,-329088,0.182611964,2532,128,15.56081838,215758,156859.375,28160,128
0.018463137,256,-23.74820992,-329280,0.157513637,2184,128,15.50009197,214916,156878.9063,28800,128
-0.054884559,-761,-23.74582991,-329247,0,0,128,15.45689111,214317,156898.4375,29440,128
5.05E-04,7,-23.76970217,-329578,0.018463137,256,128,15.41787331,213776,156917.9688,30080,128
-37.78019402,-523840,-23.74792144,-329276,2.16E-04,3,128,15.38000946,213251,156937.5,30720,128
0,0,-23.73818502,-329141,1.165197035,16156,128,15.3351498,212629,156957.0313,31360,128
-0.009159447,-127,-23.76775488,-329551,1.111250056,15408,128,15.29533867,212077,156976.5625,32000,128
0.036926274,512,-23.75282571,-329344,1.035666589,14360,128,15.24579111,211390,156996.0938,32640,128
0.001370311,19,-23.72758314,-328994,1.054129726,14616,128,15.23194375,211198,157015.625,33280,128
0.040460234,561,-23.72275099,-328927,1.181496523,16382,128,15.22487583,211100,157035.1563,33920,128
0.222062495,3079,-23.72650131,-328979,1.042013293,14448,128,15.21939459,211024,157054.6875,34560,128
0,0,-23.73544439,-329103,1.164331575,16144,128,15.20136418,210774,157074.2188,35200,128
-37.52582103,-520313,-23.67132827,-328214,1.179260752,16351,128,15.16782763,210309,157093.75,35840,128
-37.73648831,-523234,-23.70464846,-328676,1.165413399,16159,128,15.04861057,208656,157113.2813,36480,128
0.055389411,768,-23.76234576,-329476,1.111250056,15408,128,14.95997309,207427,157132.8125,37120,128
-37.51918584,-520221,-23.67082342,-328207,1.106850637,15347,128,14.95124637,207306,157152.3438,37760,128
-37.53591806,-520453,-23.49751514,-325804,1.181568644,16383,128,15.04031659,208541,157171.875,38400,128
-37.22262171,-516109,-23.12760331,-320675,0.001803041,25,128,15.45609778,214306,157191.4063,39040,128
0.152176637,2110,-23.37397079,-324091,0.733909694,10176,128,14.66651018,203358,157210.9375,39680,128
0.296275651,4108,-23.18566122,-321480,0.525045457,7280,128,14.75428221,204575,157230.4688,40320,128
-37.81026874,-524257,-23.18768062,-321508,1.117236151,15491,128,14.85409854,205959,157250,40960,128
0.23071709,3199,-23.03463853,-319386,1.145579951,15884,128,14.81847046,205465,157269.5313,41600,128
-37.78473768,-523903,-22.93402886,-317991,1.16368248,16135,128,14.80974374,205344,157289.0625,42240,128
-37.67352613,-522361,-22.86810969,-317077,1.172337076,16255,128,14.80570493,205288,157308.5938,42880,128
0.15895607,2204,-22.84272287,-316725,1.179332874,16352,128,14.83109174,205640,157328.125,43520,128
0.145902055,2023,-22.68189164,-314495,1.175871036,16304,128,14.8292887,205615,157347.6563,44160,128
0.313368477,4345,-22.66559215,-314269,1.144714492,15872,128,14.84840093,205880,157367.1875,44800,128
-37.28666571,-516997,-22.58193106,-313109,1.179549239,16355,128,14.90689157,206691,157386.7188,45440,128
0.44636076,6189,-22.5186804,-312232,1.177024982,16320,128,14.86837862,206157,157406.25,46080,128
0.590748261,8191,-22.46083885,-311430,1.038551454,14400,128,14.79474244,205136,157425.7813,46720,128
0.29533807,4095,-22.45478063,-311346,0.447586828,6206,128,14.59006126,202298,157445.3125,47360,128
-37.81142268,-524273,-22.41121917,-310742,0.461506303,6399,128,14.47957092,200766,157464.8438,48000,128
-37.81199966,-524281,-22.46437281,-311479,0.286106501,3967,128,14.4468277,200312,157484.375,48640,128
0.294256245,4080,-22.382659,-310346,0.277235541,3844,128,14.39605408,199608,157503.9063,49280,128
1.44E-04,2,-22.36210434,-310061,0.280408893,3888,128,14.35754113,199074,157523.4375,49920,128
0.068948277,956,-22.36340253,-310079,0.223721292,3102,128,14.31888393,198538,157542.9688,50560,128
-37.77615521,-523784,-22.35135822,-309912,0.144892352,2009,128,14.30611841,198361,157562.5,51200,128
0.279254947,3872,-22.25514796,-308578,0.034618382,480,128,14.26753333,197826,157582.0313,51840,128
0.236486821,3279,-22.29366091,-309112,0.004327298,60,128,14.21459606,197092,157601.5625,52480,128
0.221990373,3078,-22.21937564,-308082,0,0,128,14.17290976,196514,157621.0938,53120,128
0.017886164,248,-22.27822689,-308898,1.17918863,16350,128,14.09848024,195482,157640.625,53760,128
-37.70158144,-522750,-22.24368063,-308419,1.117091908,15489,128,14.05499089,194879,157660.1563,54400,128
-37.62996467,-521757,-22.2229096,-308131,1.180414698,16367,128,14.04359568,194721,157679.6875,55040,128
0.290794407,4032,-22.15937044,-307250,1.11009611,15392,128,13.9746474,193765,157699.2188,55680,128
0.143161433,1985,-22.18677666,-307630,1.155100006,16016,128,13.91846465,192986,157718.75,56320,128
-37.66595336,-522256,-22.19384458,-307728,1.164259453,16143,128,13.9082955,192845,157738.2813,56960,128
-37.81243239,-524287,-22.16218318,-307289,1.14464237,15871,128,13.92567681,193086,157757.8125,57600,128
-37.55257816,-520684,-22.15021099,-307123,1.165413399,16159,128,13.90512215,192801,157777.3438,58240,128
-37.77586672,-523780,-22.10398103,-306482,1.145219343,15879,128,13.81886468,191605,157796.875,58880,128
0.055245168,766,-22.12684359,-306799,1.144714492,15872,128,13.73397752,190428,157816.4063,59520,128
-37.75257143,-523457,-22.09842767,-306405,1.178683779,16343,128,13.67375596,189593,157835.9375,60160,128
0.051278478,711,-22.09078277,-306299,1.107643975,15358,128,13.60639436,188659,157855.4688,60800,128
-37.80788872,-524224,-22.14970614,-307116,1.772677514,24579,128,13.66005286,189403,157875,61440,128
0.076809535,1065,-21.94271707,-304246,2.360685153,32732,128,14.22188034,197193,157894.5313,62080,128
-37.81178329,-524278,-22.11003925,-306566,0.341640156,4737,128,13.34113101,184981,157914.0625,62720,128
0.027117732,376,-22.08876337,-306271,0.553894109,7680,128,13.39947741,185790,157933.5938,63360,128
0.065702804,911,-22.07902695,-306136,0.476146993,6602,128,13.44339948,186399,157953.125,64000,128
-37.75689873,-523517,-22.11602534,-306649,0.526127282,7295,128,13.42609029,186159,157972.6563,64640,128
-37.67172309,-522336,-22.01519931,-305251,0.589017342,8167,128,13.39868407,185779,157992.1875,65280,128
-37.68362316,-522501,-22.02810908,-305430,0.573150584,7947,128,13.39349132,185707,158011.7188,384,128
-37.75653812,-523512,-22.08479668,-306216,0.563053556,7807,128,13.38498096,185589,158031.25,1024,128
-37.81026874,-524257,-22.06395353,-305927,0.572573611,7939,128,13.39002948,185659,158050.7813,1664,128
-37.48024016,-519681,-22.01995933,-305317,0.572140881,7933,128,13.4291194,186201,158070.3125,2304,128
0.369190618,5119,-22.00676107,-305134,0.588512491,8160,128,13.48696095,187003,158089.8438,2944,128
0.438571625,6081,-21.98829794,-304878,0.551586217,7648,128,13.45227044,186522,158109.375,3584,128
-37.72134277,-523024,-22.05940986,-305864,0.581516693,8063,128,13.36118083,185259,158128.9063,4224,128
-37.72826645,-523120,-22.0715263,-306032,0.221485522,3071,128,13.21261027,183199,158148.4375,4864,128
0.014063718,195,-22.05421711,-305792,0.035772328,496,128,13.05437542,181005,158167.9688,5504,128
-37.66934307,-522303,-22.01664174,-305271,1.170606157,16231,128,12.98686957,180069,158187.5,6144,128
-37.66955944,-522306,-22.08501304,-306219,1.181424401,16381,128,12.9492942,179548,158207.0313,6784,128
0.073564061,1020,-22.08212818,-306179,1.165485521,16160,128,12.90804063,178976,158226.5625,7424,128
0.072698602,1008,-22.03142667,-305476,1.181496523,16382,128,12.82127831,177773,158246.0938,8064,128
-37.75668237,-523514,-22.07441116,-306072,1.180558941,16369,128,12.81009946,177618,158265.625,8704,128
7.21E-05,1,-22.01700235,-305276,1.181063793,16376,128,12.74540636,176721,158285.1563,9344,128
-0.018535259,-257,-22.09597553,-306371,1.144930857,15875,128,12.72773656,176476,158304.6875,9984,128
-37.6827577,-522489,-22.05602015,-305817,1.112331881,15423,128,12.71057161,176238,158324.2188,10624,128
-0.002884865,-40,-22.08169545,-306173,1.179332874,16352,128,12.63844998,175238,158343.75,11264,128
0.082723508,1147,-22.06380928,-305925,1.172553441,16258,128,12.62287171,175022,158363.2813,11904,128
-37.77803037,-523810,-22.07397843,-306066,1.170173427,16225,128,12.57455022,174352,158382.8125,12544,128
0.001730919,24,-22.08991731,-306287,1.107788218,15360,128,12.57108838,174304,158402.3438,13184,128
-0.035772328,-496,-22.11472715,-306631,1.18091955,16374,128,12.55551011,174088,158421.875,13824,128
-0.004760027,-66,-22.10902954,-306552,1.144353884,15867,128,12.54837007,173989,158441.4063,14464,128
-37.80796084,-524225,-22.15302374,-307162,1.167721292,16191,128,12.54418701,173931,158460.9375,15104,128
0.009159447,127,-22.10160102,-306449,1.107788218,15360,128,12.38422124,171713,158480.4688,15744,128
-0.073780426,-1023,-22.1479031,-307091,0.582670639,8079,128,12.29983894,170543,158500,16384,128
-0.072770723,-1009,-22.18706515,-307634,0.58627672,8129,128,12.27755335,170234,158519.5313,17024,128
-37.7981523,-524089,-22.067199,-305972,0.059933074,831,128,12.23175612,169599,158539.0625,17664,128
-37.33715085,-517697,-21.96002626,-304486,0.055317289,767,128,12.74309847,176689,158558.5938,18304,128
0.165951868,2301,-22.06590081,-305954,1.052398807,14592,128,12.16626968,168691,158578.125,18944,128
-0.001081824,-15,-22.16485169,-307326,0.146479028,2031,128,12.05123568,167096,158597.6563,19584,128
-0.143233555,-1986,-22.17177536,-307422,0.258483918,3584,128,12.11174573,167935,158617.1875,20224,128
-0.03187776,-442,-22.18778636,-307644,0.55793292,7736,128,12.12451126,168112,158636.7188,20864,128
-0.033464436,-464,-22.12806965,-306816,0.524107876,7267,128,12.12782885,168158,158656.25,21504,128
-0.01817465,-252,-22.09886039,-306411,0.286178623,3968,128,12.09357108,167683,158675.7813,22144,128
-0.069381007,-962,-22.15215828,-307150,0.259565742,3599,128,12.11672212,168004,158695.3125,22784,128
0.018823745,261,-22.13694061,-306939,0.590531896,8188,128,12.12104942,168064,158714.8438,23424,128
-37.7468017,-523377,-22.09525431,-306361,0.565361448,7839,128,12.15761508,168571,158734.375,24064,128
-37.81250451,-524288,-22.07628633,-306098,0.590459775,8187,128,12.17997279,168881,158753.9063,24704,128
-37.67518493,-522384,-22.01837266,-305295,0.517472686,7175,128,12.18790617,168991,158773.4375,25344,128
-37.81142268,-524273,-22.05313528,-305777,0.481411872,6675,128,12.09595109,167716,158792.9688,25984,128
-7.21E-05,-1,-22.20199432,-307841,0.010097028,140,128,11.93843745,165532,158812.5,26624,128
-37.77651581,-523789,-22.10426952,-306486,0.034834747,483,128,11.81417189,163809,158832.0313,27264,128
-0.003750325,-52,-22.15973105,-307255,1.112331881,15423,128,11.74695453,162877,158851.5625,27904,128
-0.001153946,-16,-22.11306836,-306608,1.089325081,15104,128,11.67497714,161879,158871.0938,28544,128
-0.011467339,-159,-22.16694321,-307355,1.118750706,15512,128,11.67923232,161938,158890.625,29184,128
-7.21E-05,-1,-22.2212508,-308108,1.116587057,15482,128,11.63220902,161286,158910.1563,29824,128
-0.015650393,-217,-22.08897973,-306274,1.181424401,16381,128,11.59521062,160773,158929.6875,30464,128
-0.258772404,-3588,-22.12309326,-306747,1.145147222,15878,128,11.5674438,160388,158949.2188,31104,128
-0.115466728,-1601,-22.12612237,-306789,1.172264954,16254,128,11.50938588,159583,158968.75,31744,128
-0.284519826,-3945,-22.14487399,-307049,1.167360683,16186,128,11.50671738,159546,158988.2813,32384,128
-9.38E-04,-13,-22.09849979,-306406,1.165557643,16161,128,11.44303399,158663,159007.8125,33024,128
-0.008726717,-121,-22.17328992,-307443,1.165701886,16163,128,11.43171089,158506,159027.3438,33664,128
-0.138473527,-1920,-22.17804994,-307509,1.144786614,15873,128,11.38778882,157897,159046.875,34304,128
-0.001153946,-16,-22.13037755,-306848,1.174140116,16280,128,11.33218304,157126,159066.4063,34944,128
-0.266850026,-3700,-22.12720419,-306804,1.176303765,16310,128,11.34934799,157364,159085.9375,35584,128
-0.016227366,-225,-22.16066863,-307268,1.145002978,15876,128,11.33917884,157223,159105.4688,36224,128
-0.277235541,-3844,-22.14653279,-307072,1.140026586,15807,128,11.33038,157101,159125,36864,128
-0.082074414,-1138,-22.09107126,-306303,1.165990372,16167,128,11.27679363,156358,159144.5313,37504,128
-0.09209932,-1277,-22.26178315,-308670,0.581516693,8063,128,11.21621146,155518,159164.0625,38144,128
-0.281562839,-3904,-22.1842524,-307595,0.553894109,7680,128,11.09439803,153829,159183.5938,38784,128
-0.073780426,-1023,-22.21786108,-308061,0.517472686,7175,128,11.0806228,153638,159203.125,39424,128
-0.073924669,-1025,-22.23228541,-308261,0.574520895,7966,128,11.06143845,153372,159222.6563,40064,128
-7.21E-05,-1,-22.10325981,-306472,1.772893879,24582,128,11.56838138,160401,159242.1875,40704,128
-0.133857743,-1856,-22.10960652,-306560,0.286178623,3968,128,11.135291,154396,159261.7188,41344,128
-0.147705096,-2048,-22.15280737,-307159,0.011539461,160,128,10.82783649,150133,159281.25,41984,128
-0.018463137,-256,-22.19233003,-307707,0.293174421,4065,128,10.90067934,151143,159300.7813,42624,128
-0.053730613,-745,-22.13167574,-306866,0.260286958,3609,128,10.90817999,151247,159320.3125,43264,128
-0.103783024,-1439,-22.25897041,-308631,0.293102299,4064,128,10.88668774,150949,159339.8438,43904,128
-0.008943082,-124,-22.20487919,-307881,0.275720987,3823,128,10.88142286,150876,159359.375,44544,128
-0.147560852,-2046,-22.11270775,-306603,0.294833218,4088,128,10.90118419,151150,159378.9063,45184,128
-0.019617083,-272,-22.21317318,-307996,0.293246543,4066,128,10.88704835,150954,159398.4375,45824,128
-0.295410191,-4096,-22.17134263,-307416,0.277019176,3841,128,10.92577766,151491,159417.9688,46464,128
-6.49E-04,-9,-22.18526211,-307609,1.190511726,16507,128,10.99436533,152442,159437.5,47104,128
-0.033464436,-464,-22.11696292,-306662,0.588656734,8162,128,10.998909,152505,159457.0313,47744,128
-0.055461533,-769,-22.21584168,-308033,0.290794407,4032,128,10.89786659,151104,159476.5625,48384,128
-0.004543663,-63,-22.17566993,-307476,0.069236764,960,128,10.72830865,148753,159496.0938,49024,128
-0.147344488,-2043,-22.2656056,-308723,1.181568644,16383,128,10.6334687,147438,159515.625,49664,128
-0.331903736,-4602,-22.21533683,-308026,1.173491022,16271,128,10.54338879,146189,159535.1563,50304,128
-0.36132936,-5010,-22.22103443,-308105,1.125674382,15608,128,10.48944181,145441,159554.6875,50944,128
-0.405756283,-5626,-22.26221588,-308676,1.177313468,16324,128,10.44176941,144780,159574.2188,51584,128
-0.369262739,-5120,-22.24519518,-308440,1.179044387,16348,128,10.43181663,144642,159593.75,52224,128
-0.366882726,-5087,-22.22262111,-308127,1.160797615,16095,128,10.39150064,144083,159613.2813,52864,128
-0.295987164,-4104,-22.17660751,-307489,1.145147222,15878,128,10.36214714,143676,159632.8125,53504,128
-0.304569638,-4223,-22.16362562,-307309,1.149546641,15939,128,10.30812804,142927,159652.3438,54144,128
-0.521006646,-7224,-22.21209135,-307981,1.172337076,16255,128,10.28721276,142637,159671.875,54784,128
-0.137463824,-1906,-22.23711756,-308328,1.181568644,16383,128,10.26673022,142353,159691.4063,55424,128
-0.363709374,-5043,-22.2229096,-308131,1.1424066,15840,128,10.2249718,141774,159710.9375,56064,128
-0.443115287,-6144,-22.24332002,-308414,1.149402398,15937,128,10.15191259,140761,159730.4688,56704,128
-0.451265031,-6257,-22.19968643,-307809,1.181063793,16376,128,10.14837863,140712,159750,57344,128
-0.002019406,-28,-22.15086009,-307132,1.167721292,16191,128,10.08981587,139900,159769.5313,57984,128
-0.443187409,-6145,-22.17581417,-307478,0.559519596,7758,128,10.02303124,138974,159789.0625,58624,128
-0.299521124,-4153,-22.1789154,-307521,0.582670639,8079,128,10.06745816,139590,159808.5938,59264,128
-0.369334861,-5121,-22.2506043,-308515,1.146733898,15900,128,10.04574955,139289,159828.125,59904,128
-0.057625181,-799,-22.1949264,-307743,0.59067614,8190,128,10.04207135,139238,159847.6563,60544,128
-0.586853693,-8137,-22.25832132,-308622,0.590531896,8188,128,9.96778607,138208,159867.1875,61184,128
-0.438932233,-6086,-22.27678445,-308878,0.552091068,7655,128,9.926748863,137639,159886.7188,61824,128
-0.590387653,-8186,-22.26762501,-308751,0.590748261,8191,128,9.802843905,135921,159906.25,62464,128
-0.369190618,-5119,-22.2292563,-308219,0.577189395,8003,128,9.773274037,135511,159925.7813,63104,128
-0.452202612,-6270,-22.2206017,-308099,0.554038352,7682,128,9.771470996,135486,159945.3125,63744,128
-37.78430495,-523897,-22.12763692,-306810,0.083156238,1153,128,10.12767972,140425,159964.8438,64384,128
-0.008726717,-121,-22.18136754,-307555,0.537666743,7455,128,9.99036014,138521,159984.375,65024,128
-0.489417373,-6786,-22.20379736,-307866,0.064837344,899,128,9.519622269,131994,160003.9063,128,128
-0.581660936,-8065,-22.31652347,-309429,0.258411796,3583,128,9.62729986,133487,160023.4375,768,128
-0.589738558,-8177,-22.25377765,-308559,0.258483918,3584,128,9.623188928,133430,160042.9688,1408,128
-0.032382611,-449,-22.18829121,-307651,0.29533807,4095,128,9.630184726,133527,160062.5,2048,128
-0.477733669,-6624,-22.2822657,-308954,0.291948353,4048,128,9.612442805,133281,160082.0313,2688,128
-0.590315532,-8185,-22.25969163,-308641,0.144171136,1999,128,9.579988072,132831,160101.5625,3328,128
-0.452563221,-6275,-22.30916706,-309327,0.002956987,41,128,9.595349979,133044,160121.0938,3968,128
-0.059860952,-830,-22.21533683,-308026,0.294328367,4081,128,9.61619313,133333,160140.625,4608,128
-0.44369226,-6152,-22.31486467,-309406,2.16E-04,3,128,9.629030779,133511,160160.1563,5248,128
-0.313873328,-4352,-22.2795972,-308917,0.293390786,4068,128,9.690766894,134367,160179.6875,5888,128
-0.008149744,-113,-22.17235233,-307430,0.222639468,3087,128,9.616914346,133343,160199.2188,6528,128
-0.373590037,-5180,-22.29221848,-309092,0.018318894,254,128,9.427450827,130716,160218.75,7168,128
-0.327504316,-4541,-22.18793061,-307646,1.124159828,15587,128,9.321792641,129251,160238.2813,7808,128
-0.586348842,-8130,-22.30087308,-309212,1.130722896,15678,128,9.236184268,128064,160257.8125,8448,128
-0.368180915,-5105,-22.22745326,-308194,1.146517533,15897,128,9.205676819,127641,160277.3438,9088,128
-0.590748261,-8191,-22.2379109,-308339,1.144714492,15872,128,9.200123453,127564,160296.875,9728,128
-1.04323936,-14465,-22.3336163,-309666,1.144714492,15872,128,9.124539986,126516,160316.4063,10368,128
-0.434893422,-6030,-22.23985818,-308366,1.181496523,16382,128,9.120356932,126458,160335.9375,11008,128
-1.004654289,-13930,-22.37602381,-310254,1.165341278,16158,128,9.065905102,125703,160355.4688,11648,128
-0.332408587,-4609,-22.27750567,-308888,1.158561845,16064,128,9.061649926,125644,160375,12288,128
-0.589954923,-8180,-22.33513085,-309687,1.179260752,16351,128,8.997389555,124753,160394.5313,12928,128
-0.516823592,-7166,-22.34602122,-309838,1.146950262,15903,128,8.986282824,124599,160414.0625,13568,128
-0.574376652,-7964,-22.26048496,-308652,1.177601955,16328,128,8.951159591,124112,160433.5938,14208,128
-0.891423332,-12360,-22.28140024,-308942,1.181352279,16380,128,8.891226517,123281,160453.125,14848,128
-0.952077621,-13201,-22.29582456,-309142,1.144930857,15875,128,8.864541514,122911,160472.6563,15488,128
-1.043022995,-14462,-22.32178835,-309502,1.15567698,16024,128,8.875720367,123066,160492.1875,16128,128
-1.066390403,-14786,-22.32669262,-309570,0.590748261,8191,128,8.829923133,122431,160511.7188,16768,128
-1.039128427,-14408,-22.39152996,-310469,0.531897012,7375,128,8.814272739,122214,160531.25,17408,128
-0.57473726,-7969,-22.32503382,-309547,0.57697303,8000,128,8.811532117,122176,160550.7813,18048,128
-0.519131484,-7198,-22.34046785,-309761,0.576900909,7999,128,8.835837106,122513,160570.3125,18688,128
-0.58714218,-8141,-22.37450926,-310233,0.567741462,7872,128,8.803454495,122064,160589.8438,19328,128
-0.295482313,-4097,-22.21685138,-308047,0.534204904,7407,128,8.745540827,121261,160609.375,19968,128
-0.4064775,-5636,-22.2769287,-308880,0.554975933,7695,128,8.645291763,119871,160628.9063,20608,128
-0.887312399,-12303,-22.23069873,-308239,0.59067614,8190,128,8.617380693,119484,160648.4375,21248,128
-1.177962563,-16333,-22.25298432,-308548,0.521799984,7235,128,8.626756504,119614,160667.9688,21888,128
-0.111860646,-1551,-22.12540115,-306779,1.901703108,26368,128,8.977195499,124473,160687.5,22528,128
-0.427609137,-5929,-22.34313635,-309798,0.889620291,12335,128,8.427700809,116854,160707.0313,23168,128
-0.585411261,-8117,-22.30621008,-309286,0.143089311,1984,128,8.414574673,116672,160726.5625,23808,128
-0.147705096,-2048,-22.20329251,-307859,0.29533807,4095,128,8.557591862,118655,160746.0938,24448,128
-1.10786034,-15361,-22.33642904,-309705,0.579569409,8036,128,8.60930307,119372,160765.625,25088,128
-0.112004889,-1553,-22.23322299,-308274,0.588728856,8163,128,8.592498731,119139,160785.1563,25728,128
-0.313584842,-4348,-22.21028831,-307956,0.581733058,8066,128,8.624737099,119586,160804.6875,26368,128
-0.33695225,-4672,-22.19629672,-307762,0.572357246,7936,128,8.659860332,120073,160824.2188,27008,128
-0.365223928,-5064,-22.26755288,-308750,1.181785009,16386,128,8.660076697,120076,160843.75,27648,128
-0.531031553,-7363,-22.31349436,-309387,0.589738558,8177,128,8.674717388,120279,160863.2813,28288,128
-0.147560852,-2046,-22.19564762,-307753,1.209335471,16768,128,8.752825111,121362,160882.8125,28928,128
-0.452923829,-6280,-22.31385497,-309392,0.52425212,7269,128,8.719577041,120901,160902.3438,29568,128
-0.461073573,-6393,-22.37472562,-310236,0.576684544,7996,128,8.704792107,120696,160921.875,30208,128
-0.072770723,-1009,-22.208918,-307937,0.293607151,4071,128,8.498019397,117829,160941.4063,30848,128
-0.572862097,-7943,-22.38071172,-310319,0.221557644,3072,128,8.432028107,116914,160960.9375,31488,128
-0.588656734,-8162,-22.3929724,-310489,0.05625487,780,128,8.29535762,115019,160980.4688,32128,128
-0.038729315,-537,-22.27779416,-308892,1.183876536,16415,128,8.278336916,114783,161000,32768,128
-0.57697303,-8000,-22.35020427,-309896,1.178755901,16344,128,8.258214981,114504,161019.5313,33408,128
-0.590820383,-8192,-22.33794359,-309726,1.181496523,16382,128,8.260667117,114538,161039.0625,34048,128
-0.367892428,-5101,-22.29719487,-309161,1.146445411,15896,128,8.171092054,113296,161058.5938,34688,128
-0.588296126,-8157,-22.35604612,-309977,1.178828022,16345,128,8.157316823,113105,161078.125,35328,128
-0.452923829,-6280,-22.31378285,-309391,1.107788218,15360,128,8.123852387,112641,161097.6563,35968,128
-0.295482313,-4097,-22.20271554,-307851,1.151638168,15968,128,8.101278317,112328,161117.1875,36608,128
-1.181352279,-16380,-22.35799341,-310004,1.172409197,16256,128,8.060024745,111756,161136.7188,37248,128
-0.438427381,-6079,-22.36484496,-310099,1.166639467,16176,128,8.005356551,110998,161156.25,37888,128
-0.58627672,-8129,-22.38669782,-310402,1.149258155,15935,128,7.979104278,110634,161175.7813,38528,128
-0.443115287,-6144,-22.35294489,-309934,1.130578653,15676,128,7.920325151,109819,161195.3125,39168,128
-0.588584612,-8161,-22.31738893,-309441,1.162744899,16122,128,7.920253029,109818,161214.8438,39808,128
-0.549999541,-7626,-22.40112214,-310602,1.18048682,16368,128,7.896452891,109488,161234.375,40448,128
-0.572429368,-7937,-22.4179986,-310836,1.162672777,16121,128,7.878638849,109241,161253.9063,41088,128
-0.443115287,-6144,-22.25788859,-308616,1.179044387,16348,128,7.862411483,109016,161273.4375,41728,128
-0.582526396,-8077,-22.36873953,-310153,1.181352279,16380,128,7.862988456,109024,161292.9688,42368,128
-0.44809168,-6213,-22.31883136,-309461,1.123943463,15584,128,7.766706081,107689,161312.5,43008,128
-0.589738558,-8177,-22.33239023,-309649,1.1167313,15484,128,7.688742601,106608,161332.0313,43648,128
-1.117019786,-15488,-22.38301961,-310351,0.553605622,7676,128,7.627006486,105752,161351.5625,44288,128
-0.407415081,-5649,-22.24714246,-308467,0.576684544,7996,128,7.609697295,105512,161371.0938,44928,128
-0.018030407,-250,-22.17206385,-307426,0.001153946,16,128,7.961362357,110388,161390.625,45568,128
-0.369046374,-5117,-22.30332521,-309246,1.048215753,14534,128,7.899770486,109534,161410.1563,46208,128
-0.572429368,-7937,-22.28579966,-309003,0.558437772,7743,128,7.389654206,102461,161429.6875,46848,128
-1.144858735,-15874,-22.42290287,-310904,0.577477882,8007,128,7.519617381,104263,161449.2188,47488,128
-0.002596379,-36,-22.43350475,-311051,0.553821987,7679,128,7.516948881,104226,161468.75,48128,128
-0.521583619,-7232,-22.38020687,-310312,0.554543204,7689,128,7.534907166,104475,161488.2813,48768,128
-0.44325953,-6146,-22.28082326,-308934,0.520357552,7215,128,7.517453732,104233,161507.8125,49408,128
-0.581733058,-8066,-22.29438213,-309122,0.552956528,7667,128,7.486152945,103799,161527.3438,50048,128
-1.035161738,-14353,-22.33513085,-309687,0.589738558,8177,128,7.520627084,104277,161546.875,50688,128
-0.387725876,-5376,-22.26048496,-308652,0.577045152,8001,128,7.52091557,104281,161566.4063,51328,128
-0.113014592,-1567,-22.24065152,-308377,0.590748261,8191,128,7.578973482,105086,161585.9375,51968,128
-0.295554435,-4098,-22.28745845,-309026,0.517833295,7180,128,7.554307884,104744,161605.4688,52608,128
-1.052326685,-14591,-22.35258428,-309929,0.589666437,8176,128,7.51117915,104146,161625,53248,128
-0.026829246,-372,-22.42196529,-310891,0.444485598,6163,128,7.303324616,101264,161644.5313,53888,128
-1.181640766,-16384,-22.43458658,-311066,0.004471541,62,128,7.186054848,99638,161664.0625,54528,128
-1.163177629,-16128,-22.42982655,-311000,2.16E-04,3,128,7.142277019,99031,161683.5938,55168,128
-0.046157842,-640,-22.50418395,-312031,1.173274657,16268,128,7.066188701,97976,161703.125,55808,128
-0.44325953,-6146,-22.33650116,-309706,1.172625562,16259,128,7.062582619,97926,161722.6563,56448,128
-1.144786614,-15873,-22.41460889,-310789,1.172409197,16256,128,6.999836802,97056,161742.1875,57088,128
-1.181568644,-16383,-22.37537472,-310245,1.108293069,15367,128,6.960963245,96517,161761.7188,57728,128
-0.069885858,-969,-22.5046888,-312038,1.179332874,16352,128,6.931609742,96110,161781.25,58368,128
-6.49E-04,-9,-22.50144333,-311993,1.166711589,16177,128,6.895188319,95605,161800.7813,59008,128
-0.002091527,-29,-22.47785955,-311666,1.116947665,15487,128,6.875138506,95327,161820.3125,59648,128
-1.067400106,-14800,-22.3229423,-309518,1.17695286,16319,128,6.816503622,94514,161839.8438,60288,128
-1.034296278,-14341,-22.34659819,-309846,1.174067995,16279,128,6.789169525,94135,161859.375,60928,128
-1.155172128,-16017,-22.42485016,-310931,1.181352279,16380,128,6.752603859,93628,161878.9063,61568,128
-0.055461533,-769,-22.51074702,-312122,1.174140116,16280,128,6.714884247,93105,161898.4375,62208,128
-1.16498067,-16153,-22.4393466,-311132,1.18005409,16362,128,6.716687288,93130,161917.9688,62848,128
-1.068842538,-14820,-22.33404903,-309672,1.181568644,16383,128,6.693896853,92814,161937.5,63488,128
-1.105696691,-15331,-22.47749895,-311661,1.164259453,16143,128,6.717264261,93138,161957.0313,64128,128
-1.181208036,-16378,-22.37241773,-310204,1.180342577,16366,128,6.665769418,92424,161976.5625,64768,128
-0.036998396,-513,-22.4896875,-311830,1.179332874,16352,128,6.561770029,90982,161996.0938,65408,128
-1.174572846,-16286,-22.41843133,-310842,0.57343907,7951,128,6.482508359,89883,162015.625,512,128
-0.05091787,-706,-22.50238091,-312006,0.586997937,8139,128,6.467434939,89674,162035.1563,1152,128
-1.154018182,-16001,-22.35114185,-309909,1.78537092,24755,128,6.567323395,91059,162054.6875,1792,128
-1.177601955,-16328,-22.4286726,-310984,2.358593626,32703,128,6.981445787,96801,162074.2188,2432,128
-1.151638168,-15968,-22.35640673,-309982,0.443187409,6145,128,6.226332334,86331,162093.75,3072,128
-1.145002978,-15876,-22.35099761,-309907,0.590748261,8191,128,6.276240501,87023,162113.2813,3712,128
-1.179404995,-16353,-22.41295009,-310766,0.590459775,8187,128,6.337688129,87875,162132.8125,4352,128
-0.003750325,-52,-22.46408432,-311475,0.572357246,7936,128,6.333072344,87811,162152.3438,4992,128
-1.112476124,-15425,-22.38323598,-310354,0.586781572,8136,128,6.3195856,87624,162171.875,5632,128
-1.107283367,-15353,-22.36715285,-310131,0.58757491,8147,128,6.306531585,87443,162191.4063,6272,128
-1.112476124,-15425,-22.40169911,-310610,0.589089464,8168,128,6.312734045,87529,162210.9375,6912,128
-0.057697303,-800,-22.51038641,-312117,0.587935518,8152,128,6.339202683,87896,162230.4688,7552,128
-1.172553441,-16258,-22.36217646,-310062,0.553894109,7680,128,6.354780955,88112,162250,8192,128
-0.018246772,-253,-22.53851384,-312507,0.588512491,8160,128,6.387884782,88571,162269.5313,8832,128
-0.017886164,-248,-22.51983434,-312248,0.516967835,7168,128,6.37007074,88324,162289.0625,9472,128
-1.149330276,-15936,-22.41763799,-310831,0.515886011,7153,128,6.275375041,87011,162308.5938,10112,128
-1.108076705,-15364,-22.37753837,-310275,0.149436015,2072,128,6.083026657,84344,162328.125,10752,128
-1.144786614,-15873,-22.42384045,-310917,0.113591565,1575,128,6.035570626,83686,162347.6563,11392,128
-0.05315364,-737,-22.42888897,-310987,0.032887463,456,128,5.970012065,82777,162367.1875,12032,128
-1.218494918,-16895,-22.5983748,-313337,0.004543663,63,128,5.948375577,82477,162386.7188,12672,128
-7.21E-05,-1,-22.48817295,-311809,1.164187332,16142,128,5.876614556,81482,162406.25,13312,128
-1.19952693,-16632,-22.46213704,-311448,1.167504927,16188,128,5.861252649,81269,162425.7813,13952,128
-1.410699059,-19560,-22.63457985,-313839,1.112620367,15427,128,5.839976768,80974,162445.3125,14592,128
-7.21E-05,-1,-22.41835921,-310841,1.16721644,16184,128,5.750762314,79737,162464.8438,15232,128
-1.255493314,-17408,-22.52243072,-312284,1.126179233,15615,128,5.774995181,80073,162484.375,15872,128
-1.440268927,-19970,-22.60508211,-313430,1.116947665,15487,128,5.702008093,79061,162503.9063,16512,128
-1.473589119,-20432,-22.65960606,-314186,1.116947665,15487,128,5.694579565,78958,162523.4375,17152,128
-1.197796011,-16608,-22.61489065,-313566,1.068770417,14819,128,5.647628385,78307,162542.9688,17792,128
-1.297035372,-17984,-22.57075221,-312954,1.116875543,15486,128,5.694579565,78958,162562.5,18432,128
-1.186833523,-16456,-22.64323445,-313959,1.177241347,16323,128,5.673015198,78659,162582.0313,19072,128
-1.3611515,-18873,-22.62159796,-313659,1.181496523,16382,128,5.611928178,77812,162601.5625,19712,128
-1.202411795,-16672,-22.58265228,-313119,1.108653678,15372,128,5.551418132,76973,162621.0938,20352,128
-1.257873327,-17441,-22.61229427,-313530,1.035017495,14351,128,5.466675218,75798,162640.625,20992,128
-1.295232331,-17959,-22.67554494,-314407,1.105480326,15328,128,5.38928871,74725,162660.1563,21632,128
0,0,-22.58157046,-313104,0.15232088,2112,128,5.794972872,80350,162699.2188,22912,0
-1.402188707,-19442,-22.72040459,-315029,0.812378027,11264,128,5.200979138,72114,162718.75,23552,128
-1.384807394,-19201,-22.68650743,-314559,0.581011841,8056,128,5.22723141,72478,162738.2813,24192,128
-1.418199708,-19664,-22.71016332,-314887,0.016155245,224,128,5.421671322,75174,162757.8125,24832,128
-1.475969133,-20465,-22.67792495,-314440,1.144786614,15873,128,5.496605694,76213,162777.3438,25472,128
-1.422238519,-19720,-22.6057312,-313439,1.164259453,16143,128,5.445904189,75510,162796.875,26112,128
-1.440557413,-19974,-22.65015813,-314055,1.181568644,16383,128,5.492999612,76163,162816.4063,26752,128
-1.474815187,-20449,-22.66487094,-314259,1.14904179,15932,128,5.476628003,75936,162835.9375,27392,128
-1.419353654,-19680,-22.62167008,-313660,1.173274657,16268,128,5.494081437,76178,162855.4688,28032,128
-1.333528916,-18490,-22.59476871,-313287,1.180414698,16367,128,5.514636101,76463,162875,28672,128
-1.182001374,-16389,-22.56981463,-312941,0.004399419,61,128,5.515068831,76469,162894.5313,29312,128
-1.25664726,-17424,-22.57709892,-313042,1.108797921,15374,128,5.540383523,76820,162914.0625,29952,128
-1.315498509,-18240,-22.60046632,-313366,1.079949269,14974,128,5.454630906,75631,162933.5938,30592,128
-1.329345862,-18432,-22.55596728,-312749,0.587286423,8143,128,5.27504805,73141,162953.125,31232,128
-1.1990942,-16626,-22.61344822,-313546,0.516895713,7167,128,5.155542511,71484,162972.6563,31872,128
-1.326893726,-18398,-22.57998378,-313082,0.535142486,7420,128,5.11739017,70955,162992.1875,32512,128
-1.217413094,-16880,-22.5747189,-313009,0.59024341,8184,128,5.081257234,70454,163011.7188,33152,128
-1.362233324,-18888,-22.62397797,-313692,0.572934219,7944,128,5.063154705,70203,163031.25,33792,128
-1.329490105,-18434,-22.6067409,-313453,0.556274123,7713,128,5.048730379,70003,163050.7813,34432,128
-1.310882725,-18176,-22.54716844,-312627,0.517544808,7176,128,5.024136904,69662,163070.3125,35072,128
-1.330499808,-18448,-22.60118754,-313376,0.517256322,7172,128,5.009568335,69460,163089.8438,35712,128
-1.358843608,-18841,-22.628738,-313758,0.290217434,4024,128,4.997524023,69293,163109.375,36352,128
-1.214888837,-16845,-22.59036929,-313226,0.294184124,4079,128,4.945452207,68571,163128.9063,36992,128
-1.428873709,-19812,-22.62498768,-313706,0.214489724,2974,128,4.906722892,68034,163148.4375,37632,128
-1.463203605,-20288,-22.64042171,-313920,0.073564061,1020,128,4.84996317,67247,163167.9688,38272,128
-1.329345862,-18432,-22.60695727,-313456,0.076088318,1055,128,4.817508437,66797,163187.5,38912,128
-1.773038122,-24584,-22.63977261,-313911,0.101763618,1411,128,4.821979978,66859,163207.0313,39552,128
-1.329922835,-18440,-22.57825286,-313058,0.063971885,887,128,4.794718003,66481,163226.5625,40192,128
-1.301651156,-18048,-22.59411962,-313278,0.139627473,1936,128,4.798540449,66534,163246.0938,40832,128
-1.785443042,-24756,-22.61957855,-313631,1.144930857,15875,128,4.665115436,64684,163265.625,41472,128
-1.811623193,-25119,-22.63111802,-313791,1.172481319,16257,128,4.608716322,63902,163285.1563,42112,128
-1.809387423,-25088,-22.63378652,-313828,1.163393994,16131,128,4.554336614,63148,163304.6875,42752,128
-1.844222169,-25571,-22.64352294,-313963,1.163177629,16128,128,4.592344712,63675,163324.2188,43392,128
-1.18625655,-16448,-22.48687476,-311791,0.147921461,2051,128,5.151575822,71429,163343.75,44032,128
-1.219071891,-16903,-22.62051614,-313644,0.14655115,2032,128,4.331913511,60064,163363.2813,44672,128
-1.475320038,-20456,-22.58142621,-313102,1.151638168,15968,128,4.304290927,59681,163382.8125,45312,128
-1.774769041,-24608,-22.57731528,-313045,1.042878752,14460,128,4.452068144,61730,163402.3438,45952,128
-1.775346014,-24616,-22.62231918,-313669,1.126323477,15617,128,4.447091752,61661,163421.875,46592,128
-1.814003207,-25152,-22.62780042,-313745,1.179477117,16354,128,4.437211089,61524,163441.4063,47232,128
-1.827922681,-25345,-22.63746472,-313879,1.145219343,15879,128,4.439518981,61556,163460.9375,47872,128
-1.342688363,-18617,-22.58459956,-313146,1.126756206,15623,128,4.419685533,61281,163480.4688,48512,128
-1.467386659,-20346,-22.60580332,-313440,1.148032087,15918,128,4.453871185,61755,163500,49152,128
-1.218494918,-16895,-22.55957336,-312799,1.164187332,16142,128,4.487407742,62220,163519.5313,49792,128
-1.333961646,-18496,-22.58120985,-313099,1.179549239,16355,128,4.560394831,63232,163539.0625,50432,128
-1.273235234,-17654,-22.53144592,-312409,1.146950262,15903,128,4.570203372,63368,163558.5938,51072,128
-1.337495606,-18545,-22.60695727,-313456,1.160869737,16096,128,4.416800668,61241,163578.125,51712,128
-1.296602642,-17978,-22.60969789,-313494,1.105480326,15328,128,4.306743062,59715,163597.6563,52352,128
-1.400962639,-19425,-22.57414193,-313001,1.107788218,15360,128,4.205844904,58316,163617.1875,52992,128
-1.777076933,-24640,-22.62542041,-313712,1.144209641,15865,128,4.157667656,57648,163636.7188,53632,128
-1.809315301,-25087,-22.59794207,-313331,0.572285124,7935,128,4.114250435,57046,163656.25,54272,128
-1.776572082,-24633,-22.61186154,-313524,0.554975933,7695,128,4.055687673,56234,163675.7813,54912,128
-1.906463135,-26434,-22.58661897,-313174,0.585339139,8116,128,4.036791806,55972,163695.3125,55552,128
-1.954568261,-27101,-22.67749222,-314434,0.558437772,7743,128,4.01306379,55643,163714.8438,56192,128
-1.790491556,-24826,-22.59599478,-313304,0.554110474,7683,128,4.012414695,55634,163734.375,56832,128
-1.809171058,-25085,-22.63796957,-313886,0.551586217,7648,128,3.939355485,54621,163753.9063,57472,128
-1.842419129,-25546,-22.60443301,-313421,0.576900909,7999,128,3.931061498,54506,163773.4375,58112,128
-1.774696919,-24607,-22.60385604,-313413,0.581516693,8063,128,3.903871644,54129,163792.9688,58752,128
-1.961419816,-27196,-22.67121764,-314347,0.517544808,7176,128,3.828288177,53081,163812.5,59392,128
-1.776572082,-24633,-22.60767849,-313466,0.258700282,3587,128,3.804704404,52754,163832.0313,60032,128
-1.938196652,-26874,-22.63580592,-313856,0.222567346,3086,128,3.790640687,52559,163851.5625,60672,128
-1.786813353,-24775,-22.62808891,-313749,0.220403698,3056,128,3.740660398,51866,163871.0938,61312,128
-1.835351209,-25448,-22.63768108,-313882,0.238938956,3313,128,3.705897773,51384,163890.625,61952,128
-1.78003392,-24681,-22.56822795,-312919,0.146767515,2035,128,3.687218271,51125,163910.1563,62592,128
-1.961419816,-27196,-22.64438839,-313975,0.1107067,1535,128,3.689309798,51154,163929.6875,63232,128
-1.773615095,-24592,-22.62037189,-313642,0.226101306,3135,128,3.697026813,51261,163949.2188,63872,128
-1.788688515,-24801,-22.62693496,-313733,0.145108717,2012,128,3.671279391,50904,163968.75,64512,128
-1.921536555,-26643,-22.6614091,-314211,0.054307586,753,128,3.569948503,49499,163988.2813,65152,128
-1.775346014,-24616,-22.63847442,-313893,1.1424066,15840,128,3.496600806,48482,164007.8125,256,128
-1.845736724,-25592,-22.63912352,-313902,1.121635571,15552,128,3.486648022,48344,164027.3438,896,128
-1.809387423,-25088,-22.60666878,-313452,1.10302819,15294,128,3.472944912,48154,164046.875,1536,128
-1.204575444,-16702,-22.47540742,-311632,1.472651538,20419,128,4.048619753,56136,164066.4063,2176,128
-1.213590647,-16827,-22.59851904,-313339,0.006923676,96,128,3.315864005,45976,164085.9375,2816,128
-1.921969285,-26649,-22.64316233,-313958,1.174644968,16287,128,3.282832299,45518,164105.4688,3456,128
-1.79907403,-24945,-22.63732048,-313877,1.181568644,16383,128,3.355891509,46531,164125,4096,128
-1.781692717,-24704,-22.62628587,-313724,1.108797921,15374,128,3.342693251,46348,164144.5313,4736,128
-1.920238366,-26625,-22.63645502,-313865,1.107788218,15360,128,3.321561613,46055,164164.0625,5376,128
-1.920094123,-26623,-22.57846923,-313061,1.165485521,16160,128,3.311897315,45921,164183.5938,6016,128
-1.844150048,-25570,-22.61878522,-313620,1.128487125,15647,128,3.312041558,45923,164203.125,6656,128
-1.830446938,-25380,-22.59375901,-313273,1.153873939,15999,128,3.31168095,45918,164222.6563,7296,128
-1.329345862,-18432,-22.56808371,-312917,1.174644968,16287,128,3.376085565,46811,164242.1875,7936,128
-1.775995109,-24625,-22.59996147,-313359,1.158994574,16070,128,3.38827412,46980,164261.7188,8576,128
-1.182073496,-16390,-22.61777551,-313606,1.148681182,15927,128,3.438110165,47671,164281.25,9216,128
-1.819772937,-25232,-22.62902649,-313762,1.181352279,16380,128,3.339231412,46300,164300.7813,9856,128
-1.781115744,-24696,-22.5693819,-312935,1.114711894,15456,128,3.180419586,44098,164320.3125,10496,128
-1.911006798,-26497,-22.58943171,-313213,1.152792114,15984,128,3.031272057,42030,164339.8438,11136,128
-1.948221558,-27013,-22.60868819,-313480,1.174428603,16284,128,2.974223849,41239,164359.375,11776,128
-2.04969669,-28420,-22.67770859,-314437,1.125097409,15600,128,2.935350291,40700,164378.9063,12416,128
-1.947933072,-27009,-22.62534828,-313711,0.543436473,7535,128,2.889120327,40059,164398.4375,13056,128
-2.067654975,-28669,-22.69090685,-314620,0.518121781,7184,128,2.859189851,39644,164417.9688,13696,128
-1.77253327,-24577,-22.57796437,-313054,0.589594315,8175,128,2.851977688,39544,164437.5,14336,128
-2.29058293,-31760,-22.67799707,-314441,0.516967835,7168,128,2.809209562,38951,164457.0313,14976,128
-1.929469935,-26753,-22.63530107,-313849,0.554110474,7683,128,2.799473143,38816,164476.5625,15616,128
-1.974978682,-27384,-22.65023025,-314056,0.554110474,7683,128,2.770263883,38411,164496.0938,16256,128
-2.220264342,-30785,-22.68701228,-314566,0.542571013,7523,128,2.721726027,37738,164515.625,16896,128
-2.063327678,-28609,-22.65910121,-314179,0.546681946,7580,128,2.688766442,37281,164535.1563,17536,128
-2.224735883,-30847,-22.66552003,-314268,0.536080067,7433,128,2.665326913,36956,164554.6875,18176,128
-2.011760713,-27894,-22.64662417,-314006,0.285024677,3952,128,2.652489263,36778,164574.2188,18816,128
-2.215864923,-30724,-22.66523155,-314264,0.225884941,3132,128,2.611091448,36204,164593.75,19456,128
-2.289501105,-31745,-22.64849933,-314032,0.291010772,4035,128,2.568467566,35613,164613.2813,20096,128
-2.215864923,-30724,-22.62246342,-313671,0.294328367,4081,128,2.56067843,35505,164632.8125,20736,128
-2.06563557,-28641,-22.60558696,-313437,0.294400489,4082,128,2.605970813,36133,164652.3438,21376,128
-2.358737869,-32705,-22.72321734,-315068,0.22227886,3082,128,2.584190081,35831,164671.875,22016,128
-1.920238366,-26625,-22.59260507,-313257,0.258988769,3591,128,2.536734049,35173,164691.4063,22656,128
-2.35433845,-32644,-22.70554754,-314823,0.129241959,1792,128,2.464973028,34178,164710.9375,23296,128
-1.902929175,-26385,-22.58676321,-313176,0.032815341,455,128,2.396096873,33223,164730.4688,23936,128
-2.065563448,-28640,-22.60594757,-313442,0.006851555,95,128,2.376119182,32946,164750,24576,128
-2.288563524,-31732,-22.66378911,-314244,1.174644968,16287,128,2.32823042,32282,164769.5313,25216,128
-1.774841163,-24609,-22.54933209,-312657,0.265623959,3683,128,2.819955685,39100,164789.0625,25856,128
-2.251997859,-31225,-22.66645761,-314281,2.16E-04,3,128,2.366671248,32815,164808.5938,26496,128
-2.351669949,-32607,-22.67280432,-314369,1.116442813,15480,128,2.158167619,29924,164828.125,27136,128
-2.346044462,-32529,-22.68297347,-314510,1.167432805,16187,128,2.219038274,30768,164847.6563,27776,128
-2.224303153,-30841,-22.66934248,-314321,1.180558941,16369,128,2.277673158,31581,164867.1875,28416,128
-2.061019786,-28577,-22.64034958,-313919,1.108293069,15367,128,2.230866221,30932,164886.7188,29056,128
-1.918002596,-26594,-22.57926256,-313072,1.152070898,15974,128,2.22062495,30790,164906.25,29696,128
-2.362199707,-32753,-22.70497056,-314815,1.161951561,16111,128,2.25206998,31226,164925.7813,30336,128
-2.266638549,-31428,-22.64986964,-314051,1.17695286,16319,128,2.238511114,31038,164945.3125,30976,128
-1.809171058,-25085,-22.56108791,-312820,1.181280158,16379,128,2.292241727,31783,164964.8438,31616,128
-1.915694704,-26562,-22.59440811,-313282,1.181568644,16383,128,2.326283136,32255,164984.375,32256,128
-1.93812453,-26873,-22.62700708,-313734,1.181496523,16382,128,2.31935946,32159,165003.9063,32896,128
-1.93855726,-26879,-22.63357015,-313825,1.16721644,16184,128,2.282793794,31652,165023.4375,33536,128
-1.786308502,-24768,-22.61258276,-313534,1.128559247,15648,128,2.167110701,30048,165042.9688,34176,128
-2.331836502,-32332,-22.69458505,-314671,1.159066696,16071,128,2.00188005,27757,165062.5,34816,128
-2.234039573,-30976,-22.61330397,-313544,1.091416608,15133,128,1.963222857,27221,165082.0313,35456,128
-2.345755976,-32525,-22.7244434,-315085,1.048287874,14535,128,1.891822444,26231,165101.5625,36096,128
-2.289428984,-31744,-22.67028006,-314334,1.163249751,16129,128,1.906967986,26441,165121.0938,36736,128
-2.327509204,-32272,-22.65297087,-314094,1.174933454,16291,128,1.856122238,25736,165140.625,37376,128
-2.279187713,-31602,-22.6303968,-313781,1.123727098,15581,128,1.846530062,25603,165160.1563,38016,128
-2.272191915,-31505,-22.66234668,-314224,1.172409197,16256,128,1.81854687,25215,165179.6875,38656,128
-2.363281532,-32768,-22.68859895,-314588,1.14904179,15932,128,1.789049123,24806,165199.2188,39296,128
-2.326427379,-32257,-22.61013062,-313500,1.038479333,14399,128,1.775273892,24615,165218.75,39936,128
-2.251420885,-31217,-22.64215262,-313944,0.581588814,8064,128,1.752916187,24305,165238.2813,40576,128
-2.362704559,-32760,-22.66169759,-314215,0.581516693,8063,128,1.704883183,23639,165257.8125,41216,128
-2.344457787,-32507,-22.65765877,-314159,0.589666437,8176,128,1.688800059,23416,165277.3438,41856,128
-2.294044768,-31808,-22.69970568,-314742,0.525045457,7280,128,1.658508975,22996,165296.875,42496,128
-3.558697529,-49343,-22.73771378,-315269,0.558437772,7743,128,1.664495071,23079,165316.4063,43136,128
-2.327509204,-32272,-22.68196376,-314496,0.579280922,8032,128,1.698175871,23546,165335.9375,43776,128
-3.581920693,-49665,-22.79432926,-316054,0.516895713,7167,128,1.675313315,23229,165355.4688,44416,128
-2.363281532,-32768,-22.71766397,-314991,0.560817785,7776,128,1.552490181,21526,165375,45056,128
-3.562880583,-49401,-22.75761935,-315545,0.563125677,7808,128,1.523497286,21124,165394.5313,45696,128
-3.619063332,-50180,-22.70338389,-314793,0.445351058,6175,128,1.469983038,20382,165414.0625,46336,128
-2.331043164,-32321,-22.75163326,-315462,0.258700282,3587,128,1.444379859,20027,165433.5938,46976,128
-2.349434179,-32576,-22.64842721,-314031,1.186184428,16447,128,1.805348612,25032,165453.125,47616,128
-2.254810602,-31264,-22.72350582,-315072,1.18048682,16368,128,1.696444952,23522,165472.6563,48256,128
-3.840332489,-53248,-22.7367762,-315256,0.02791107,387,128,1.210705782,16787,165492.1875,48896,128
-3.842712503,-53281,-22.76663456,-315670,0.111860646,1551,128,1.345501106,18656,165511.7188,49536,128
-3.858939869,-53506,-22.81062875,-316280,0.183477424,2544,128,1.36425273,18916,165531.25,50176,128
-3.577449152,-49603,-22.79937778,-316124,0.235404996,3264,128,1.373267934,19041,165550.7813,50816,128
-3.546076244,-49168,-22.78928075,-315984,0.260719688,3615,128,1.370238825,18999,165570.3125,51456,128
-3.854251963,-53441,-22.82599066,-316493,0.231005577,3203,128,1.375431582,19071,165589.8438,52096,128
-3.551845974,-49248,-22.75264296,-315476,0.291010772,4035,128,1.371681258,19019,165609.375,52736,128
-3.858290775,-53497,-22.754446,-315501,0.288198029,3996,128,1.403775382,19464,165628.9063,53376,128
-3.812709905,-52865,-22.72401067,-315079,0.278028879,3855,128,1.451880509,20131,165648.4375,54016,128
-3.614303304,-50114,-22.81250391,-316306,0.279182825,3871,128,1.444451981,20028,165667.9688,54656,128
-3.561366029,-49380,-22.79844019,-316111,0.249180227,3455,128,1.406516004,19502,165687.5,55296,128
-3.951471919,-54789,-22.82599066,-316493,0.029930476,415,128,1.275543127,17686,165707.0313,55936,128
-3.868748411,-53642,-22.80428205,-316192,0.007140041,99,128,1.185246847,16434,165726.5625,56576,128
-4.126799599,-57220,-22.85794054,-316936,1.181063793,16376,128,1.131516234,15689,165746.0938,57216,128
-3.874301776,-53719,-22.84567986,-316766,1.181352279,16380,128,1.091056,15128,165765.625,57856,128
-3.857930166,-53492,-22.79908929,-316120,1.127333179,15631,128,1.055283672,14632,165785.1563,58496,128
-3.989263652,-55313,-22.79663715,-316086,1.176448009,16312,128,1.028815034,14265,165804.6875,59136,128
-3.840981584,-53257,-22.78560254,-315933,1.181424401,16381,128,1.013597371,14054,165824.2188,59776,128
-3.690896474,-51176,-22.7217749,-315048,1.146733898,15900,128,1.002779126,13904,165843.75,60416,128
-4.432306818,-61456,-22.83954952,-316681,1.116947665,15487,128,0.976166245,13535,165863.2813,61056,128
-4.016092898,-55685,-22.77464006,-315781,1.181568644,16383,128,0.954601878,13236,165882.8125,61696,128
-4.076891431,-56528,-22.81308088,-316314,1.099638474,15247,128,0.894740927,12406,165902.3438,62336,128
-3.997413397,-55426,-22.75639328,-315528,1.10786034,15361,128,0.897265184,12441,165921.875,62976,128
-4.445144468,-61634,-22.88678919,-317336,1.144714492,15872,128,0.836466651,11598,165941.4063,63616,128
-4.117279544,-57088,-22.77766916,-315823,1.126179233,15615,128,0.796871876,11049,165960.9375,64256,128
-4.448389941,-61679,-22.83738587,-316651,1.108004583,15363,128,0.835673313,11587,165980.4688,64896,128
-4.061962254,-56321,-22.78798256,-315966,1.123943463,15584,128,0.81208954,11260,166000,0,128
-4.006933452,-55558,-22.80586872,-316214,1.091705095,15137,128,0.796727633,11047,166019.5313,640,128
-4.057274348,-56256,-22.7791116,-315843,1.148753303,15928,128,0.731169073,10138,166039.0625,1280,128
-3.835860948,-53186,-22.74240169,-315334,1.107139123,15351,128,0.653638322,9063,166058.5938,1920,128
-4.58116586,-63520,-22.87135516,-317122,1.126179233,15615,128,0.591253113,8198,166078.125,2560,128
-4.08258904,-56607,-22.84344409,-316735,0.517977538,7182,128,0.549134081,7614,166097.6563,3200,128
-4.108120097,-56961,-22.86998485,-317103,1.180775306,16372,128,0.60841806,8436,166117.1875,3840,128
-3.602908087,-49956,-22.61568399,-313577,0.149868745,2078,128,1.212869431,16817,166136.7188,4480,128
-3.905530441,-54152,-22.79505048,-316064,0,0,128,0.244059592,3384,166156.25,5120,128
-4.438942008,-61548,-22.83125554,-316566,0.443620139,6151,128,0.383975552,5324,166175.7813,5760,128
-3.988398193,-55301,-22.75394115,-315494,0.443331652,6147,128,0.447081977,6199,166195.3125,6400,128
-4.145118492,-57474,-22.74672899,-315394,0.553605622,7676,128,0.385345863,5343,166214.8438,7040,128
-4.098888528,-56833,-22.79014621,-315996,0.544662541,7552,128,0.397534418,5512,166234.375,7680,128
-4.103071583,-56891,-22.7587733,-315561,0.544590419,7551,128,0.358300252,4968,166253.9063,8320,128
-4.503923595,-62449,-22.80695055,-316229,0.586204599,8128,128,0.374022767,5186,166273.4375,8960,128
-3.811772324,-52852,-22.71600517,-314968,0.587286423,8143,128,0.421046069,5838,166292.9688,9600,128
-3.830596069,-53113,-22.76555273,-315655,0.589954923,8180,128,0.42861884,5943,166312.5,10240,128
-4.126583234,-57217,-22.79396865,-316049,0.588440369,8159,128,0.472324547,6549,166332.0313,10880,128
-4.024891737,-55807,-22.77117822,-315733,0.590531896,8188,128,0.432008556,5990,166351.5625,11520,128
-4.133218424,-57309,-22.85426233,-316885,0.469656047,6512,128,0.321950951,4464,166371.0938,12160,128
-4.449039036,-61688,-22.80860934,-316252,0.278028879,3855,128,0.133425013,1850,166390.625,12800,128
-4.464617308,-61904,-22.85483931,-316893,0,0,128,0.068515547,950,166410.1563,13440,128
-4.439302616,-61553,-22.76324484,-315623,1.177529833,16327,128,-0.031228665,-433,166429.6875,14080,128
-4.722019401,-65473,-22.78423223,-315914,1.144137519,15864,128,-0.025314692,-351,166449.2188,14720,128
-4.542075937,-62978,-22.83284221,-316588,1.179837725,16359,128,-0.075799832,-1051,166468.75,15360,128
-4.505582393,-62472,-22.79130015,-316012,1.109879745,15389,128,-0.135372297,-1877,166488.2813,16000,128
-4.503923595,-62449,-22.81704757,-316369,1.17695286,16319,128,-0.172154328,-2387,166507.8125,16640,128
-4.652205664,-64505,-22.79360804,-316044,1.145147222,15878,128,-0.179943464,-2495,166527.3438,17280,128
-4.279913816,-59343,-22.738435,-315279,1.17471709,16288,128,-0.22848132,-3168,166546.875,17920,128
-4.652999002,-64516,-22.84091983,-316700,1.172409197,16256,128,-0.264830621,-3672,166566.4063,18560,128
-4.103504312,-56897,-22.75170538,-315463,1.167721292,16191,128,-0.309329666,-4289,166585.9375,19200,128
-4.69894048,-65153,-22.79483411,-316061,1.158056993,16057,128,-0.355920238,-4935,166605.4688,19840,128
-4.431441358,-61444,-22.74146411,-315321,1.154739398,16011,128,-0.392702269,-5445,166625,20480,128
-4.449616009,-61696,-22.89169346,-317404,1.112259759,15422,128,-0.439364963,-6092,166644.5313,21120,128
-4.574386427,-63426,-22.77543339,-315792,1.177024982,16320,128,-0.487037359,-6753,166664.0625,21760,128
-4.725409117,-65520,-22.89313589,-317424,1.172409197,16256,128,-0.467780884,-6486,166683.5938,22400,128
-4.001884938,-55488,-22.7294198,-315154,1.146950262,15903,128,-0.467059668,-6476,166703.125,23040,128
-4.717403617,-65409,-22.81250391,-316306,1.179260752,16351,128,-0.482782183,-6694,166722.6563,23680,128
-4.172668954,-57856,-22.69912871,-314734,1.108220948,15366,128,-0.500956833,-6946,166742.1875,24320,128
-4.712715711,-65344,-22.87669216,-317196,0.587286423,8143,128,-0.662653525,-9188,166761.7188,24960,128
-4.722019401,-65473,-22.79339168,-316041,0.572357246,7936,128,-0.701310718,-9724,166781.25,25600,128
-4.725409117,-65520,-22.82541368,-316485,0.44765895,6207,128,-0.754175872,-10457,166800.7813,26240,128
-4.57366521,-63416,-22.85217081,-316856,1.183804415,16414,128,-0.662509282,-9186,166820.3125,26880,128
-3.829802731,-53102,-22.70323964,-314791,2.211393382,30662,128,-0.144603866,-2005,166839.8438,27520,128
-4.448462063,-61680,-22.77976069,-315852,0.016083123,223,128,-1.115144624,-15462,166859.375,28160,128
-4.463535483,-61889,-22.77903948,-315842,0.29533807,4095,128,-0.941764229,-13058,166878.9063,28800,128
-4.587656806,-63610,-22.75538358,-315514,0.459270532,6368,128,-0.853631598,-11836,166898.4375,29440,128
-4.431152872,-61440,-22.74600777,-315384,0.506582321,7024,128,-0.841082435,-11662,166917.9688,30080,128
-4.432234696,-61455,-22.68412741,-314526,0.572717854,7941,128,-0.845265489,-11720,166937.5,30720,128
-4.726058212,-65529,-22.83377979,-316601,0.516967835,7168,128,-0.858463747,-11903,166957.0313,31360,128
-4.652999002,-64516,-22.75985512,-315576,0.588584612,8161,128,-0.841370921,-11666,166976.5625,32000,128
-3.807949878,-52799,-22.71304819,-314927,0.524035755,7266,128,-0.796078538,-11038,166996.0938,32640,128
-4.433532886,-61473,-22.73879561,-315284,0.549278325,7616,128,-0.790236686,-10957,167015.625,33280,128
-3.622308805,-50225,-22.68088194,-314481,0.554038352,7682,128,-0.727418748,-10086,167035.1563,33920,128
-4.431224994,-61441,-22.77132246,-315735,0.450111085,6241,128,-0.733404843,-10169,167054.6875,34560,128
-3.824321487,-53026,-22.65361996,-314103,0.563053556,7807,128,-0.867262586,-12025,167074.2188,35200,128
-4.431729845,-61448,-22.76562485,-315656,0.179438612,2488,128,-1.012371303,-14037,167093.75,35840,128
-4.653864462,-64528,-22.82332216,-316456,0.015578272,216,128,-1.118894949,-15514,167113.2813,36480,128
-4.726490942,-65535,-22.8154609,-316347,0.009159447,127,128,-1.163249751,-16129,167132.8125,37120,128
-4.691944682,-65056,-22.83421252,-316607,7.21E-05,1,128,-1.188708685,-16482,167152.3438,37760,128
-3.831389407,-53124,-22.69465717,-314672,1.179332874,16352,128,-1.206666971,-16731,167171.875,38400,128
-4.713797535,-65359,-22.77189943,-315743,1.16368248,16135,128,-1.236525325,-17145,167191.4063,39040,128
-4.281284127,-59362,-22.7377859,-315270,1.179837725,16359,128,-1.264220031,-17529,167210.9375,39680,128
-4.432955913,-61465,-22.85873388,-316947,1.177241347,16323,128,-1.264580639,-17534,167230.4688,40320,128
-3.815162041,-52899,-22.69984993,-314744,1.173058292,16265,128,-1.283115898,-17791,167250,40960,128
-4.698868358,-65152,-22.86284481,-317004,1.114928259,15459,128,-1.323936739,-18357,167269.5313,41600,128
-4.281067763,-59359,-22.8154609,-316347,1.181063793,16376,128,-1.341390174,-18599,167289.0625,42240,128
-3.825980285,-53049,-22.73050162,-315169,1.125674382,15608,128,-1.388774084,-19256,167308.5938,42880,128
-4.50500542,-62464,-22.81769667,-316378,1.172914049,16263,128,-1.390649246,-19282,167328.125,43520,128
-4.143892425,-57457,-22.68088194,-314481,1.142334478,15839,128,-1.456640536,-20197,167347.6563,44160,128
-4.431297115,-61442,-22.85779629,-316934,1.178034684,16334,128,-1.43377798,-19880,167367.1875,44800,128
-4.144757884,-57469,-22.70922574,-314874,1.172625562,16259,128,-1.482892809,-20561,167386.7188,45440,128
-4.283231411,-59389,-22.70886513,-314869,1.135410802,15743,128,-1.524434867,-21137,167406.25,46080,128
-4.69894048,-65153,-22.73930046,-315291,1.108076705,15364,128,-1.548739856,-21474,167425.7813,46720,128
-4.724327293,-65505,-22.79108379,-316009,1.126107112,15614,128,-1.53604645,-21298,167445.3125,47360,128
-4.433460764,-61472,-22.84856473,-316806,1.165341278,16158,128,-1.573405453,-21816,167464.8438,48000,128
-4.597393226,-63745,-22.76742789,-315681,1.116514935,15481,128,-1.616029336,-22407,167484.375,48640,128
-4.36198823,-60481,-22.70511481,-314817,1.108004583,15363,128,-1.62461181,-22526,167503.9063,49280,128
-4.357372446,-60417,-22.68456014,-314532,1.153801817,15998,128,-1.618120863,-22436,167523.4375,49920,128
-4.432018332,-61452,-22.75199387,-315467,1.177024982,16320,128,-1.628362134,-22578,167542.9688,50560,128
-4.209450985,-58366,-22.69559475,-314685,1.135482923,15744,128,-1.608528687,-22303,167562.5,51200,128
-4.726058212,-65529,-22.85693083,-316922,1.177601955,16328,128,-1.637954311,-22711,167582.0313,51840,128
-4.217817094,-58482,-22.82375489,-316462,1.178755901,16344,128,-1.719668117,-23844,167601.5625,52480,128
-3.836870651,-53200,-22.73374709,-315214,1.158706088,16066,128,-1.720389333,-23854,167621.0938,53120,128
-4.671173653,-64768,-22.75985512,-315576,1.178755901,16344,128,-1.702070439,-23600,167640.625,53760,128
-4.135454194,-57340,-22.77399096,-315772,0.062817939,871,128,-1.5798964,-21906,167660.1563,54400,128
-2.537383144,-35182,-22.32986597,-309614,1.292347466,17919,128,-1.07554985,-14913,167679.6875,55040,128
-3.614519669,-50117,-22.66047152,-314198,0.473045763,6559,128,-1.854247076,-25710,167699.2188,55680,128
-3.757608981,-52101,-22.64720114,-314014,1.163105507,16127,128,-1.719019022,-23835,167718.75,56320,128
-3.768932077,-52258,-22.72336158,-315070,1.145219343,15879,128,-1.596700739,-22139,167738.2813,56960,128
-3.545499271,-49160,-22.65066298,-314062,1.181568644,16383,128,-1.55111987,-21507,167757.8125,57600,128
-3.697026813,-51261,-22.6914117,-314627,1.146445411,15896,128,-1.553283519,-21537,167777.3438,58240,128
-3.839322786,-53234,-22.69826325,-314722,1.163105507,16127,128,-1.571746656,-21793,167796.875,58880,128
-3.60038383,-49921,-22.65448542,-314115,1.179332874,16352,128,-1.527175489,-21175,167816.4063,59520,128
-3.683684311,-51076,-22.59419174,-313279,1.179332874,16352,128,-1.552922911,-21532,167835.9375,60160,128
-3.605504466,-49992,-22.56750674,-312909,1.163105507,16127,128,-1.498398959,-20776,167855.4688,60800,128
-3.664932688,-50816,-22.54587025,-312609,1.146950262,15903,128,-1.460823591,-20255,167875,61440,128
-3.674236378,-50945,-22.55019755,-312669,1.174644968,16287,128,-1.48202735,-20549,167894.5313,62080,128
-3.558841772,-49345,-22.61856885,-313617,1.181063793,16376,128,-1.552850789,-21531,167914.0625,62720,128
-3.562159367,-49391,-22.61380882,-313551,1.121924057,15556,128,-1.684472762,-23356,167933.5938,63360,128
-4.274721059,-59271,-22.69170018,-314631,0.590171288,8183,128,-1.77426419,-24601,167953.125,64000,128
-3.822446325,-53000,-22.71196636,-314912,0.475425777,6592,128,-1.886846052,-26162,167972.6563,64640,128
-4.590397428,-63648,-22.75704238,-315537,0.516967835,7168,128,-1.916704406,-26576,167992.1875,65280,128
-3.602763844,-49954,-22.65700968,-314150,0.588800977,8164,128,-1.92218565,-26652,168011.7188,384,128
-4.430071048,-61425,-22.72487613,-315091,0.589594315,8175,128,-1.939927571,-26898,168031.25,1024,128
-4.137834208,-57373,-22.71095666,-314898,0.572501489,7938,128,-1.956443424,-27127,168050.7813,1664,128
-4.282870803,-59384,-22.71946701,-315016,0.527281228,7311,128,-1.980243561,-27457,168070.3125,2304,128
-3.767056914,-52232,-22.7004269,-314752,0.520429673,7216,128,-2.008370997,-27847,168089.8438,2944,128
-4.170433184,-57825,-22.67092915,-314343,0.518698754,7192,128,-1.992864846,-27632,168109.375,3584,128
-3.839827638,-53241,-22.6710734,-314345,0.552091068,7655,128,-2.034479026,-28209,168128.9063,4224,128
-3.695223772,-51236,-22.61993916,-313636,0.553894109,7680,128,-2.030151728,-28149,168148.4375,4864,128
-3.822157839,-52996,-22.62109311,-313652,0.278677974,3864,128,-2.082079301,-28869,168167.9688,5504,128
-4.200580025,-58243,-22.63746472,-313879,0.256608755,3558,128,-2.108403696,-29234,168187.5,6144,128
-4.172741076,-57857,-22.6410708,-313929,0.29533807,4095,128,-2.15333547,-29857,168207.0313,6784,128
-3.729553667,-51712,-22.61510701,-313569,0.290722286,4031,128,-2.167110701,-30048,168226.5625,7424,128
-4.374681637,-60657,-22.6324162,-313809,0.239948659,3327,128,-2.197473907,-30469,168246.0938,8064,128
-3.71109053,-51456,-22.612727,-313536,0.285529528,3959,128,-2.190838717,-30377,168265.625,8704,128
-3.821941474,-52993,-22.6030627,-313402,0.130323783,1807,128,-2.2334626,-30968,168285.1563,9344,128
-4.283519898,-59393,-22.64027746,-313918,0.076376805,1059,128,-2.282072578,-31642,168304.6875,9984,128
-4.140069978,-57404,-22.60775061,-313467,0.083011995,1151,128,-2.283442889,-31661,168324.2188,10624,128
-4.274793181,-59272,-22.59361477,-313271,0.11027397,1529,128,-2.269018563,-31461,168343.75,11264,128
-3.836221556,-53191,-22.59332628,-313267,0.074934372,1039,128,-2.243775993,-31111,168363.2813,11904,128
-4.357877297,-60424,-22.62015553,-313639,0.00223577,31,128,-2.328807393,-32290,168382.8125,12544,128
-4.138050573,-57376,-22.60118754,-313376,5.77E-04,8,128,-2.362488194,-32757,168402.3438,13184,128
-4.359752459,-60450,-22.62931497,-313766,1.177169225,16322,128,-2.441605621,-33854,168421.875,13824,128
-4.387302922,-60832,-22.62801679,-313748,1.102451217,15286,128,-2.46107846,-34124,168441.4063,14464,128
-2.949558252,-40897,-22.4099931,-310725,0.008221866,114,128,-2.345828098,-32526,168460.9375,15104,128
-2.446365648,-33920,-21.95036196,-304352,0.147416609,2044,128,-1.837082128,-25472,168480.4688,15744,128
-4.580661008,-63513,-22.62390585,-313691,1.177457711,16326,128,-2.754036516,-38186,168500,16384,128
-4.162571926,-57716,-22.51262218,-312148,1.12603499,15613,128,-2.568900295,-35619,168519.5313,17024,128
-3.618774845,-50176,-22.52120465,-312267,1.108365191,15368,128,-2.495985329,-34608,168539.0625,17664,128
-4.154782791,-57608,-22.51464158,-312176,1.179549239,16355,128,-2.515386047,-34877,168558.5938,18304,128
-4.173245927,-57864,-22.48925477,-311824,1.124015584,15585,128,-2.475574908,-34325,168578.125,18944,128
-4.145118492,-57474,-22.46055036,-311426,1.138584153,15787,128,-2.480190692,-34389,168597.6563,19584,128
-3.540595,-49092,-22.44251996,-311176,1.167721292,16191,128,-2.465261515,-34182,168617.1875,20224,128
-3.507996024,-48640,-22.40321367,-310631,1.177529833,16327,128,-2.454659635,-34035,168636.7188,20864,128
-2.806468941,-38913,-22.31508104,-309409,1.145796316,15887,128,-2.382970736,-33041,168656.25,21504,128
-2.950640076,-40912,-22.2645959,-308709,0.008654595,120,128,-2.328374663,-32284,168675.7813,22144,128
-2.880321488,-39937,-22.23776665,-308337,0.110778822,1536,128,-2.284596835,-31677,168695.3125,22784,128
-2.935710899,-40705,-22.28803543,-309034,1.162817021,16123,128,-2.382105277,-33029,168714.8438,23424,128
-3.471141871,-48129,-22.40941613,-310717,1.144786614,15873,128,-2.540917103,-35231,168734.375,24064,128
-3.527108255,-48905,-22.43357687,-311052,1.103388799,15299,128,-2.621549084,-36349,168753.9063,24704,128
-4.199858809,-58233,-22.51139611,-312131,1.153873939,15999,128,-2.723456946,-37762,168773.4375,25344,128
-4.168558022,-57799,-22.47461408,-311621,1.108797921,15374,128,-2.713215675,-37620,168792.9688,25984,128
-4.135814802,-57345,-22.45845884,-311397,1.107788218,15360,128,-2.714081134,-37632,168812.5,26624,128
-3.543840473,-49137,-22.42254226,-310899,1.1167313,15484,128,-2.725909081,-37796,168832.0313,27264,128
-3.508861483,-48652,-22.43725508,-311103,1.108004583,15363,128,-2.751440138,-38150,168851.5625,27904,128
-3.49010986,-48392,-22.40040092,-310592,1.181352279,16380,128,-2.736006109,-37936,168871.0938,28544,128
-3.528262201,-48921,-22.4206671,-310873,1.106057299,15336,128,-2.764277788,-38328,168890.625,29184,128
-3.516722741,-48761,-22.42254226,-310899,1.114784016,15457,128,-2.789736723,-38681,168910.1563,29824,128
-3.543912595,-49138,-22.41136341,-310744,1.117236151,15491,128,-2.778197262,-38521,168929.6875,30464,128
-3.530497972,-48952,-22.39859788,-310567,1.111322178,15409,128,-2.793342804,-38731,168949.2188,31104,128
-3.544994419,-49153,-22.46509403,-311489,1.176736495,16316,128,-2.8303412,-39244,168968.75,31744,128
-3.536844675,-49040,-22.43343263,-311050,1.180703185,16371,128,-2.840582471,-39386,168988.2813,32384,128
-3.54369623,-49135,-22.37595169,-310253,1.171832224,16248,128,-2.798751926,-38806,169007.8125,33024,128
-4.136319654,-57352,-22.45175152,-311304,1.18048682,16368,128,-2.866257771,-39742,169027.3438,33664,128
-3.489893495,-48389,-22.39614575,-310533,1.135555045,15745,128,-2.850607377,-39525,169046.875,34304,128
-3.542975014,-49125,-22.37544684,-310246,1.181063793,16376,128,-2.810291387,-38966,169066.4063,34944,128
-3.517155471,-48767,-22.39571302,-310527,1.112692489,15428,128,-2.864382608,-39716,169085.9375,35584,128
-3.472223696,-48144,-22.40609853,-310671,1.181568644,16383,128,-2.825292686,-39174,169105.4688,36224,128
-3.405366946,-47217,-22.34876184,-309876,1.16368248,16135,128,-2.804377413,-38884,169125,36864,128
-3.434359841,-47619,-22.34984366,-309891,1.125746504,15609,128,-2.867483838,-39759,169144.5313,37504,128
-3.538070743,-49057,-22.43509143,-311073,0.587286423,8143,128,-2.966867443,-41137,169164.0625,38144,128
-3.544417446,-49145,-22.40220397,-310617,0.585699747,8121,128,-2.969031092,-41167,169183.5938,38784,128
-3.516794862,-48762,-22.42016225,-310866,0.562909313,7805,128,-2.986051796,-41403,169203.125,39424,128
-2.952082509,-40932,-21.85891174,-303084,2.288852011,31736,128,-2.590031933,-35912,169222.6563,40064,128
-3.28643838,-45568,-22.18288209,-307576,1.126179233,15615,128,-2.715162959,-37647,169242.1875,40704,128
-3.434215597,-47617,-22.34840123,-309871,0.59024341,8184,128,-3.105268849,-43056,169261.7188,41344,128
-3.542686527,-49121,-22.36181585,-310057,0.517472686,7175,128,-3.006317974,-41684,169281.25,41984,128
-3.392889904,-47044,-22.29914216,-309188,1.181496523,16382,128,-2.91140591,-40368,169300.7813,42624,128
-4.726490942,-65535,-22.31133071,-309357,0.517039957,7169,128,-2.906718005,-40303,169339.8438,43904,156
-3.393755364,-47056,-22.28572753,-309002,1.10786034,15361,128,-2.893952476,-40126,169359.375,44544,128
-3.253911525,-45117,-22.21122589,-307969,1.178972266,16347,128,-2.8330097,-39281,169378.9063,45184,128
-3.100725186,-42993,-22.13910426,-306969,1.175871036,16304,128,-2.77985606,-38544,169398.4375,45824,128
-2.644555884,-36668,-22.08897973,-306274,1.180703185,16371,128,-2.735717623,-37932,169417.9688,46464,128
-2.625876382,-36409,-22.05897713,-305858,1.144858735,15874,128,-2.70283016,-37476,169437.5,47104,128
-2.653571088,-36793,-22.0788827,-306134,1.174140116,16280,128,-2.706436241,-37526,169457.0313,47744,128
-3.251747877,-45087,-22.16665473,-307351,1.146733898,15900,128,-2.834884862,-39307,169476.5625,48384,128
-3.28643838,-45568,-22.24368063,-308419,1.091056,15128,128,-2.963910456,-41096,169496.0938,49024,128
-3.429599813,-47553,-22.25183037,-308532,0.589738558,8177,128,-2.987061499,-41417,169515.625,49664,128
-3.385821985,-46946,-22.25305644,-308549,0.526127282,7295,128,-3.028819922,-41996,169535.1563,50304,128
-3.285717164,-45558,-22.23769453,-308336,0.518049659,7183,128,-3.016631367,-41827,169554.6875,50944,128
-3.322499194,-46068,-22.24476245,-308434,0.590748261,8191,128,-3.043749099,-42203,169574.2188,51584,128
-3.300357854,-45761,-22.23062661,-308238,0.589882802,8179,128,-3.048725492,-42272,169593.75,52224,128
-3.397722053,-47111,-22.23740604,-308332,0.572357246,7936,128,-3.054567344,-42353,169613.2813,52864,128
-3.250016958,-45063,-22.21497622,-308021,0.568823286,7887,128,-3.069568642,-42561,169632.8125,53504,128
-3.415175487,-47353,-22.17833843,-307513,0.581300328,8060,128,-3.043460613,-42199,169652.3438,54144,128
-3.269057068,-45327,-22.19002213,-307675,0.521799984,7235,128,-3.090628158,-42853,169671.875,54784,128
-3.453111464,-47879,-22.19571974,-307754,0.590604018,8189,128,-3.119693174,-43256,169691.4063,55424,128
-3.397289323,-47105,-22.20704284,-307911,0.572357246,7936,128,-3.160297651,-43819,169710.9375,56064,128
-3.425561002,-47497,-22.13751759,-306947,0.590748261,8191,128,-3.122722283,-43298,169730.4688,56704,128
-3.245184808,-44996,-22.18093481,-307549,0.590531896,8188,128,-3.132530824,-43434,169750,57344,128
-3.291126286,-45633,-22.16593351,-307341,0.538604324,7468,128,-3.133901135,-43453,169769.5313,57984,128
-3.398371148,-47120,-22.15915408,-307247,0.571708151,7927,128,-3.122217431,-43291,169789.0625,58624,128
-2.956193442,-40989,-22.09640826,-306377,0.572357246,7936,128,-3.14738788,-43640,169808.5938,59264,128
-3.232130794,-44815,-22.13629152,-306930,0.521511498,7231,128,-3.250738174,-45073,169828.125,59904,128
-3.434287719,-47618,-22.16405835,-307315,0.279327068,3873,128,-3.325311938,-46107,169847.6563,60544,128
-3.544922298,-49152,-22.14134003,-307000,0.293607151,4071,128,-3.329422871,-46164,169867.1875,61184,128
-3.248502403,-45042,-21.91091143,-303805,1.301579035,18047,128,-3.180563829,-44100,169886.7188,61824,128
-2.769470545,-38400,-21.52123827,-298402,1.781620596,24703,128,-2.69309374,-37341,169906.25,62464,128
-3.249295741,-45053,-22.18165602,-307559,1.144714492,15872,128,-3.653825957,-50662,169925.7813,63104,128
-3.231193212,-44802,-22.08176757,-306174,1.174644968,16287,128,-3.481022534,-48266,169945.3125,63744,128
-3.543840473,-49137,-22.12475206,-306770,0.073924669,1025,128,-3.453976924,-47891,169964.8438,64384,128
-3.248646647,-45044,-22.11984779,-306702,0.087555657,1214,128,-3.456861789,-47931,169984.375,65024,128
-3.517155471,-48767,-22.12691571,-306800,0.073924669,1025,128,-3.492273509,-48422,170003.9063,128,128
-3.23328474,-44831,-22.12266053,-306741,0.031949882,443,128,-3.466165479,-48060,170023.4375,768,128
-3.509438456,-48660,-22.04000915,-305595,1.182866834,16401,128,-3.433999233,-47614,170042.9688,1408,128
-3.170827409,-43965,-22.02803696,-305429,0.111860646,1551,128,-3.451452667,-47856,170062.5,2048,128
-3.179770491,-44089,-21.97466695,-304689,0.143089311,1984,128,-3.394692945,-47069,170082.0313,2688,128
-3.09957124,-42977,-21.95065045,-304356,0.293102299,4064,128,-3.366349145,-46676,170101.5625,3328,128
-3.027665976,-41980,-21.91242598,-303826,0.276947054,3840,128,-3.33115379,-46188,170121.0938,3968,128
-2.954246158,-40962,-22.07289661,-306051,2.88E-04,4,128,-3.486648022,-48344,170140.625,4608,128
-3.12214531,-43290,-22.09193672,-306315,7.21E-05,1,128,-3.57780976,-49608,170160.1563,5248,128
-3.530642215,-48954,-22.15331222,-307166,1.042013293,14448,128,-3.694141948,-51221,170179.6875,5888,128
-3.526819769,-48901,-22.19355609,-307724,1.181135914,16377,128,-3.767345401,-52236,170199.2188,6528,128
-3.314205207,-45953,-22.2072592,-307914,1.106057299,15336,128,-3.779029105,-52398,170218.75,7168,128
-3.284779583,-45545,-22.18194451,-307563,1.181568644,16383,128,-3.780543659,-52419,170238.2813,7808,128
-3.286366258,-45567,-22.18829121,-307651,1.144714492,15872,128,-3.807372905,-52791,170257.8125,8448,128
-3.249800593,-45060,-22.17595842,-307480,1.108725799,15373,128,-3.814008095,-52883,170277.3438,9088,128
-3.28687111,-45574,-22.18583908,-307617,1.177097103,16321,128,-3.843145233,-53287,170296.875,9728,128
-3.249584228,-45057,-22.1972343,-307775,1.116010084,15474,128,-3.857497437,-53486,170316.4063,10368,128
-3.264513405,-45264,-22.19095971,-307688,1.17695286,16319,128,-3.893486129,-53985,170335.9375,11008,128
-3.254055769,-45119,-22.1869209,-307632,1.18048682,16368,128,-3.909064401,-54201,170355.4688,11648,128
-3.286366258,-45567,-22.1955755,-307752,1.173491022,16271,128,-3.91209351,-54243,170375,12288,128
-3.530065242,-48946,-22.18071844,-307546,1.144930857,15875,128,-3.88201879,-53826,170394.5313,12928,128
-3.544922298,-49152,-22.15078797,-307131,1.147022384,15904,128,-3.874373898,-53720,170414.0625,13568,128
-3.475685534,-48192,-22.1795645,-307530,1.086440216,15064,128,-4.003471613,-55510,170433.5938,14208,128
-3.270283135,-45344,-22.19067123,-307684,1.163754602,16136,128,-4.038378482,-55994,170453.125,14848,128
-3.398371148,-47120,-22.20747557,-307917,1.070789822,14847,128,-4.103071583,-56891,170472.6563,15488,128
-3.473377642,-48160,-22.21072104,-307962,1.106345785,15340,128,-4.126511112,-57216,170492.1875,16128,128
-3.028026584,-41985,-21.69454654,-300805,0.036421423,505,128,-3.784077619,-52468,170511.7188,16768,128
-2.657826264,-36852,-21.84326134,-302867,1.178178928,16336,128,-3.833697299,-53156,170531.25,17408,128
-3.481743751,-48276,-22.24288729,-308408,0.51675147,7165,128,-4.37396042,-60647,170550.7813,18048,128
-3.468761858,-48096,-22.08984519,-306286,0.59067614,8190,128,-4.178582928,-57938,170570.3125,18688,128
-3.424984029,-47489,-22.07707966,-306109,0.589017342,8167,128,-4.149085182,-57529,170589.8438,19328,128
-3.487513481,-48356,-22.10838045,-306543,0.518049659,7183,128,-4.192502402,-58131,170609.375,19968,128
-3.471358236,-48132,-22.05558742,-305811,0.55439896,7687,128,-4.147065776,-57501,170628.9063,20608,128
-3.527108255,-48905,-22.03993702,-305594,0.581444571,8062,128,-4.135814802,-57345,170648.4375,21248,128
-3.471646723,-48136,-21.97546029,-304700,1.14817633,15920,128,-4.09499396,-56779,170667.9688,21888,128
-3.30814699,-45869,-21.92324423,-303976,1.116082205,15475,128,-4.069174417,-56421,170687.5,22528,128
-3.28420261,-45537,-21.83237098,-302716,1.174644968,16287,128,-3.994384288,-55384,170707.0313,23168,128
-2.935783021,-40706,-21.84217952,-302852,1.110673083,15400,128,-3.980320571,-55189,170726.5625,23808,128
-2.654364425,-36804,-21.87009059,-303239,1.178178928,16336,128,-4.008592249,-55581,170746.0938,24448,128
-3.249584228,-45057,-21.96565175,-304564,1.070573458,14844,128,-4.108336462,-56964,170765.625,25088,128
-3.405366946,-47217,-22.05443347,-305795,0.499370158,6924,128,-4.272052559,-59234,170785.1563,25728,128
-3.482537089,-48287,-22.08998943,-306288,0.59067614,8190,128,-4.329028646,-60024,170804.6875,26368,128
-3.480229197,-48255,-22.08897973,-306274,0.521511498,7231,128,-4.331264416,-60055,170824.2188,27008,128
-3.510303916,-48672,-22.08984519,-306286,0.526127282,7295,128,-4.364800974,-60520,170843.75,27648,128
-3.489316522,-48381,-22.09763433,-306394,0.52381939,7263,128,-4.396606612,-60961,170863.2813,28288,128
-3.470997628,-48127,-22.0762142,-306097,0.59024341,8184,128,-4.394154476,-60927,170882.8125,28928,128
-3.461910303,-48001,-22.07491601,-306079,0.549350446,7617,128,-4.401799369,-61033,170902.3438,29568,128
-3.544850176,-49151,-22.04974557,-305730,0.517112078,7170,128,-4.427763155,-61393,170921.875,30208,128
-4.135814802,-57345,-22.05775107,-305841,0.259565742,3599,128,-4.446803265,-61657,170941.4063,30848,128
-3.543335622,-49130,-22.07506026,-306081,0.286178623,3968,128,-4.46339124,-61887,170960.9375,31488,128
-4.208513404,-58353,-22.08436395,-306210,0.29533807,4095,128,-4.473632511,-62029,170980.4688,32128,128
-4.139925735,-57402,-22.04859162,-305714,0.522809687,7249,128,-4.42531102,-61359,171000,32768,128
-3.540667121,-49093,-22.06114078,-305888,0.461866911,6404,128,-4.420623114,-61294,171019.5313,33408,128
-3.544922298,-49152,-22.04844738,-305712,0.236414699,3278,128,-4.490436851,-62262,171039.0625,34048,128
-3.508356632,-48645,-22.0785221,-306129,0.156792421,2174,128,-4.542508667,-62984,171058.5938,34688,128
-4.139781492,-57400,-22.09402825,-306344,0.140492933,1948,128,-4.604821754,-63848,171078.125,35328,128
-4.152186412,-57572,-22.08371485,-306201,0.073852548,1024,128,-4.596095037,-63727,171097.6563,35968,128
-3.512395443,-48701,-21.76753363,-301817,0.003461838,48,128,-4.431441358,-61444,171117.1875,36608,128
-2.367897316,-32832,-21.82191334,-302571,0.923373213,12803,128,-4.446731144,-61656,171136.7188,37248,128
-4.140935438,-57416,-22.11638595,-306654,1.165485521,16160,128,-4.845996481,-67192,171156.25,37888,128
-4.135814802,-57345,-22.01736295,-305281,0,0,128,-4.69187256,-65055,171175.7813,38528,128
-3.47330552,-48159,-22.03936005,-305586,0.016155245,224,128,-4.629415229,-64189,171195.3125,39168,128
-4.136247532,-57351,-22.01779568,-305287,0.115394606,1600,128,-4.610735728,-63930,171214.8438,39808,128
-3.544850176,-49151,-21.99406767,-304958,0.073708305,1022,128,-4.602009011,-63809,171234.375,40448,128
-3.540450757,-49090,-21.97019541,-304627,0.221557644,3072,128,-4.563784547,-63279,171253.9063,41088,128
-3.304901517,-45824,-21.90283381,-303693,0.258483918,3584,128,-4.512145461,-62563,171273.4375,41728,128
-2.940326684,-40769,-21.86915301,-303226,0.231943158,3216,128,-4.496783554,-62350,171292.9688,42368,128
-2.951938266,-40930,-21.77582762,-301932,0.54639346,7576,128,-4.411391546,-61166,171312.5,43008,128
-2.881980286,-39960,-21.7527487,-301612,0.589882802,8179,128,-4.368262812,-60568,171332.0313,43648,128
-2.834668497,-39304,-21.77900097,-301976,0.479753075,6652,128,-4.406054545,-61092,171351.5625,44288,128
-2.935927264,-40708,-21.92396545,-303986,0.250262052,3470,128,-4.550730532,-63098,171371.0938,44928,128
-3.471141871,-48129,-21.95656442,-304438,0.018391015,255,128,-4.641892271,-64362,171390.625,45568,128
-3.395846891,-47085,-21.99363494,-304952,0.064548858,895,128,-4.696704709,-65122,171410.1563,46208,128
-4.177284739,-57920,-21.99796224,-305012,0.01637161,227,128,-4.7396892,-65718,171429.6875,46848,128
-3.526819769,-48901,-22.05025042,-305737,1.153873939,15999,128,-4.778923366,-66262,171449.2188,47488,128
-4.164591332,-57744,-21.99810648,-305014,1.144714492,15872,128,-4.756709904,-65954,171468.75,48128,128
-4.154205817,-57600,-21.98440337,-304824,1.144930857,15875,128,-4.759522648,-65993,171488.2813,48768,128
-4.140286343,-57407,-22.01289141,-305219,1.111177935,15407,128,-4.801497436,-66575,171507.8125,49408,128
-4.173822901,-57872,-21.97769606,-304731,1.180703185,16371,128,-4.773370001,-66185,171527.3438,50048,128
-4.136247532,-57351,-22.00769866,-305147,1.163393994,16131,128,-4.810512639,-66700,171546.875,50688,128
-4.276019248,-59289,-21.9928416,-304941,1.17695286,16319,128,-4.823566654,-66881,171566.4063,51328,128
-3.535474364,-49021,-21.97978759,-304760,1.146445411,15896,128,-4.806257463,-66641,171585.9375,51968,128
-4.1401421,-57405,-21.95742988,-304450,1.144714492,15872,128,-4.786424015,-66366,171605.4688,52608,128
-4.135814802,-57345,-21.98094153,-304776,1.135482923,15744,128,-4.772648784,-66175,171625,53248,128
-4.164591332,-57744,-21.93557703,-304147,1.146806019,15901,128,-4.827966074,-66942,171644.5313,53888,128
-4.154133696,-57599,-21.97033965,-304629,1.179404995,16353,128,-4.890207039,-67805,171664.0625,54528,128
-4.290659939,-59492,-21.98627853,-304850,1.107788218,15360,128,-4.924536934,-68281,171683.5938,55168,128
-4.265128883,-59138,-21.99377918,-304954,1.177024982,16320,128,-4.951582545,-68656,171703.125,55808,128
-4.250343949,-58933,-21.77662096,-301943,2.137035982,29631,128,-4.805896855,-66636,171722.6563,56448,128
-2.589815568,-35909,-21.32888989,-295735,0.147705096,2048,128,-4.313955225,-59815,171742.1875,57088,128
-4.138339059,-57380,-22.06936265,-306002,0.868849262,12047,128,-5.221173194,-72394,171761.7188,57728,128
-4.267076167,-59165,-21.92086422,-303943,1.137862937,15777,128,-5.024713877,-69670,171781.25,58368,128
-4.164374967,-57741,-21.95714139,-304446,1.163177629,16128,128,-4.96066987,-68782,171800.7813,59008,128
-4.17158713,-57841,-21.89735256,-303617,1.144570249,15870,128,-4.892731296,-67840,171820.3125,59648,128
-4.144108789,-57460,-21.94163524,-304231,1.14464237,15871,128,-4.925546637,-68295,171839.8438,60288,128
-3.516145768,-48753,-21.87167726,-303261,1.181135914,16377,128,-4.884365187,-67724,171859.375,60928,128
-3.573843071,-49553,-21.85242079,-302994,1.144714492,15872,128,-4.868498429,-67504,171878.9063,61568,128
-2.954101915,-40960,-21.80784962,-302376,1.16368248,16135,128,-4.84686194,-67204,171898.4375,62208,128
-2.946096414,-40849,-21.72945341,-301289,1.173635265,16273,128,-4.756926269,-65957,171917.9688,62848,128
-2.807478643,-38927,-21.71358665,-301069,1.172337076,16255,128,-4.739905565,-65721,171937.5,63488,128
-3.54903323,-49209,-21.70370599,-300932,0.009159447,127,128,-4.731755821,-65608,171957.0313,64128,128
-2.954029793,-40959,-21.75397477,-301629,1.145724195,15886,128,-4.794790124,-66482,171976.5625,64768,128
-4.137545721,-57369,-21.88963555,-303510,1.107788218,15360,128,-4.977185723,-69011,171996.0938,65408,128
-4.195675754,-58175,-21.91956603,-303925,1.145652073,15885,128,-5.042960649,-69923,172015.625,512,128
-4.14057483,-57411,-21.89655923,-303606,1.137718694,15775,128,-5.048297649,-69997,172035.1563,1152,128
-4.209595228,-58368,-21.90434836,-303714,1.125025287,15599,128,-5.048946744,-70006,172054.6875,1792,128
-4.140358465,-57408,-21.91574358,-303872,1.112115516,15420,128,-5.091786992,-70600,172074.2188,2432,128
-4.180746577,-57968,-21.9164648,-303882,1.107499731,15356,128,-5.101307047,-70732,172093.75,3072,128
-4.149590033,-57536,-21.90939688,-303784,1.146733898,15900,128,-5.121428981,-71011,172113.2813,3712,128
-3.580117652,-49640,-21.86158024,-303121,1.109951867,15390,128,-5.095897924,-70657,172132.8125,4352,128
-4.137906329,-57374,-21.8671336,-303198,1.163177629,16128,128,-5.11428894,-70912,172152.3438,4992,128
-4.163725872,-57732,-21.88184641,-303402,1.036171441,14367,128,-5.156047363,-71491,172171.875,5632,128
-4.144108789,-57460,-21.8954774,-303591,1.114639773,15455,128,-5.145229118,-71341,172191.4063,6272,128
-3.572617003,-49536,-21.84722803,-302922,1.144714492,15872,128,-5.10455252,-70777,172210.9375,6912,128
-2.954029793,-40959,-21.86518632,-303171,1.107716096,15359,128,-5.131165401,-71146,172230.4688,7552,128
-2.954101915,-40960,-21.83871768,-302804,1.126179233,15615,128,-5.132968442,-71171,172250,8192,128
-3.692627393,-51200,-21.86410449,-303156,1.179332874,16352,128,-5.232929019,-72557,172269.5313,8832,128
-4.164447089,-57742,-21.89136647,-303534,1.117019786,15488,128,-5.288246308,-73324,172289.0625,9472,128
-4.454159672,-61759,-21.92108058,-303946,1.043167239,14464,128,-5.337865989,-74012,172308.5938,10112,128
-3.545210784,-49156,-21.81736968,-302508,1.776860568,24637,128,-5.231919316,-72543,172328.125,10752,128
-2.363353653,-32769,-21.23801663,-294475,2.216586139,30734,128,-4.750651687,-65870,172347.6563,11392,128
-2.654148061,-36801,-21.93608188,-304154,0.813459851,11279,128,-5.49112445,-76137,172367.1875,12032,128
-3.65526839,-50682,-21.81794665,-302516,0.535430972,7424,128,-5.446625405,-75520,172386.7188,12672,128
-3.839827638,-53241,-21.79652653,-302219,0.553749866,7678,128,-5.320340433,-73769,172406.25,13312,128
-2.95302009,-40945,-21.78195796,-302017,0.590748261,8191,128,-5.320917406,-73777,172425.7813,13952,128
-3.767129036,-52233,-21.77712581,-301950,1.108365191,15368,128,-5.31709496,-73724,172445.3125,14592,128
-3.618774845,-50176,-21.76262936,-301749,1.107788218,15360,128,-5.306781567,-73581,172464.8438,15232,128
-3.56316907,-49405,-21.72887644,-301281,1.14464237,15871,128,-5.292501484,-73383,172484.375,15872,128
-3.69248315,-51198,-21.66548153,-300402,1.177024982,16320,128,-5.248146683,-72768,172503.9063,16512,128
-3.586175869,-49724,-21.59891326,-299479,1.177024982,16320,128,-5.200257921,-72104,172523.4375,17152,128
-3.580189774,-49641,-21.53840322,-298640,1.164187332,16142,128,-5.1541722,-71465,172542.9688,17792,128
-2.65811475,-36856,-21.54936571,-298792,1.070429214,14842,128,-5.142416375,-71302,172562.5,18432,128
-3.545210784,-49156,-21.63439711,-299971,1.181352279,16380,128,-5.252978832,-72835,172582.0313,19072,128
-3.693709218,-51215,-21.75022444,-301577,0.516823592,7166,128,-5.392678427,-74772,172601.5625,19712,128
-3.817397811,-52930,-21.783761,-302042,0.582021544,8070,128,-5.484272895,-76042,172621.0938,20352,128
-3.766552063,-52225,-21.81008539,-302407,0.5171842,7171,128,-5.526031318,-76621,172640.625,20992,128
-3.83593307,-53187,-21.82393275,-302599,0.47823852,6631,128,-5.574208566,-77289,172660.1563,21632,128
-3.831100921,-53120,-21.84708379,-302920,0.517833295,7180,128,-5.602985096,-77688,172679.6875,22272,128
-3.647118646,-50569,-21.81715331,-302505,0.521511498,7231,128,-5.590435933,-77514,172699.2188,22912,128
-3.831100921,-53120,-21.85047351,-302967,0.29533807,4095,128,-5.655201156,-78412,172718.75,23552,128
-3.838096719,-53217,-21.82148061,-302565,0.286394988,3971,128,-5.621520355,-77945,172738.2813,24192,128
-4.134516613,-57327,-21.82249031,-302579,0.294833218,4088,128,-5.666380008,-78567,172757.8125,24832,128
-3.803911067,-52743,-21.82667337,-302637,0.220620062,3059,128,-5.68729528,-78857,172777.3438,25472,128
-4.124275342,-57185,-21.8217691,-302569,0.29093865,4034,128,-5.713980283,-79227,172796.875,26112,128
-4.433605007,-61474,-21.86323903,-303144,0.073564061,1020,128,-5.773769113,-80056,172816.4063,26752,128
-3.811555959,-52849,-21.83850131,-302801,0.068659791,952,128,-5.765619369,-79943,172835.9375,27392,128
-3.821869352,-52992,-21.83258734,-302719,0.156864543,2175,128,-5.755233855,-79799,172855.4688,28032,128
-4.125357166,-57200,-21.83136127,-302702,0.15628757,2167,128,-5.742684691,-79625,172875,28672,128
-3.826485136,-53056,-21.83395765,-302738,0.156720299,2173,128,-5.774273965,-80063,172894.5313,29312,128
-3.784943078,-52480,-21.80482051,-302334,0.03231049,448,128,-5.805142022,-80491,172914.0625,29952,128
-4.578930089,-63489,-21.85934447,-303090,1.179837725,16359,128,-5.914983262,-82014,172933.5938,30592,128
-4.580949495,-63517,-21.88956343,-303509,1.178683779,16343,128,-5.94808709,-82473,172953.125,31232,128
-4.431441358,-61444,-21.85126684,-302978,1.144714492,15872,128,-5.895510423,-81744,172972.6563,31872,128
-3.618558481,-50173,-21.34115056,-295905,1.457433874,20208,128,-5.635584073,-78140,172992.1875,32512,128
-3.747007101,-51954,-21.46959918,-297686,0.001081824,15,128,-5.610702111,-77795,173011.7188,33152,128
-4.564505764,-63289,-21.88054822,-303384,0.890341507,12345,128,-6.169284125,-85540,173031.25,33792,128
-3.840332489,-53248,-21.81960545,-302539,1.093940865,15168,128,-6.013285042,-83377,173050.7813,34432,128
-3.838240962,-53219,-21.84181891,-302847,1.098412406,15230,128,-5.999293446,-83183,173070.3125,35072,128
-4.098888528,-56833,-21.82465396,-302609,1.10079242,15263,128,-5.989124297,-83042,173089.8438,35712,128
-4.126294747,-57213,-21.78960285,-302123,1.179332874,16352,128,-5.97729635,-82878,173109.375,36352,128
-4.126799599,-57220,-21.76854334,-301831,1.153152722,15989,128,-5.974772093,-82843,173128.9063,36992,128
-3.545499271,-49160,-21.7130818,-301062,1.158561845,16064,128,-5.930056683,-82223,173148.4375,37632,128
-3.684477649,-51087,-21.65249963,-300222,1.172409197,16256,128,-5.895510423,-81744,173167.9688,38272,128
-3.618702724,-50175,-21.55390937,-298855,0.073852548,1024,128,-5.830384592,-80841,173187.5,38912,128
-3.840116124,-53245,-21.56537671,-299014,0.076953778,1067,128,-5.80860386,-80539,173207.0313,39552,128
-3.845957976,-53326,-21.59018655,-299358,0.022934678,318,128,-5.81170509,-80582,173226.5625,40192,128
-3.674236378,-50945,-21.73363647,-301347,1.125097409,15600,128,-6.001961947,-83220,173246.0938,40832,128
-4.102927339,-56889,-21.79479561,-302195,1.117019786,15488,128,-6.101417673,-84599,173265.625,41472,128
-4.135526316,-57341,-21.86864816,-303219,1.089397203,15105,128,-6.188684844,-85809,173285.1563,42112,128
-4.134011761,-57320,-21.81996606,-302544,1.107788218,15360,128,-6.170870801,-85562,173304.6875,42752,128
-4.103360069,-56895,-21.83532796,-302757,1.181352279,16380,128,-6.204190994,-86024,173324.2188,43392,128
-4.135742681,-57344,-21.84174679,-302846,1.145219343,15879,128,-6.23102024,-86396,173343.75,44032,128
-4.109346164,-56978,-21.83395765,-302738,1.146950262,15903,128,-6.233760862,-86434,173363.2813,44672,128
-4.070905336,-56445,-21.84030436,-302826,1.144714492,15872,128,-6.261816175,-86823,173382.8125,45312,128
-4.133002059,-57306,-21.83453463,-302746,1.106634272,15344,128,-6.279702339,-87071,173402.3438,45952,128
-4.689708911,-65025,-21.83561645,-302761,1.172409197,16256,128,-6.314392843,-87552,173421.875,46592,128
-4.098888528,-56833,-21.83532796,-302757,1.056437618,14648,128,-6.328817168,-87752,173441.4063,47232,128
-4.12687172,-57221,-21.84232376,-302854,1.116875543,15486,128,-6.333144466,-87812,173460.9375,47872,128
-4.126511112,-57216,-21.84852622,-302940,1.154018182,16001,128,-6.378797457,-88445,173480.4688,48512,128
-4.128746883,-57247,-21.85537778,-303035,1.125530139,15606,128,-6.390120553,-88602,173500,49152,128
-4.153700966,-57593,-21.87773548,-303345,1.100287569,15256,128,-6.411612798,-88900,173519.5313,49792,128
-4.117784395,-57095,-21.84354983,-302871,1.157696385,16052,128,-6.376417443,-88412,173539.0625,50432,128
-4.135237829,-57337,-21.85494505,-303029,1.166639467,16176,128,-6.387019323,-88559,173558.5938,51072,128
-4.128819004,-57248,-21.85335837,-303007,1.070789822,14847,128,-6.463973101,-89626,173578.125,51712,128
-4.693314993,-65075,-21.88804887,-303488,0.528507296,7328,128,-6.539051716,-90667,173597.6563,52352,128
-4.145118492,-57474,-21.89050101,-303522,0.572357246,7936,128,-6.571794936,-91121,173617.1875,52992,128
-4.726563063,-65536,-21.91228174,-303824,0.484657345,6720,128,-6.604033304,-91568,173636.7188,53632,128
-4.15297975,-57583,-21.59119625,-299372,7.21E-05,1,128,-6.439884477,-89292,173656.25,54272,128
-3.600960803,-49929,-21.32557229,-295689,1.117019786,15488,128,-6.099758875,-84576,173675.7813,54912,128
-4.171515008,-57840,-21.95757412,-304452,5.05E-04,7,128,-6.853285653,-95024,173695.3125,55552,128
-4.136319654,-57352,-21.86432086,-303159,0.521511498,7231,128,-6.71632668,-93125,173714.8438,56192,128
-4.580372522,-63509,-21.87672578,-303331,0.59067614,8190,128,-6.653869349,-92259,173734.375,56832,128
-4.172668954,-57856,-21.89677559,-303609,0.590531896,8188,128,-6.674640378,-92547,173753.9063,57472,128
-4.719639387,-65440,-21.89194344,-303542,0.588584612,8161,128,-6.667428215,-92447,173773.4375,58112,128
-4.13350691,-57313,-21.84225164,-302853,0.535070364,7419,128,-6.628698901,-91910,173792.9688,58752,128
-4.138988154,-57389,-21.86331116,-303145,0.581588814,8064,128,-6.653652984,-92256,173812.5,59392,128
-4.10119642,-56865,-21.77712581,-301950,0.479464588,6648,128,-6.613841845,-91704,173832.0313,60032,128
-4.078189621,-56546,-21.72981402,-301294,0.580434868,8048,128,-6.582973788,-91276,173851.5625,60672,128
-4.433532886,-61473,-21.67125126,-300482,0.565361448,7839,128,-6.524915877,-90471,173871.0938,61312,128
-4.062467106,-56328,-21.74301228,-301477,0.465040262,6448,128,-6.584127734,-91292,173890.625,61952,128
-4.099898231,-56847,-21.8291255,-302671,0.434172205,6020,128,-6.664254864,-92403,173910.1563,62592,128
-4.1374736,-57368,-21.93593764,-304152,0.294256245,4080,128,-6.818450906,-94541,173929.6875,63232,128
-4.140286343,-57407,-21.96110808,-304501,0.216869738,3007,128,-6.873623952,-95306,173949.2188,63872,128
-4.577776143,-63473,-22.0168581,-305274,0.17532768,2431,128,-6.936441891,-96177,173968.75,64512,128
-4.144108789,-57460,-22.02594543,-305400,0.013703109,190,128,-6.96608388,-96588,173988.2813,65152,128
-4.19062724,-58105,-21.98339367,-304810,0.147128123,2040,128,-6.954255933,-96424,174007.8125,256,128
-4.371147677,-60608,-22.02060843,-305326,5.05E-04,7,128,-7.001711965,-97082,174027.3438,896,128
-4.150527614,-57549,-22.03597033,-305539,5.77E-04,8,128,-7.012241723,-97228,174046.875,1536,128
-4.620327904,-64063,-22.04837525,-305711,0.018391015,255,128,-7.053855902,-97805,174066.4063,2176,128
-4.319220104,-59888,-22.0345279,-305519,0.038873558,539,128,-7.050971037,-97765,174085.9375,2816,128
-4.161490102,-57701,-22.03149879,-305477,0.008943082,124,128,-7.055803186,-97832,174105.4688,3456,128
-4.144974249,-57472,-22.01606476,-305263,0.003678203,51,128,-7.06748689,-97994,174125,4096,128
-4.168341657,-57796,-22.01613689,-305264,1.179837725,16359,128,-7.077295432,-98130,174144.5313,4736,128
-4.724543658,-65508,-22.05508257,-305804,1.179404995,16353,128,-7.12900664,-98847,174164.0625,5376,128
-4.17245259,-57853,-22.04022551,-305598,1.179332874,16352,128,-7.140185492,-99002,174183.5938,6016,128
-4.168125292,-57793,-22.03705216,-305554,1.162023683,16112,128,-7.146387952,-99088,174203.125,6656,128
-4.359175486,-60442,-22.04238916,-305628,1.16368248,16135,128,-7.12280418,-98761,174222.6563,7296,128
-4.28806356,-59456,-22.03056121,-305464,1.181496523,16382,128,-7.128213302,-98836,174242.1875,7936,128
-4.583473752,-63552,-22.01094413,-305192,1.179332874,16352,128,-7.124462977,-98784,174261.7188,8576,128
-4.334005038,-60093,-22.05840016,-305850,1.179260752,16351,128,-7.240578799,-100394,174281.25,9216,128
-4.616721823,-64013,-22.04563463,-305673,1.164764305,16150,128,-7.27072564,-100812,174300.7813,9856,128
-4.6573263,-64576,-22.09294642,-306329,1.165197035,16156,128,-7.32474474,-101561,174320.3125,10496,128
-4.687401019,-64993,-22.040514,-305602,1.180558941,16369,128,-7.255940706,-100607,174339.8438,11136,128
-3.991499423,-55344,-21.41269522,-296897,0.080559859,1117,128,-6.742795318,-93492,174359.375,11776,128
-4.412257005,-61178,-22.061862,-305898,0.884211169,12260,128,-7.440355711,-103164,174378.9063,12416,128
-4.653864462,-64528,-22.08883549,-306272,1.17695286,16319,128,-7.548321789,-104661,174398.4375,13056,128
-4.725481239,-65521,-22.06698263,-305969,1.179332874,16352,128,-7.387418436,-102430,174417.9688,13696,128
-4.287991439,-59455,-22.03063333,-305465,1.163393994,16131,128,-7.34645335,-101862,174437.5,14336,128
-4.586070131,-63588,-22.00481379,-305107,1.051461226,14579,128,-7.318686523,-101477,174457.0313,14976,128
-4.578785846,-63487,-22.00798714,-305151,1.10656215,15343,128,-7.340611498,-101781,174476.5625,15616,128
-4.660211165,-64616,-21.97632575,-304712,1.14594056,15889,128,-7.320633807,-101504,174496.0938,16256,128
-4.504933298,-62463,-21.91538297,-303867,1.147238749,15907,128,-7.262720139,-100701,174515.625,16896,128
-4.432523183,-61459,-21.90326654,-303699,1.146733898,15900,128,-7.256301314,-100612,174535.1563,17536,128
-4.669154247,-64740,-21.80150292,-302288,1.181352279,16380,128,-7.165716549,-99356,174554.6875,18176,128
-4.70117625,-65184,-21.83489523,-302751,1.089325081,15104,128,-7.198892498,-99816,174574.2188,18816,128
-4.207575823,-58340,-21.91170477,-303816,1.137646572,15774,128,-7.279380236,-100932,174593.75,19456,128
-4.579146454,-63492,-22.01411748,-305236,1.163105507,16127,128,-7.405520964,-102681,174613.2813,20096,128
-4.694252574,-65088,-22.08183969,-306175,1.036748414,14375,128,-7.517742219,-104237,174632.8125,20736,128
-4.693170749,-65073,-22.08544577,-306225,1.181135914,16377,128,-7.561015196,-104837,174652.3438,21376,128
-4.709542359,-65300,-22.13896002,-306967,1.112331881,15423,128,-7.602989984,-105419,174671.875,22016,128
-0.115322484,-1599,-22.12727632,-306805,1.107716096,15359,128,-7.608038498,-105489,174691.4063,22656,128
-4.719495144,-65438,-22.1302333,-306846,1.093868744,15167,128,-7.622679189,-105692,174710.9375,23296,128
-4.689925276,-65028,-22.12662722,-306796,1.098484528,15231,128,-7.635733203,-105873,174730.4688,23936,128
-4.726563063,-65536,-22.13066603,-306852,1.044898158,14488,128,-7.648931461,-106056,174750,24576,128
-4.722524252,-65480,-22.12843026,-306821,1.116947665,15487,128,-7.673092207,-106391,174769.5313,25216,128
-4.653071124,-64517,-22.11061622,-306574,1.052254564,14590,128,-7.664653977,-106274,174789.0625,25856,128
-4.710407819,-65312,-22.14408066,-307038,0.587935518,8152,128,-7.730501024,-107187,174808.5938,26496,128
-4.652999002,-64516,-22.160885,-307271,0.554038352,7682,128,-7.752642364,-107494,174828.125,27136,128
-4.688482843,-65008,-22.11768414,-306672,0.515813889,7152,128,-7.756825418,-107552,174847.6563,27776,128
-0.147632974,-2047,-22.14617218,-307067,0.445423179,6176,128,-7.797502017,-108116,174867.1875,28416,128
-4.708460535,-65285,-22.14234974,-307014,0.447947436,6211,128,-7.803632355,-108201,174886.7188,29056,128
-4.722524252,-65480,-22.15619709,-307206,0.443115287,6144,128,-7.824908236,-108496,174906.25,29696,128
-4.726346699,-65533,-22.155548,-307197,0.558437772,7743,128,-7.862050874,-109011,174925.7813,30336,128
-4.726563063,-65536,-22.16831352,-307374,0.586637328,8134,128,-7.870921835,-109134,174945.3125,30976,128
-0.006995798,-97,-22.17278506,-307436,0.572068759,7932,128,-7.847626549,-108811,174964.8438,31616,128
-4.431297115,-61442,-22.15605285,-307204,0.445278936,6174,128,-7.826350668,-108516,174984.375,32256,128
-0.006995798,-97,-22.16304864,-307301,0.590531896,8188,128,-7.85519932,-108916,175003.9063,32896,128
-4.661942084,-64640,-22.11710717,-306664,0.589666437,8176,128,-7.894000756,-109454,175023.4375,33536,128
-4.449111158,-61689,-22.18583908,-307617,0.294256245,4080,128,-7.99338436,-110832,175042.9688,34176,128
-0.016155245,-224,-22.20819678,-307927,0.267066391,3703,128,-8.041489487,-111499,175062.5,34816,128
-0.055461533,-769,-22.19283488,-307714,0.286250745,3969,128,-7.993889212,-110839,175082.0313,35456,128
-4.707018102,-65265,-21.69086834,-300754,1.466665443,20336,128,-7.710595454,-106911,175101.5625,36096,128
-4.711850251,-65332,-22.11681868,-306660,1.108725799,15373,128,-8.114837183,-112516,175121.0938,36736,128
-0.017381313,-241,-22.16852989,-307377,0.008077622,112,128,-8.25374344,-114442,175140.625,37376,128
-0.257979066,-3577,-22.11602534,-306649,0.18463137,2560,128,-8.085555802,-112110,175160.1563,38016,128
-4.71177813,-65331,-22.10289921,-306467,0.276874933,3839,128,-8.034565811,-111403,175179.6875,38656,128
-0.03231049,-448,-22.11299623,-306607,0.265407594,3680,128,-8.042715555,-111516,175199.2188,39296,128
-4.657037813,-64572,-22.09547068,-306364,0.286178623,3968,128,-8.040407662,-111484,175218.75,39936,128
-0.166168233,-2304,-22.06229473,-305904,0.294400489,4082,128,-8.01372266,-111114,175238.2813,40576,128
-4.579362819,-63495,-22.01635325,-305267,0.290722286,4031,128,-7.985018252,-110716,175257.8125,41216,128
-4.6856701,-64969,-21.95807898,-304459,0.545672243,7566,128,-7.946216815,-110178,175277.3438,41856,128
-4.724399415,-65506,-21.91386842,-303846,0.590459775,8187,128,-7.904386271,-109598,175296.875,42496,128
-4.718485441,-65424,-21.85227655,-302992,0.563053556,7807,128,-7.850944144,-108857,175316.4063,43136,128
-4.432595305,-61460,-21.8804761,-303383,0.553894109,7680,128,-7.865296348,-109056,175335.9375,43776,128
-0.019544961,-271,-22.02731574,-305419,0.072049507,999,128,-8.051947123,-111644,175355.4688,44416,128
-0.219321873,-3041,-22.07794512,-306121,0.064620979,896,128,-8.132434861,-112760,175375,45056,128
-4.694252574,-65088,-22.13571455,-306922,0.036854152,511,128,-8.236362128,-114201,175394.5313,45696,128
-0.295554435,-4098,-22.1559086,-307202,0.008654595,120,128,-8.26391259,-114583,175414.0625,46336,128
-0.277091298,-3842,-22.13859941,-306962,0.011467339,159,128,-8.28648666,-114896,175433.5938,46976,128
-4.725553361,-65522,-22.13282968,-306882,1.180558941,16369,128,-8.276894483,-114763,175453.125,47616,128
-0.032094125,-445,-22.17776146,-307505,1.164259453,16143,128,-8.325937191,-115443,175472.6563,48256,128
-5.05E-04,-7,-22.16593351,-307341,1.100720298,15262,128,-8.352550072,-115812,175492.1875,48896,128
-0.03584445,-497,-22.15396132,-307175,1.174428603,16284,128,-8.343318503,-115684,175511.7188,49536,128
-0.287404691,-3985,-22.14775886,-307089,1.163754602,16136,128,-8.363224073,-115960,175531.25,50176,128
-0.01817465,-252,-22.17336204,-307444,1.038262968,14396,128,-8.3883224,-116308,175550.7813,50816,128
-0.034690503,-481,-22.182233,-307567,1.181568644,16383,128,-8.433254174,-116931,175570.3125,51456,128
-0.309329666,-4289,-22.18850758,-307654,1.155027885,16015,128,-8.444793635,-117091,175589.8438,52096,128
-0.018246772,-253,-22.18785848,-307645,1.143272059,15852,128,-8.457559163,-117268,175609.375,52736,128
-0.30464176,-4224,-22.19038274,-307680,1.158994574,16070,128,-8.483378706,-117626,175628.9063,53376,128
-0.056543357,-784,-22.19355609,-307724,1.144714492,15872,128,-8.492610275,-117754,175648.4375,54016,128
-0.004399419,-61,-22.15987529,-307257,1.178106806,16335,128,-8.473642286,-117491,175667.9688,54656,128
-0.059933074,-831,-22.20127311,-307831,1.038118725,14394,128,-8.522901359,-118174,175687.5,55296,128
-0.020771029,-288,-22.17826631,-307512,1.075044999,14906,128,-8.522901359,-118174,175707.0313,55936,128
-0.366954847,-5088,-22.19932582,-307804,1.034945373,14350,128,-8.554634876,-118614,175726.5625,56576,128
-0.001658797,-23,-22.17804994,-307509,1.181568644,16383,128,-8.567833134,-118797,175746.0938,57216,128
-0.060005195,-832,-22.19716217,-307774,1.179837725,16359,128,-8.577930162,-118937,175765.625,57856,128
-0.018535259,-257,-22.17437174,-307458,1.034079913,14338,128,-8.565597363,-118766,175785.1563,58496,128
-0.020698907,-287,-22.17646327,-307487,1.035955076,14364,128,-8.544105118,-118468,175804.6875,59136,128
-0.304353273,-4220,-22.1612456,-307276,1.075405607,14911,128,-8.522540751,-118169,175824.2188,59776,128
-0.073852548,-1024,-22.15403344,-307176,1.034079913,14338,128,-8.551173037,-118566,175843.75,60416,128
-0.009231568,-128,-22.17307355,-307440,1.108870042,15375,128,-8.62834318,-119636,175863.2813,61056,128
-0.055389411,-768,-22.2052398,-307886,1.036532049,14372,128,-8.688925348,-120476,175882.8125,61696,128
-0.009231568,-128,-22.19961431,-307808,1.052903658,14599,128,-8.692242943,-120522,175902.3438,62336,128
-0.300170219,-4162,-22.1795645,-307530,1.163177629,16128,128,-8.652143318,-119966,175921.875,62976,128
-4.726274577,-65532,-21.56342942,-298987,1.318094888,18276,128,-8.155802268,-113084,175941.4063,63616,128
-0.332047979,-4604,-22.15179767,-307145,0.581588814,8064,128,-8.826533416,-122384,175980.4688,64896,128
-0.300025976,-4160,-22.15316798,-307164,1.172481319,16257,128,-8.708830918,-120752,176000,0,128
-0.296131408,-4106,-22.17826631,-307512,1.18048682,16368,128,-8.707388485,-120732,176019.5313,640,128
-0.300386584,-4165,-22.16867413,-307379,1.035017495,14351,128,-8.713446702,-120816,176039.0625,1280,128
-0.006490947,-90,-22.14472975,-307047,1.161374588,16103,128,-8.700320566,-120634,176058.5938,1920,128
-9.38E-04,-13,-22.11198653,-306593,1.180558941,16369,128,-8.678107104,-120326,176078.125,2560,128
-0.295410191,-4096,-22.10376467,-306479,1.109519137,15384,128,-8.668010076,-120186,176097.6563,3200,128
-0.010385515,-144,-22.0415237,-305616,1.180991671,16375,128,-8.636060194,-119743,176117.1875,3840,128
-0.156720299,-2173,-21.98101365,-304777,1.167504927,16188,128,-8.568265863,-118803,176136.7188,4480,128
-0.064909466,-900,-21.98000395,-304763,1.181063793,16376,128,-8.544321483,-118471,176156.25,5120,128
-0.277596149,-3849,-22.0638814,-305926,1.177169225,16322,128,-8.605480624,-119319,176175.7813,5760,128
-0.004615784,-64,-22.20343676,-307861,1.153873939,15999,128,-8.770639154,-121609,176195.3125,6400,128
-0.439148598,-6089,-22.27108684,-308799,1.047783023,14528,128,-8.880047665,-123126,176214.8438,7040,128
-0.445206814,-6173,-22.29445425,-309123,0.534204904,7407,128,-8.933706156,-123870,176234.375,7680,128
-0.4604966,-6385,-22.32012955,-309479,0.489201008,6783,128,-8.955631132,-124174,176253.9063,8320,128
-0.471242722,-6534,-22.34255938,-309790,0.483575521,6705,128,-8.970199701,-124376,176273.4375,8960,128
-0.585339139,-8116,-22.33412115,-309673,0.445351058,6175,128,-8.977844593,-124482,176292.9688,9600,128
-0.515236916,-7144,-22.34465091,-309819,0.44765895,6207,128,-8.99984169,-124787,176312.5,10240,128
-0.484585224,-6719,-22.32359139,-309527,0.443115287,6144,128,-8.997245311,-124751,176332.0313,10880,128
-0.577333638,-8005,-22.37133591,-310189,0.581588814,8064,128,-9.050471073,-125489,176351.5625,11520,128
-0.557428069,-7729,-22.34854547,-309873,0.572357246,7936,128,-9.046360141,-125432,176371.0938,12160,128
-0.572068759,-7932,-22.34681455,-309849,0.589666437,8176,128,-9.062587507,-125657,176390.625,12800,128
-0.476651845,-6609,-22.37746625,-310274,0.517833295,7180,128,-9.086892496,-125994,176410.1563,13440,128
-1.10786034,-15361,-22.3816493,-310332,0.443403774,6148,128,-9.119202986,-126442,176429.6875,14080,128
-0.499153793,-6921,-22.41208463,-310754,0.458621437,6359,128,-9.153821367,-126922,176449.2188,14720,128
-0.555048055,-7696,-22.37458138,-310234,0.290650164,4030,128,-9.125766054,-126533,176468.75,15360,128
-0.558077163,-7738,-22.44021206,-311144,0.452274734,6271,128,-9.166226288,-127094,176488.2813,16000,128
-0.032454733,-450,-22.47497469,-311626,0.239876537,3326,128,-9.215557482,-127778,176507.8125,16640,128
-1.179332874,-16352,-22.45716065,-311379,0.293102299,4064,128,-9.206037427,-127646,176527.3438,17280,128
-0.590820383,-8192,-22.46112734,-311434,0.239732294,3324,128,-9.206902886,-127658,176546.875,17920,128
-0.035555963,-493,-22.48673051,-311789,0.184559248,2559,128,-9.234020619,-128034,176566.4063,18560,128
-5.77E-04,-8,-22.50274152,-312011,0.244564443,3391,128,-9.223707226,-127891,176585.9375,19200,128
-0.019184353,-266,-22.51449734,-312174,0.235837726,3270,128,-9.208273197,-127677,176605.4688,19840,128
-0.004687906,-65,-22.53447503,-312451,0.258411796,3583,128,-9.208705927,-127683,176625,20480,128
-0.071688899,-994,-22.5453654,-312602,0.221557644,3072,128,-9.274769339,-128599,176644.5313,21120,128
-0.092315685,-1280,-22.56967039,-312939,0.164004584,2274,128,-9.317465343,-129191,176664.0625,21760,128
-0.140637176,-1950,-22.59123475,-313238,0.009159447,127,128,-9.345881265,-129585,176683.5938,22400,128
-0.018391015,-255,-22.64056595,-313922,5.05E-04,7,128,-9.397953081,-130307,176703.125,23040,128
-0.069308885,-961,-22.45990127,-311417,0.144820231,2008,128,-9.280611191,-128680,176722.6563,23680,128
-0.008077622,-112,-22.24317577,-308412,1.038335089,14397,128,-8.970848795,-124385,176742.1875,24320,128
-0.184126518,-2553,-22.76100907,-315592,0.027766827,385,128,-9.601624561,-133131,176761.7188,24960,128
-0.036421423,-505,-22.65513452,-314124,1.116370692,15479,128,-9.451972181,-131056,176781.25,25600,128
-0.220475819,-3057,-22.69328686,-314653,0.009159447,127,128,-9.425719908,-130692,176800.7813,26240,128
-0.147849339,-2050,-22.65931757,-314182,0.073708305,1022,128,-9.404804636,-130402,176820.3125,26880,128
-0.278245244,-3858,-22.68924805,-314597,0.03584445,497,128,-9.38331239,-130104,176839.8438,27520,128
-0.239227443,-3317,-22.67273219,-314368,0.056471235,783,128,-9.38461058,-130122,176859.375,28160,128
-0.156936664,-2176,-22.6694146,-314322,0,0,128,-9.37090747,-129932,176878.9063,28800,128
-0.219826725,-3048,-22.63494046,-313844,0.002524257,35,128,-9.346313995,-129591,176898.4375,29440,128
-0.036709909,-509,-22.59397538,-313276,0.147705096,2048,128,-9.29517976,-128882,176917.9688,30080,128
-0.147416609,-2044,-22.53065259,-312398,0.219754603,3047,128,-9.221399334,-127859,176937.5,30720,128
-0.055389411,-768,-22.61618884,-313584,0.225235847,3123,128,-9.249238282,-128245,176957.0313,31360,128
-0.239443808,-3320,-22.72473189,-315089,0.003461838,48,128,-9.34169821,-129527,176976.5625,32000,128
-0.316181221,-4384,-22.8041378,-316190,1.181424401,16381,128,-9.455073411,-131099,176996.0938,32640,128
-0.301179922,-4176,-22.82050941,-316417,1.108870042,15375,128,-9.544215744,-132335,177015.625,33280,128
-0.445423179,-6176,-22.85974358,-316961,1.070789822,14847,128,-9.557918854,-132525,177035.1563,33920,128
-0.302405989,-4193,-22.81416271,-316329,1.047999388,14531,128,-9.601985169,-133136,177054.6875,34560,128
-0.521583619,-7232,-22.84322773,-316732,1.179332874,16352,128,-9.61179371,-133272,177074.2188,35200,128
-0.360608144,-5000,-22.76814911,-315691,1.179404995,16353,128,-9.649585444,-133796,177093.75,35840,128
-0.443187409,-6145,-22.80940268,-316263,1.177746198,16330,128,-9.64057024,-133671,177113.2813,36480,128
-0.295626556,-4099,-22.74795505,-315411,1.155388493,16020,128,-9.664009769,-133996,177132.8125,37120,128
-0.55750019,-7730,-22.8121433,-316301,1.164331575,16144,128,-9.661197026,-133957,177152.3438,37760,128
-0.340486209,-4721,-22.79057894,-316002,1.087017189,15072,128,-9.70165726,-134518,177171.875,38400,128
-0.44325953,-6146,-22.76656243,-315669,1.034152035,14339,128,-9.71759614,-134739,177191.4063,39040,128
-0.295193827,-4093,-22.80738328,-316235,1.038262968,14396,128,-9.736564128,-135002,177210.9375,39680,128
-0.31437818,-4359,-22.7320883,-315191,1.177601955,16328,128,-9.779332254,-135595,177230.4688,40320,128
-0.588512491,-8160,-22.80233476,-316165,1.163538237,16133,128,-9.79555962,-135820,177250,40960,128
-0.553966231,-7681,-22.77550552,-315793,1.158273358,16060,128,-9.785462592,-135680,177269.5313,41600,128
-0.590748261,-8191,-22.78365526,-315906,1.068554052,14816,128,-9.844962936,-136505,177289.0625,42240,128
-1.216475513,-16867,-22.74449322,-315363,1.062135227,14727,128,-9.840419273,-136442,177308.5938,42880,128
-0.590820383,-8192,-22.77074549,-315727,1.04367209,14471,128,-9.883620129,-137041,177328.125,43520,128
-0.280553136,-3890,-22.71679851,-314979,1.061486132,14718,128,-9.904679645,-137333,177347.6563,44160,128
-0.583968828,-8097,-22.76620183,-315664,1.181568644,16383,128,-9.838544111,-136416,177367.1875,44800,128
-0.258483918,-3584,-22.70561966,-314824,1.107716096,15359,128,-9.81856642,-136139,177386.7188,45440,128
-0.555048055,-7696,-22.73295376,-315203,1.047927266,14530,128,-9.839265327,-136426,177406.25,46080,128
-0.293895637,-4075,-22.73735317,-315264,1.035305981,14355,128,-9.877273426,-136953,177425.7813,46720,128
-0.259060891,-3592,-22.71586093,-314966,1.137213843,15768,128,-9.938360445,-137800,177445.3125,47360,128
-1.181712887,-16385,-22.75935027,-315569,1.03393567,14336,128,-9.985383747,-138452,177464.8438,48000,128
-1.213951256,-16832,-22.69458505,-314671,1.035594468,14359,128,-10.02844036,-139049,177484.375,48640,128
-0.267715486,-3712,-22.67482372,-314397,1.181496523,16382,128,-9.902083266,-137297,177503.9063,49280,128
-0.064909466,-900,-22.49091357,-311847,2.36277668,32761,128,-9.393265175,-130242,177523.4375,49920,128
-0.555048055,-7696,-22.70446571,-314808,0.257618458,3572,128,-10.27487997,-142466,177542.9688,50560,128
-1.185174726,-16433,-22.67410251,-314387,0.44765895,6207,128,-10.09969653,-140037,177562.5,51200,128
-1.200103903,-16640,-22.72062096,-315032,1.034945373,14350,128,-10.03255129,-139106,177582.0313,51840,128
-1.271792802,-17634,-22.72797736,-315134,1.0627122,14735,128,-10.04546106,-139285,177601.5625,52480,128
-0.277019176,-3841,-22.72848221,-315141,1.063866146,14751,128,-10.01480937,-138860,177621.0938,53120,128
-1.184092901,-16418,-22.72566947,-315102,1.034440522,14343,128,-10.0082463,-138769,177640.625,53760,128
-1.183443807,-16409,-22.72768888,-315130,1.105336083,15326,128,-9.991730451,-138540,177660.1563,54400,128
-0.29533807,-4095,-22.68232437,-314501,1.105480326,15328,128,-9.963242407,-138145,177679.6875,55040,128
-0.267787608,-3713,-22.64013322,-313916,1.162817021,16123,128,-9.899126279,-137256,177699.2188,55680,128
-0.286755596,-3976,-22.71117302,-314901,1.179260752,16351,128,-9.810056068,-136021,177718.75,56320,128
-0.070534953,-978,-22.65549513,-314129,1.124159828,15587,128,-9.859819992,-136711,177738.2813,56960,128
-0.114889755,-1593,-22.68549772,-314545,1.150195736,15948,128,-9.891048657,-137144,177757.8125,57600,128
-1.188780807,-16483,-22.72040459,-315029,0.904693711,12544,128,-10.08844555,-139881,177777.3438,58240,128
-0.260719688,-3615,-22.72054883,-315031,0.452274734,6271,128,-10.13135792,-140476,177796.875,58880,128
-1.256719381,-17425,-22.70259055,-314782,0.458982046,6364,128,-10.17953517,-141144,177816.4063,59520,128
-1.216619756,-16869,-22.68888744,-314592,0.590748261,8191,128,-10.20701351,-141525,177835.9375,60160,128
-1.475320038,-20456,-22.74398836,-315356,0.553821987,7679,128,-10.24379554,-142035,177855.4688,60800,128
-1.19202628,-16528,-22.6640776,-314248,0.521511498,7231,128,-10.23773733,-141951,177875,61440,128
-1.326821605,-18397,-22.71182212,-314910,0.590531896,8188,128,-10.22973183,-141840,177894.5313,62080,128
-0.290866529,-4033,-22.64763387,-314020,0.57343907,7951,128,-10.28627518,-142624,177914.0625,62720,128
-1.181712887,-16385,-22.75156114,-315461,0.572357246,7936,128,-10.2779812,-142509,177933.5938,63360,128
-1.258306057,-17447,-22.68412741,-314526,0.47996944,6655,128,-10.30654136,-142905,177953.125,64000,128
-0.286250745,-3969,-22.66357275,-314241,0.521439376,7230,128,-10.31671051,-143046,177972.6563,64640,128
-1.189718388,-16496,-22.64684053,-314009,0.446865612,6196,128,-10.3453428,-143443,177992.1875,65280,128
-1.254411489,-17393,-22.65354784,-314102,0.521006646,7224,128,-10.32659117,-143183,178011.7188,384,128
-1.198084497,-16612,-22.62765618,-313743,0.295265948,4094,128,-10.37145083,-143805,178031.25,1024,128
-1.203565741,-16688,-22.64200838,-313942,0.278173122,3857,128,-10.42965298,-144612,178050.7813,1664,128
-1.329417983,-18433,-22.64748962,-314018,0.29533807,4095,128,-10.41342561,-144387,178070.3125,2304,128
-1.217413094,-16880,-22.64078231,-313925,0.167250057,2319,128,-10.43628817,-144704,178089.8438,2944,128
-1.23717442,-17154,-22.72841009,-315140,0.21254244,2947,128,-10.44075971,-144766,178109.375,3584,128
-1.333889524,-18495,-22.70287904,-314786,0.166096111,2303,128,-10.48150843,-145331,178128.9063,4224,128
-1.214023377,-16833,-22.6560721,-314137,0.149508136,2073,128,-10.46261256,-145069,178148.4375,4864,128
-1.292708074,-17924,-22.6330653,-313818,0.229635266,3184,128,-10.40693467,-144297,178167.9688,5504,128
-1.197868132,-16609,-22.63962837,-313909,0.166096111,2303,128,-10.42669599,-144571,178187.5,6144,128
-1.251166016,-17348,-22.59476871,-313287,0.147777217,2049,128,-10.48222965,-145341,178207.0313,6784,128
-1.197868132,-16609,-22.62556465,-313714,0.036637787,508,128,-10.57050652,-146565,178226.5625,7424,128
-1.199022078,-16625,-22.64979752,-314050,0.037070517,514,128,-10.5971194,-146934,178246.0938,8064,128
-0.14568569,-2020,-22.59988935,-313358,0.003678203,51,128,-10.60613461,-147059,178265.625,8704,128
-1.181640766,-16384,-22.42751866,-310968,1.458515699,20223,128,-10.43736999,-144719,178285.1563,9344,128
-1.149402398,-15937,-22.44598179,-311224,0.589666437,8176,128,-10.49860126,-145568,178304.6875,9984,128
-1.190872334,-16512,-22.61453004,-313561,0.889980899,12340,128,-10.88935624,-150986,178324.2188,10624,128
-1.32884101,-18425,-22.56144852,-312825,1.070645579,14845,128,-10.71806737,-148611,178343.75,11264,128
-1.188636564,-16481,-22.60428877,-313419,1.181568644,16383,128,-10.67234226,-147977,178363.2813,11904,128
-1.18402078,-16417,-22.57890196,-313067,1.181496523,16382,128,-10.65337427,-147714,178382.8125,12544,128
-0.29180411,-4046,-22.56945402,-312936,1.181424401,16381,128,-10.63988753,-147527,178402.3438,13184,128
-1.182289861,-16393,-22.61799188,-313609,1.144714492,15872,128,-10.67104407,-147959,178421.875,13824,128
-0.018967988,-263,-22.49480814,-311901,0.020698907,287,128,-10.60159094,-146996,178441.4063,14464,128
-0.065774925,-912,-22.46617585,-311504,0.073708305,1022,128,-10.57706959,-146656,178460.9375,15104,128
-1.112476124,-15425,-22.38460629,-310373,0.073780426,1023,128,-10.49643761,-145538,178480.4688,15744,128
-1.137646572,-15774,-22.35388247,-309947,0.175904653,2439,128,-10.48049873,-145317,178500,16384,128
-1.095094811,-15184,-22.36556618,-310109,0.147705096,2048,128,-10.48634058,-145398,178519.5313,17024,128
-1.180558941,-16369,-22.43141323,-311022,0.027406219,380,128,-10.59805698,-146947,178539.0625,17664,128
-1.193180226,-16544,-22.50187606,-311999,1.179765604,16358,128,-10.7128025,-148538,178558.5938,18304,128
-6.49E-04,-9,-22.5133434,-312158,1.03746963,14385,128,-10.80569515,-149826,178578.125,18944,128
-1.186328672,-16449,-22.53952355,-312521,1.125818625,15610,128,-10.8388711,-150286,178597.6563,19584,128
-0.060005195,-832,-22.53440291,-312450,1.172481319,16257,128,-10.84730933,-150403,178617.1875,20224,128
-0.002596379,-36,-22.48752385,-311800,1.106850637,15347,128,-10.87284039,-150757,178636.7188,20864,128
-0.036926274,-512,-22.47309953,-311600,1.034440522,14343,128,-10.8882023,-150970,178656.25,21504,128
-1.200031781,-16639,-22.48673051,-311789,1.106634272,15344,128,-10.88582228,-150937,178675.7813,22144,128
-0.001153946,-16,-22.47425347,-311616,1.034007792,14337,128,-10.90991091,-151271,178695.3125,22784,128
-0.065270074,-905,-22.42903321,-310989,1.089325081,15104,128,-10.92743646,-151514,178714.8438,23424,128
-0.018463137,-256,-22.44655877,-311232,1.035089616,14352,128,-10.92426311,-151470,178734.375,24064,128
-1.181640766,-16384,-22.45095819,-311293,1.164259453,16143,128,-10.95340025,-151874,178753.9063,24704,128
-0.036998396,-513,-22.41893618,-310849,1.146517533,15897,128,-10.96515607,-152037,178773.4375,25344,128
