Device,Device,Device,Device,Device,Device,Device,Device,Device,Device,Device,Device
ECG Vx-RL,ECG Vx-RL,ECG LA-RA,ECG LA-RA,ExG2 CH1,ExG2 CH1,EXG1 Status,ECG LL-RA,ECG LL-RA,Timestamp,Timestamp,EXG2 Status
RAW,CAL,CAL,RAW,RAW,CAL,RAW,CAL,RAW,CAL,RAW,RAW
No Units,mV,mV,No Units,No Units,mV,No Units,mV,No Units,mSecs,No Units,No Units
-24625,-1.775995109,-11.29619435,-156627,14724,1.061918862,128,0.835673313,11587,14214.84375,7040,128
-8193,-0.590892505,-11.29698769,-156638,16335,1.178106806,128,0.87144564,12083,14234.375,7680,128
-8309,-0.599258613,-11.27830819,-156379,16191,1.167721292,128,0.897770035,12448,14253.90625,8320,128
-913,-0.065847047,-11.27080754,-156275,14342,1.0343684,128,0.968809839,13433,14273.4375,8960,128
-5,-3.61E-04,-11.22169271,-155594,16128,1.163177629,128,1.017491939,14108,14292.96875,9600,128
4038,0.291227137,-11.23914614,-155836,15864,1.144137519,128,0.994124531,13784,14312.5,10240,128
-254976,-18.38928442,-11.29323736,-156586,16065,1.158633966,128,0.844904881,11715,14332.03125,10880,128
8107,0.584690044,-11.28790036,-156512,15416,1.111827029,128,0.832211474,11539,14351.5625,11520,128
-254338,-18.34327082,-11.27852455,-156382,14881,1.073241958,128,0.820816257,11381,14371.09375,12160,128
-254916,-18.38495712,-11.31530658,-156892,14399,1.038479333,128,0.80011735,11094,14390.625,12800,128
14348,1.03480113,-10.92758071,-151516,318,0.022934678,128,1.006890059,13961,14410.15625,13440,128
-227361,-16.39764564,-11.11913575,-154172,961,0.069308885,128,1.259171517,17459,14429.6875,14080,128
33267,2.399270224,-11.33268789,-157133,14534,1.048215753,128,0.614187791,8516,14449.21875,14720,128
-227077,-16.3771631,-11.28537611,-156477,14447,1.041941171,128,0.730519978,10129,14468.75,15360,128
-221426,-15.96960377,-11.26655236,-156216,15615,1.126179233,128,0.851972801,11813,14488.28125,16000,128
-229376,-16.54297072,-11.19024768,-155158,16383,1.181568644,128,0.896616089,12432,14507.8125,16640,128
-228985,-16.51477117,-11.23085215,-155721,14467,1.043383603,128,0.897409427,12443,14527.34375,17280,128
32871,2.370710059,-11.17402031,-154933,15104,1.089325081,128,0.951861257,13198,14546.875,17920,128
34315,2.474853691,-11.15584566,-154681,16002,1.154090304,128,0.987272976,13689,14566.40625,18560,128
-229329,-16.53958101,-11.0866089,-153721,15391,1.110023988,128,1.087449919,15078,14585.9375,19200,128
-229312,-16.53835494,-11.05177415,-153238,15355,1.10742761,128,1.140892046,15819,14605.46875,19840,128
36863,2.658619602,-11.04174924,-153099,0,0,128,1.218783405,16899,14625,20480,128
-226241,-16.31686942,-11.02155519,-152819,255,0.018391015,128,1.282394681,17781,14644.53125,21120,128
-225296,-16.24871448,-11.09346045,-153816,2047,0.147632974,128,1.220009472,16916,14664.0625,21760,128
32828,2.367608829,-11.14610924,-154546,16374,1.18091955,128,1.045691496,14499,14683.59375,22400,128
33664,2.427902511,-11.19724348,-155255,15360,1.107788218,128,0.943206661,13078,14703.125,23040,128
-221216,-15.95445823,-11.23691037,-155805,16383,1.181568644,128,0.864810451,11991,14722.65625,23680,128
-221191,-15.95265519,-11.2560226,-156070,16383,1.181568644,128,0.85327099,11831,14742.1875,24320,128
-221432,-15.9700365,-11.20294108,-155334,16367,1.180414698,128,0.885220872,12274,14761.71875,24960,128
32880,2.371359154,-11.24390617,-155902,16288,1.17471709,128,0.869354113,12054,14781.25,25600,128
-221312,-15.96138191,-11.23121276,-155726,16095,1.160797615,128,0.864449843,11986,14800.78125,26240,128
-228869,-16.50640506,-11.21577873,-155512,14361,1.035738711,128,0.865892275,12006,14820.3125,26880,128
-229373,-16.54275436,-11.19983985,-155291,16335,1.178106806,128,0.865892275,12006,14839.84375,27520,128
33264,2.39905386,-11.210009,-155432,15900,1.146733898,128,0.864738329,11990,14859.375,28160,128
-229361,-16.5418889,-11.21426418,-155491,16001,1.154018182,128,0.854352814,11846,14878.90625,28800,128
-229360,-16.54181678,-11.20149865,-155314,16353,1.179404995,128,0.885509358,12278,14898.4375,29440,128
33854,2.441605621,-11.18354037,-155065,14716,1.061341889,128,0.931955687,12922,14917.96875,30080,128
33786,2.43670135,-11.16370692,-154790,16312,1.176448009,128,1.009197951,13993,14937.5,30720,128
34607,2.495913207,-11.17466941,-154942,16312,1.176448009,128,0.963256474,13356,14957.03125,31360,128
-229362,-16.54196102,-11.18909373,-155142,14527,1.047710901,128,0.860843761,11936,14976.5625,32000,128
-228729,-16.49630803,-11.2096484,-155427,16175,1.166567345,128,0.819013216,11356,14996.09375,32640,128
32864,2.370205208,-11.22190907,-155597,15328,1.105480326,128,0.808844067,11215,15015.625,33280,128
-228929,-16.51073235,-11.19515195,-155226,15599,1.125025287,128,0.808267094,11207,15035.15625,33920,128
-228097,-16.45072716,-11.03280616,-152975,91,0.006563068,128,0.847717625,11754,15054.6875,34560,128
-217031,-15.65262921,-11.27297119,-156305,3847,0.277451906,128,1.177746198,16330,15074.21875,35200,128
36878,2.659701426,-11.38807731,-157901,15376,1.108942164,128,0.760883184,10550,15093.75,35840,128
-229248,-16.53373915,-11.17827549,-154992,15363,1.108004583,128,0.66863962,9271,15113.28125,36480,128
33728,2.432518295,-11.14416196,-154519,16380,1.181352279,128,0.898779738,12462,15132.8125,37120,128
-229362,-16.54196102,-11.11711635,-154144,15365,1.108148826,128,0.927412024,12859,15152.34375,37760,128
33790,2.436989836,-11.11661149,-154137,15872,1.144714492,128,0.944721215,13099,15171.875,38400,128
-221153,-15.94991457,-11.05112506,-153229,16271,1.173491022,128,1.002274275,13897,15191.40625,39040,128
36832,2.656383831,-11.05804873,-153325,16382,1.181496523,128,1.032637481,14318,15210.9375,39680,128
36079,2.602076245,-10.99811566,-152494,16380,1.181352279,128,1.096104514,15198,15230.46875,40320,128
44064,3.17796745,-10.96883428,-152088,15888,1.145868438,128,1.146084803,15891,15250,40960,128
-217085,-15.65652378,-10.91048788,-151279,231,0.016660096,128,1.255493314,17408,15269.53125,41600,128
-213956,-15.43085521,-10.92693161,-151507,1551,0.111860646,128,1.294583237,17950,15289.0625,42240,128
42944,3.097191226,-10.95412146,-151884,504,0.036349301,128,1.254050881,17388,15308.59375,42880,128
40990,2.956265564,-11.02141094,-152817,120,0.008654595,128,1.123222247,15574,15328.125,43520,128
-227833,-16.43168705,-11.12865581,-154304,16195,1.168009778,128,0.975805637,13530,15347.65625,44160,128
33220,2.395880508,-11.12050606,-154191,16376,1.181063793,128,0.936571471,12986,15367.1875,44800,128
32771,2.363497897,-11.13139643,-154342,15872,1.144714492,128,0.909886469,12616,15386.71875,45440,128
40962,2.954246158,-11.11978485,-154181,16260,1.172697684,128,0.936643593,12987,15406.25,46080,128
-221081,-15.94472181,-11.14437832,-154522,15871,1.14464237,128,0.908588279,12598,15425.78125,46720,128
-221181,-15.95193397,-11.12375154,-154236,15631,1.127333179,128,0.911401023,12637,15445.3125,47360,128
-227389,-16.39966505,-11.12706913,-154282,15619,1.12646772,128,0.906280387,12566,15464.84375,48000,128
41095,2.963838335,-11.0709585,-153504,16350,1.17918863,128,0.940610282,13042,15484.375,48640,128
34688,2.501755059,-11.12656428,-154275,15422,1.112259759,128,0.904477346,12541,15503.90625,49280,128
40960,2.954101915,-11.11242844,-154079,15384,1.109519137,128,0.908804644,12601,15523.4375,49920,128
-228233,-16.4605357,-11.12591518,-154266,15361,1.10786034,128,0.90642463,12568,15542.96875,50560,128
-220416,-15.89676093,-11.09576834,-153848,16319,1.17695286,128,0.946091526,13118,15562.5,51200,128
-227380,-16.39901595,-11.06987668,-153489,16127,1.163105507,128,1.042229657,14451,15582.03125,51840,128
-227384,-16.39930444,-11.09115256,-153784,15613,1.12603499,128,1.046412712,14509,15601.5625,52480,128
-227392,-16.39988141,-11.08848406,-153747,15871,1.14464237,128,0.905270684,12552,15621.09375,53120,128
-220260,-15.88550995,-11.11927999,-154174,15379,1.109158529,128,0.848366719,11763,15640.625,53760,128
40967,2.954606766,-11.11012055,-154047,15798,1.139377491,128,0.85593949,11868,15660.15625,54400,128
40967,2.954606766,-11.12699701,-154281,16070,1.158994574,128,0.828244785,11484,15679.6875,55040,128
-221183,-15.95207822,-10.91575276,-151352,55,0.00396669,128,0.900294292,12483,15699.21875,55680,128
-214016,-15.4351825,-10.69318541,-148266,1543,0.111283673,128,1.428296736,19804,15718.75,56320,128
-222093,-16.0177089,-11.41115623,-158221,14419,1.039921765,128,0.892144548,12370,15738.28125,56960,128
41731,3.00970769,-11.07067002,-153500,240,0.017309191,128,0.735856978,10203,15757.8125,57600,128
40975,2.955183739,-11.08632041,-153717,15928,1.148753303,128,0.857958896,11896,15777.34375,58240,128
41080,2.96275651,-11.02653158,-152888,15422,1.112259759,128,0.906785239,12573,15796.875,58880,128
43196,3.115365877,-11.03035403,-152941,15872,1.144714492,128,0.920199862,12759,15816.40625,59520,128
41912,3.022761705,-10.98520589,-152315,16322,1.177169225,128,0.979411719,13580,15835.9375,60160,128
42995,3.100869429,-10.98347497,-152291,15360,1.107788218,128,0.999317288,13856,15855.46875,60800,128
44641,3.21958163,-10.95260691,-151863,16376,1.181063793,128,1.033430819,14329,15875,61440,128
45464,3.278937731,-10.89418839,-151053,16376,1.181063793,128,1.137935059,15778,15894.53125,62080,128
-216641,-15.62450178,-10.86223851,-150610,287,0.020698907,128,1.206955458,16735,15914.0625,62720,128
-215097,-15.51314598,-10.80187271,-149773,1787,0.128881351,128,1.293501412,17935,15933.59375,63360,128
48383,3.489460765,-10.84593902,-150384,1536,0.110778822,128,1.267898234,17580,15953.125,64000,128
47585,3.431907705,-10.95217418,-151857,16318,1.176880738,128,1.071871647,14862,15972.65625,64640,128
45032,3.247781187,-11.0239352,-152852,16256,1.172409197,128,0.941547864,13055,15992.1875,65280,128
-218881,-15.78605423,-11.04102803,-153089,16383,1.181568644,128,0.875340208,12137,16011.71875,384,128
41265,2.976099011,-11.08076705,-153640,16138,1.163898845,128,0.83156238,11530,16031.25,1024,128
43084,3.107288254,-11.06316937,-153396,16152,1.164908548,128,0.855795247,11866,16050.78125,1664,128
-219057,-15.79874763,-11.04737473,-153177,16263,1.172914049,128,0.842236381,11678,16070.3125,2304,128
-220721,-15.91875803,-11.04348016,-153123,15429,1.11276461,128,0.826585987,11461,16089.84375,2944,128
43012,3.102095497,-11.06764091,-153458,16322,1.177169225,128,0.826585987,11461,16109.375,3584,128
43008,3.10180701,-11.05898631,-153338,15748,1.13577141,128,0.836250286,11595,16128.90625,4224,128
41817,3.015910151,-11.06807364,-153464,15392,1.11009611,128,0.814469554,11293,16148.4375,4864,128
41458,2.990018486,-11.03972984,-153071,16140,1.164043088,128,0.825504163,11446,16167.96875,5504,128
43070,3.106278551,-11.03186858,-152962,15374,1.108797921,128,0.813387729,11278,16187.5,6144,128
43015,3.102311862,-11.04571593,-153154,15872,1.144714492,128,0.848871571,11770,16207.03125,6784,128
-218124,-15.73145816,-11.00720298,-152620,15903,1.146950262,128,0.936355106,12983,16226.5625,7424,128
-217092,-15.65702863,-11.00922239,-152648,15857,1.143632667,128,0.958712811,13293,16246.09375,8064,128
45055,3.249439984,-10.97640705,-152193,16184,1.16721644,128,0.87187837,12089,16265.625,8704,128
44016,3.174505612,-11.01203513,-152687,16128,1.163177629,128,0.791534876,10975,16285.15625,9344,128
36863,2.658619602,-11.04210985,-153104,16260,1.172697684,128,0.755978913,10482,16304.6875,9984,128
41856,3.018722894,-11.02941645,-152928,16142,1.164187332,128,0.759873481,10536,16324.21875,10624,128
41857,3.018795016,-11.0159297,-152741,16318,1.176880738,128,0.731024829,10136,16343.75,11264,128
48639,3.507923902,-10.67501076,-148014,1010,0.072842845,128,0.955900068,13254,16363.28125,11904,128
47246,3.407458473,-11.3080223,-156791,2,1.44E-04,128,0.880388722,12207,16382.8125,12544,128
-220224,-15.88291358,-11.08516646,-153701,255,0.018391015,128,0.516823592,7166,16402.34375,13184,128
-217883,-15.71407684,-11.00907815,-152646,16151,1.164836426,128,0.771196576,10693,16421.875,13824,128
-220031,-15.8689941,-10.97539735,-152179,16189,1.167577048,128,0.809781648,11228,16441.40625,14464,128
42977,3.09957124,-10.9495778,-151821,16316,1.176736495,128,0.852333409,11818,16460.9375,15104,128
44670,3.221673157,-10.92145037,-151431,16064,1.158561845,128,0.879595385,12196,16480.46875,15744,128
-216963,-15.64772494,-10.92260431,-151447,15999,1.153873939,128,0.894236075,12399,16500,16384,128
48638,3.50785178,-10.8538724,-150494,16352,1.179332874,128,0.963617082,13361,16519.53125,17024,128
-216959,-15.64743646,-10.82610557,-150109,125,0.009015204,128,1.021891358,14169,16539.0625,17664,128
48896,3.526459161,-10.7538397,-149107,16382,1.181496523,128,1.135266559,15741,16558.59375,18304,128
48120,3.470492777,-10.73963174,-148910,206,0.014857056,128,1.197651767,16606,16578.125,18944,128
-213057,-15.36601786,-10.74309358,-148958,9,6.49E-04,128,1.19202628,16528,16597.65625,19584,128
-213028,-15.36392633,-10.795526,-149685,15935,1.149258155,128,1.103749407,15304,16617.1875,20224,128
48061,3.466237601,-10.86144517,-150599,16352,1.179332874,128,0.965059515,13381,16636.71875,20864,128
-217185,-15.66373595,-10.94799113,-151799,15393,1.110168232,128,0.81915746,11358,16656.25,21504,128
48128,3.47106975,-10.9715749,-152126,16292,1.175005576,128,0.787856673,10924,16675.78125,22144,128
45023,3.247132092,-10.95844876,-151944,16368,1.18048682,128,0.769105049,10664,16695.3125,22784,128
42224,3.045263653,-10.98664832,-152335,16382,1.181496523,128,0.779923294,10814,16714.84375,23424,128
44415,3.203282142,-10.90731453,-151235,240,0.017309191,128,0.785116051,10886,16734.375,24064,128
42744,3.0827669,-10.93969714,-151684,15832,1.141829627,128,0.784250591,10874,16753.90625,24704,128
45048,3.248935133,-10.9298886,-151548,16136,1.163754602,128,0.768816563,10660,16773.4375,25344,128
44148,3.184025667,-10.91928672,-151401,15874,1.144858735,128,0.774297807,10736,16792.96875,25984,128
49144,3.544345325,-10.93342256,-151597,16204,1.168658873,128,0.762181373,10568,16812.5,26624,128
-218051,-15.72619328,-10.96342516,-152013,16369,1.180558941,128,0.751579493,10421,16832.03125,27264,128
42990,3.100508821,-10.94070684,-151698,16320,1.177024982,128,0.767951103,10648,16851.5625,27904,128
-217479,-15.6849397,-10.90204965,-151162,16383,1.181568644,128,0.857381923,11888,16871.09375,28544,128
47118,3.398226905,-10.9095503,-151266,16354,1.179477117,128,0.916377415,12706,16890.625,29184,128
-214544,-15.47326272,-10.9175558,-151377,16383,1.181568644,128,0.818868973,11354,16910.15625,29824,128
-217057,-15.65450438,-10.9475584,-151793,15611,1.125890747,128,0.729582397,10116,16929.6875,30464,128
-217600,-15.69366642,-10.96227121,-151997,15899,1.146661776,128,0.705782259,9786,16949.21875,31104,128
-217117,-15.65883167,-10.96861791,-152085,15863,1.144065397,128,0.691502177,9588,16968.75,31744,128
42559,3.069424399,-10.96421849,-152024,16258,1.172553441,128,0.68587669,9510,16988.28125,32384,128
46655,3.364834591,-10.66851982,-147924,1052,0.075871953,128,0.832716326,11546,17007.8125,33024,128
-217088,-15.65674015,-10.87709557,-150816,15567,1.122717395,128,1.141036289,15821,17027.34375,33664,128
-221153,-15.94991457,-11.04715837,-153174,16131,1.163393994,128,0.4888404,6778,17046.875,34304,128
42752,3.083343873,-10.96010756,-151967,384,0.027694705,128,0.621544197,8618,17066.40625,34944,128
-213073,-15.36717181,-10.93125891,-151567,16319,1.17695286,128,0.75496921,10468,17085.9375,35584,128
-213056,-15.36594574,-10.88611077,-150941,16377,1.181135914,128,0.780067537,10816,17105.46875,36224,128
47612,3.433854989,-10.89613568,-151080,16240,1.171255251,128,0.799756741,11089,17125,36864,128
45057,3.249584228,-10.86613308,-150664,15998,1.153801817,128,0.830624799,11517,17144.53125,37504,128
45086,3.251675755,-10.85026632,-150444,15872,1.144714492,128,0.853920085,11840,17164.0625,38144,128
47198,3.403996635,-10.79271326,-149646,16382,1.181496523,128,0.944144242,13091,17183.59375,38784,128
-213759,-15.41664725,-10.76090762,-149205,16369,1.180558941,128,0.999677896,13861,17203.125,39424,128
-213249,-15.37986521,-10.71539887,-148574,16383,1.181568644,128,1.114856138,15458,17222.65625,40064,128
49150,3.544778054,-10.73292443,-148817,15870,1.144570249,128,1.127333179,15631,17242.1875,40704,128
49136,3.543768352,-10.72592863,-148720,16302,1.175726792,128,1.119904652,15528,17261.71875,41344,128
49137,3.543840473,-10.85279058,-150479,15376,1.108942164,128,0.917603483,12723,17281.25,41984,128
-213892,-15.42623942,-10.91459881,-151336,16355,1.179549239,128,0.801054931,11107,17300.78125,42624,128
45279,3.265595229,-10.94207715,-151717,15608,1.125674382,128,0.742203682,10291,17320.3125,43264,128
-213825,-15.42140727,-10.91640185,-151361,15367,1.108293069,128,0.742852776,10300,17339.84375,43904,128
-213117,-15.37034516,-10.95152509,-151848,15873,1.144786614,128,0.737083046,10220,17359.375,44544,128
47484,3.424623421,-10.90507876,-151204,16374,1.18091955,128,0.737660019,10228,17378.90625,45184,128
49151,3.544850176,-10.89332293,-151041,16272,1.173563143,128,0.758142562,10512,17398.4375,45824,128
-217074,-15.65573044,-10.92729222,-151512,16383,1.181568644,128,0.729366032,10113,17417.96875,46464,128
47135,3.399452972,-10.88740896,-150959,16078,1.159571547,128,0.749632209,10394,17437.5,47104,128
-216853,-15.63979156,-10.91640185,-151361,16271,1.173491022,128,0.735135762,10193,17457.03125,47744,128
-216832,-15.63827701,-10.90536724,-151208,15887,1.145796316,128,0.753454656,10447,17476.5625,48384,128
47589,3.432196192,-10.92058491,-151419,16122,1.162744899,128,0.828172663,11483,17496.09375,49024,128
-215040,-15.50903505,-10.87363373,-150768,16095,1.160797615,128,0.897409427,12443,17515.625,49664,128
-216040,-15.58115668,-10.90003024,-151134,16159,1.165413399,128,0.828244785,11484,17535.15625,50304,128
45059,3.249728471,-10.91640185,-151361,16352,1.179332874,128,0.734198181,10180,17554.6875,50944,128
-220200,-15.88118266,-10.93349468,-151598,16317,1.176808617,128,0.705421651,9781,17574.21875,51584,128
45091,3.252036363,-10.91878187,-151394,16376,1.181063793,128,0.690420352,9573,17593.75,52224,128
49088,3.540306513,-10.93450438,-151612,16352,1.179332874,128,0.69474765,9633,17613.28125,52864,128
47102,3.397072959,-10.74186751,-148941,120,0.008654595,128,0.733044235,10164,17632.8125,53504,128
-197604,-14.25152233,-10.53812391,-146116,39,0.002812744,128,1.300280845,18029,17652.34375,54144,128
36739,2.64967652,-11.05134142,-153232,14336,1.03393567,128,0.564784475,7831,17671.875,54784,128
45183,3.258671553,-10.92231583,-151443,24,0.001730919,128,0.564423867,7826,17691.40625,55424,128
47104,3.397217202,-10.87067674,-150727,240,0.017309191,128,0.753526777,10448,17710.9375,56064,128
45694,3.295525705,-10.85675727,-150534,16320,1.177024982,128,0.789876078,10952,17730.46875,56704,128
45344,3.270283135,-10.87190281,-150744,15980,1.152503628,128,0.792472457,10988,17750,57344,128
48953,3.530570093,-10.82776437,-150132,16320,1.177024982,128,0.848799449,11769,17769.53125,57984,128
-213108,-15.36969607,-10.79112658,-149624,31,0.00223577,128,0.894740927,12406,17789.0625,58624,128
-213089,-15.36832575,-10.75629184,-149141,16383,1.181568644,128,0.93960058,13028,17808.59375,59264,128
49071,3.539080446,-10.74222812,-148946,120,0.008654595,128,1.003428221,13913,17828.125,59904,128
-213281,-15.38217311,-10.67428955,-148004,16355,1.179549239,128,1.131083504,15683,17847.65625,60544,128
-212996,-15.36161844,-10.67306348,-147987,16255,1.172337076,128,1.134040491,15724,17867.1875,61184,128
-196858,-14.1977196,-10.72261104,-148674,15997,1.153729696,128,1.12603499,15613,17886.71875,61824,128
-212994,-15.3614742,-10.82877407,-150146,16379,1.181280158,128,0.932388417,12928,17906.25,62464,128
-213244,-15.37950461,-10.87161432,-150740,15375,1.108870042,128,0.824782947,11436,17925.78125,63104,128
44908,3.238838105,-10.91618549,-151358,16382,1.181496523,128,0.73369333,10173,17945.3125,63744,128
-216961,-15.6475807,-10.9239025,-151465,16227,1.17031767,128,0.724894491,10051,17964.84375,64384,128
36640,2.642536478,-10.89462112,-151059,15870,1.144570249,128,0.73282787,10161,17984.375,65024,128
-217073,-15.65565832,-10.92685949,-151506,15887,1.145796316,128,0.711407746,9864,18003.90625,128,128
-212993,-15.36140208,-10.93948077,-151681,15903,1.146950262,128,0.705854381,9787,18023.4375,768,128
-214241,-15.45140987,-10.88906776,-150982,16335,1.178106806,128,0.731241194,10139,18042.96875,1408,128
49132,3.543479865,-10.9315474,-151571,16128,1.163177629,128,0.701599205,9728,18062.5,2048,128
45560,3.285861407,-10.91971945,-151407,16062,1.158417601,128,0.70982107,9842,18082.03125,2688,128
45119,3.254055769,-10.92217158,-151441,16264,1.17298617,128,0.686093055,9513,18101.5625,3328,128
-217097,-15.65738924,-10.90363632,-151184,16383,1.181568644,128,0.716528382,9935,18121.09375,3968,128
49135,3.54369623,-10.89930903,-151124,16142,1.164187332,128,0.757709832,10506,18140.625,4608,128
-214009,-15.43467765,-10.84262143,-150338,15935,1.149258155,128,0.845553976,11724,18160.15625,5248,128
46081,3.323436776,-10.84990571,-150439,16380,1.181352279,128,0.848727327,11768,18179.6875,5888,128
45059,3.249728471,-10.8918805,-151021,16256,1.172409197,128,0.729366032,10113,18199.21875,6528,128
-214887,-15.49800044,-10.92310916,-151454,16367,1.180414698,128,0.667918404,9261,18218.75,7168,128
48480,3.496456563,-10.90428542,-151193,16322,1.177169225,128,0.655874092,9094,18238.28125,7808,128
-216961,-15.6475807,-10.90060722,-151142,15391,1.110023988,128,0.661788066,9176,18257.8125,8448,128
45264,3.264513405,-10.87781678,-150826,16258,1.172553441,128,0.64029582,8878,18277.34375,9088,128
62208,4.486542283,-10.51706439,-145824,2036,0.146839636,128,1.237679271,17161,18296.875,9728,128
-220312,-15.88926028,-11.16255297,-154774,14111,1.017708304,128,0.722225991,10014,18316.40625,10368,128
-213048,-15.36536877,-10.94337534,-151735,127,0.009159447,128,0.458909924,6363,18335.9375,11008,128
-214149,-15.44477468,-10.88668774,-150949,16321,1.177097103,128,0.697488272,9671,18355.46875,11648,128
46595,3.360507293,-10.85581968,-150521,16380,1.181352279,128,0.726120559,10068,18375,12288,128
48669,3.510087551,-10.82069645,-150034,16380,1.181352279,128,0.775307509,10750,18394.53125,12928,128
49151,3.544850176,-10.82682679,-150119,16376,1.181063793,128,0.792905187,10994,18414.0625,13568,128
-215012,-15.50701565,-10.77814469,-149444,15879,1.145219343,128,0.833293299,11554,18433.59375,14208,128
63575,4.585132549,-10.75780639,-149162,15934,1.149186033,128,0.889836656,12338,18453.125,14848,128
48160,3.473377642,-10.71417281,-148557,15880,1.145291465,128,0.977536556,13554,18472.65625,15488,128
49075,3.539368932,-10.68618961,-148169,15584,1.123943463,128,1.048359996,14536,18492.1875,16128,128
-200512,-14.46125203,-10.62539108,-147326,15623,1.126756206,128,1.128487125,15647,18511.71875,16768,128
63960,4.612899376,-10.67349621,-147993,16352,1.179332874,128,1.127116815,15628,18531.25,17408,128
49148,3.544633811,-10.71842798,-148616,16176,1.166639467,128,1.00559187,13943,18550.78125,18048,128
48935,3.529271904,-10.87002765,-150718,16380,1.181352279,128,0.795862174,11035,18570.3125,18688,128
46073,3.322859803,-10.85726212,-150541,14592,1.052398807,128,0.756988616,10496,18589.84375,19328,128
-215026,-15.50802535,-10.90774726,-151241,16319,1.17695286,128,0.699796164,9703,18609.375,19968,128
47231,3.406376649,-10.88423561,-150915,15416,1.111827029,128,0.695468866,9643,18628.90625,20608,128
-214537,-15.47275787,-10.90543937,-151209,16383,1.181568644,128,0.694531285,9630,18648.4375,21248,128
-217087,-15.65666803,-10.88279317,-150895,16327,1.177529833,128,0.715879287,9926,18667.96875,21888,128
-213118,-15.37041728,-10.83771716,-150270,16333,1.177962563,128,0.735712735,10201,18687.5,22528,128
-213235,-15.37885551,-10.8662052,-150665,16307,1.1760874,128,0.724894491,10051,18707.03125,23168,128
49089,3.540378635,-10.86836885,-150695,15360,1.107788218,128,0.743790358,10313,18726.5625,23808,128
-213776,-15.41787331,-10.87594162,-150800,15463,1.115216746,128,0.736001222,10205,18746.09375,24448,128
48647,3.508500875,-10.84601114,-150385,15936,1.149330276,128,0.754392237,10460,18765.625,25088,128
-213024,-15.36363785,-10.82769225,-150131,16381,1.181424401,128,0.799179768,11081,18785.15625,25728,128
48706,3.512756051,-10.81406126,-149942,16256,1.172409197,128,0.87937902,12193,18804.6875,26368,128
-215032,-15.50845808,-10.77266345,-149368,16079,1.159643669,128,0.933181755,12939,18824.21875,27008,128
45166,3.257445485,-10.82069645,-150034,16132,1.163466115,128,0.816705324,11324,18843.75,27648,128
45296,3.266821297,-10.82127342,-150042,15422,1.112259759,128,0.761460157,10558,18863.28125,28288,128
46051,3.321273127,-10.8315147,-150184,16344,1.178755901,128,0.743429749,10308,18882.8125,28928,128
46624,3.36259882,-10.85329543,-150486,15872,1.144714492,128,0.714292611,9904,18902.34375,29568,128
-213892,-15.42623942,-10.82336495,-150071,16353,1.179404995,128,0.711768354,9869,18921.875,30208,128
-212977,-15.36024813,-10.51836258,-145842,487,0.035123233,128,0.911905874,12644,18941.40625,30848,128
49135,3.54369623,-10.71446129,-148561,16188,1.167504927,128,1.130073801,15669,18960.9375,31488,128
45567,3.286366258,-10.89599143,-151078,78,0.005625487,128,0.5145157,7134,18980.46875,32128,128
48959,3.531002823,-10.81492672,-149954,12,8.65E-04,128,0.667557796,9256,19000,32768,128
-213809,-15.42025333,-10.77828893,-149446,16163,1.165701886,128,0.800261593,11096,19019.53125,33408,128
47259,3.408396054,-10.77129314,-149349,16352,1.179332874,128,0.796222782,11040,19039.0625,34048,128
47226,3.406016041,-10.75427243,-149113,15808,1.140098708,128,0.846130949,11732,19058.59375,34688,128
-214048,-15.4374904,-10.71554312,-148576,16383,1.181568644,128,0.871157154,12079,19078.125,35328,128
48158,3.473233399,-10.6978012,-148330,16128,1.163177629,128,0.911905874,12644,19097.65625,35968,128
-213120,-15.37056152,-10.64241179,-147562,16379,1.181280158,128,0.996071815,13811,19117.1875,36608,128
49175,3.546581095,-10.59863396,-146955,16264,1.17298617,128,1.080670486,14984,19136.71875,37248,128
49152,3.544922298,-10.55492825,-146349,0,0,128,1.191088699,16515,19156.25,37888,128
-212861,-15.35188202,-10.56848712,-146537,243,0.017525556,128,1.1990942,16626,19175.78125,38528,128
-200464,-14.45779019,-10.62358804,-147301,16257,1.172481319,128,1.096681487,15206,19195.3125,39168,128
49088,3.540306513,-10.71734616,-148601,15090,1.088315378,128,0.939456336,13026,19214.84375,39808,128
48175,3.474459466,-10.78470776,-149535,15872,1.144714492,128,0.805526472,11169,19234.375,40448,128
46975,3.387913512,-10.79177568,-149633,16380,1.181352279,128,0.792833065,10993,19253.90625,41088,128
47103,3.39714508,-10.78312108,-149513,15480,1.116442813,128,0.771412941,10696,19273.4375,41728,128
-213504,-15.39825623,-10.80187271,-149773,15615,1.126179233,128,0.756844372,10494,19292.96875,42368,128
-215071,-15.51127082,-10.82163403,-150047,15377,1.109014286,128,0.746675223,10353,19312.5,43008,128
47296,3.411064555,-10.76848039,-149310,16368,1.18048682,128,0.774369928,10737,19332.03125,43648,128
-213055,-15.36587362,-10.78586171,-149551,15815,1.140603559,128,0.763263197,10583,19351.5625,44288,128
48652,3.508861483,-10.80216119,-149777,14832,1.069707998,128,0.762253495,10569,19371.09375,44928,128
47075,3.395125675,-10.80309877,-149790,15410,1.111394299,128,0.755113453,10470,19390.625,45568,128
46050,3.321201005,-10.80540667,-149822,15360,1.107788218,128,0.760666819,10547,19410.15625,46208,128
-213873,-15.42486911,-10.77021131,-149334,16131,1.163393994,128,0.852982504,11827,19429.6875,46848,128
48135,3.471574601,-10.77179799,-149356,15616,1.126251355,128,0.911617388,12640,19449.21875,47488,128
47585,3.431907705,-10.74677178,-149009,15916,1.147887844,128,0.852477652,11820,19468.75,48128,128
-213890,-15.42609518,-10.82069645,-150034,16383,1.181568644,128,0.738453357,10239,19488.28125,48768,128
-215265,-15.52526242,-10.82415829,-150082,16259,1.172625562,128,0.715302314,9918,19507.8125,49408,128
-215807,-15.56435234,-10.83533714,-150237,16383,1.181568644,128,0.694603407,9631,19527.34375,50048,128
48897,3.526531282,-10.80858002,-149866,16304,1.175871036,128,0.697993123,9678,19546.875,50688,128
-197581,-14.24986354,-10.62762685,-147357,19,0.001370311,128,0.747107952,10359,19566.40625,51328,128
65439,4.719567265,-10.42020505,-144481,1662,0.119866147,128,1.30136267,18044,19585.9375,51968,128
-213629,-15.40727143,-10.97381067,-152157,14337,1.034007792,128,0.602431965,8353,19605.46875,52608,128
48864,3.524151269,-10.80324302,-149792,8088,0.583319734,128,0.576396057,7992,19625,53248,128
-214713,-15.48545128,-10.75903246,-149179,15423,1.112331881,128,0.756051034,10483,19644.53125,53888,128
-213453,-15.39457803,-10.73263594,-148813,15887,1.145796316,128,0.785765146,10895,19664.0625,54528,128
-214785,-15.49064404,-10.74100205,-148929,16191,1.167721292,128,0.774081442,10733,19683.59375,55168,128
-213185,-15.37524943,-10.68763205,-148189,15865,1.144209641,128,0.848222476,11761,19703.125,55808,128
49151,3.544850176,-10.65344639,-147715,16380,1.181352279,128,0.880172358,12204,19722.65625,56448,128
58264,4.202094579,-10.5961097,-146920,16376,1.181063793,128,0.958424325,13289,19742.1875,57088,128
-212992,-15.36132996,-10.57324714,-146603,15887,1.145796316,128,1.010496141,14011,19761.71875,57728,128
65473,4.722019401,-10.50415462,-145645,15968,1.151638168,128,1.122212544,15560,19781.25,58368,128
63512,4.580588887,-10.48533088,-145384,0,0,128,1.196569943,16591,19800.78125,59008,128
65024,4.68963679,-10.55579371,-146361,96,0.006923676,128,1.107716096,15359,19820.3125,59648,128
63495,4.579362819,-10.61767407,-147219,15872,1.144714492,128,0.960371609,13316,19839.84375,60288,128
-196993,-14.20745602,-10.70595094,-148443,15367,1.108293069,128,0.79615066,11039,19859.375,60928,128
-214021,-15.43554311,-10.73609778,-148861,16383,1.181568644,128,0.732972113,10163,19878.90625,61568,128
-214241,-15.45140987,-10.71806737,-148611,16367,1.180414698,128,0.718764152,9966,19898.4375,62208,128
-213992,-15.43345158,-10.70674428,-148454,15999,1.153873939,128,0.717970814,9955,19917.96875,62848,128
-215032,-15.50845808,-10.72405347,-148694,16333,1.177962563,128,0.725327221,10057,19937.5,63488,128
49025,3.535762851,-10.72542378,-148713,16256,1.172409197,128,0.71111926,9860,19957.03125,64128,128
49135,3.54369623,-10.68907448,-148209,15932,1.14904179,128,0.74169883,10284,19976.5625,64768,128
48896,3.526459161,-10.70775398,-148468,16368,1.18048682,128,0.736073343,10206,19996.09375,65408,128
49139,3.543984716,-10.7014794,-148381,15384,1.109519137,128,0.746747344,10354,20015.625,512,128
-215040,-15.50903505,-10.72463044,-148702,15899,1.146661776,128,0.740400641,10266,20035.15625,1152,128
-213049,-15.36544089,-10.7128025,-148538,16381,1.181424401,128,0.765715333,10617,20054.6875,1792,128
-213105,-15.3694797,-10.71720191,-148599,16283,1.174356481,128,0.795790052,11034,20074.21875,2432,128
-212993,-15.36140208,-10.66498586,-147875,16375,1.180991671,128,0.861348612,11943,20093.75,3072,128
61440,4.431152872,-10.63476689,-147456,16248,1.171832224,128,0.876566276,12154,20113.28125,3712,128
48240,3.479147372,-10.70371517,-148412,16138,1.163898845,128,0.709244097,9834,20132.8125,4352,128
48064,3.466453965,-10.72174558,-148662,15468,1.115577354,128,0.672534188,9325,20152.34375,4992,128
-213055,-15.36587362,-10.72210619,-148667,16351,1.179260752,128,0.661427458,9171,20171.875,5632,128
-214655,-15.48126822,-10.75254151,-149089,16259,1.172625562,128,0.647003132,8971,20191.40625,6272,128
48127,3.470997628,-10.71402856,-148555,16256,1.172409197,128,0.666115363,9236,20210.9375,6912,128
-197041,-14.21091786,-10.185954,-141233,3711,0.267643364,128,1.152936358,15986,20230.46875,7552,128
-214529,-15.4721809,-11.02083397,-152809,11839,0.853847963,128,0.862935288,11965,20250,8192,128
48924,3.528478566,-10.7415069,-148936,1022,0.073708305,128,0.50744778,7036,20269.53125,8832,128
48384,3.489532887,-10.68986782,-148220,194,0.013991596,128,0.697127664,9666,20289.0625,9472,128
-212993,-15.36140208,-10.64536877,-147603,16383,1.181568644,128,0.732106654,10151,20308.59375,10112,128
-213097,-15.36890273,-10.64233966,-147561,16367,1.180414698,128,0.771629306,10699,20328.125,10752,128
-213056,-15.36594574,-10.63931056,-147519,16383,1.181568644,128,0.759008021,10524,20347.65625,11392,128
-204788,-14.76964411,-10.6154383,-147188,16131,1.163393994,128,0.813459851,11279,20367.1875,12032,128
61440,4.431152872,-10.54201848,-146170,10,7.21E-04,128,0.888105737,12314,20386.71875,12672,128
49152,3.544922298,-10.52369958,-145916,16112,1.162023683,128,0.976526854,13540,20406.25,13312,128
-197618,-14.25253204,-10.4537416,-144946,35,0.002524257,128,1.073314079,14882,20425.78125,13952,128
65528,4.72598609,-10.41933959,-144469,16352,1.179332874,128,1.17471709,16288,20445.3125,14592,128
-212472,-15.32382671,-10.44725066,-144856,3,2.16E-04,128,1.19022324,16503,20464.84375,15232,128
51104,3.685703717,-10.50271219,-145625,15360,1.107788218,128,1.113341583,15437,20484.375,15872,128
57587,4.153268236,-10.6181068,-147225,14784,1.06624616,128,0.90952586,12611,20503.90625,16512,128
49151,3.544850176,-10.68972357,-148218,15420,1.112115516,128,0.814974405,11300,20523.4375,17152,128
47309,3.412002136,-10.72989532,-148775,15842,1.142550843,128,0.773288104,10722,20542.96875,17792,128
48647,3.508500875,-10.70407578,-148417,15864,1.144137519,128,0.763479562,10586,20562.5,18432,128
48112,3.469915804,-10.71323522,-148544,15870,1.144570249,128,0.758431048,10516,20582.03125,19072,128
-197104,-14.21546152,-10.70746549,-148464,15487,1.116947665,128,0.755185575,10471,20601.5625,19712,128
48167,3.473882493,-10.68741568,-148186,16380,1.181352279,128,0.769682022,10672,20621.09375,20352,128
48647,3.508500875,-10.70292183,-148401,15584,1.123943463,128,0.752805561,10438,20640.625,20992,128
-213064,-15.36652271,-10.70573458,-148440,15409,1.111322178,128,0.742059438,10289,20660.15625,21632,128
49150,3.544778054,-10.68842538,-148200,15848,1.142983573,128,0.7669414,10634,20679.6875,22272,128
-213056,-15.36594574,-10.68092474,-148096,16319,1.17695286,128,0.806896783,11188,20699.21875,22912,128
49081,3.539801662,-10.6491191,-147655,15876,1.145002978,128,0.887168156,12301,20718.75,23552,128
-212834,-15.34993474,-10.61450072,-147175,16335,1.178106806,128,0.916738023,12711,20738.28125,24192,128
3,2.16E-04,-10.6051249,-147045,0,0,128,0.898274886,12455,20757.8125,24832,128
-212993,-15.36140208,-10.69397875,-148277,16373,1.180847428,128,0.722730842,10021,20796.875,26112,128
-214004,-15.43431704,-10.73104927,-148791,16369,1.180558941,128,0.709965314,9844,20816.40625,26752,128
-213602,-15.40532415,-10.70119091,-148377,16367,1.180414698,128,0.691141569,9583,20835.9375,27392,128
-212989,-15.36111359,-10.18465581,-141215,3843,0.277163419,128,1.109086407,15378,20855.46875,28032,128
65532,4.726274577,-10.89051019,-151002,60,0.004327298,128,0.898347008,12456,20875,28672,128
-216577,-15.619886,-10.77187011,-149357,7943,0.572862097,128,0.505861104,7014,20894.53125,29312,128
-213018,-15.36320512,-10.67529925,-148018,1,7.21E-05,128,0.735856978,10203,20914.0625,29952,128
63518,4.581021617,-10.65467246,-147732,16256,1.172409197,128,0.781870578,10841,20933.59375,30592,128
61456,4.432306818,-10.62618442,-147337,16380,1.181352279,128,0.817715027,11338,20953.125,31232,128
-200608,-14.46817571,-10.61154373,-147134,15871,1.14464237,128,0.839207272,11636,20972.65625,31872,128
61663,4.447235995,-10.57584352,-146639,15878,1.145147222,128,0.875268087,12136,20992.1875,32512,128
-196616,-14.18026616,-10.54670638,-146235,16359,1.179837725,128,0.923805943,12809,21011.71875,33152,128
-196708,-14.18690135,-10.4970867,-145547,16383,1.181568644,128,1.013597371,14054,21031.25,33792,128
-197380,-14.23536709,-10.45713132,-144993,15759,1.136564748,128,1.073818931,14889,21050.78125,34432,128
-211457,-15.25062326,-10.42568629,-144557,16323,1.177241347,128,1.163826724,16137,21070.3125,35072,128
-197119,-14.21654334,-10.42229657,-144510,123,0.00887096,128,1.186905645,16457,21089.84375,35712,128
-212977,-15.36024813,-10.48482603,-145377,14723,1.06184674,128,1.101946366,15279,21109.375,36352,128
-199681,-14.40131896,-10.61349101,-147161,15235,1.098773014,128,0.879811749,12199,21128.90625,36992,128
49024,3.535690729,-10.64601787,-147612,15360,1.107788218,128,0.809132553,11219,21148.4375,37632,128
-213248,-15.37979309,-10.68085261,-148095,15599,1.125025287,128,0.75540194,10474,21167.96875,38272,128
-213446,-15.39407318,-10.69902726,-148347,15535,1.120409503,128,0.743646114,10311,21187.5,38912,128
-213892,-15.42623942,-10.70025333,-148364,15935,1.149258155,128,0.745088547,10331,21207.03125,39552,128
-213217,-15.37755732,-10.68799265,-148194,15967,1.151566047,128,0.738958208,10246,21226.5625,40192,128
-214257,-15.45256382,-10.70075818,-148371,16015,1.155027885,128,0.736289708,10209,21246.09375,40832,128
49149,3.544705933,-10.68510779,-148154,15890,1.146012681,128,0.734414546,10183,21265.625,41472,128
48768,3.517227592,-10.66440888,-147867,16348,1.179044387,128,0.734414546,10183,21285.15625,42112,128
-213124,-15.37085001,-10.72852501,-148756,15931,1.148969668,128,0.719196882,9972,21304.6875,42752,128
-213890,-15.42609518,-10.69268056,-148259,15553,1.121707692,128,0.763551684,10587,21324.21875,43392,128
-213506,-15.39840047,-10.63159354,-147412,16177,1.166711589,128,0.850097638,11787,21343.75,44032,128
49088,3.540306513,-10.62986262,-147388,16376,1.181063793,128,0.863728626,11976,21363.28125,44672,128
48904,3.527036134,-10.71597585,-148582,14448,1.042013293,128,0.680467567,9435,21382.8125,45312,128
48703,3.512539686,-10.70977339,-148496,15612,1.125962868,128,0.674048743,9346,21402.34375,45952,128
-213504,-15.39825623,-10.70486912,-148428,16335,1.178106806,128,0.648157078,8987,21421.875,46592,128
48140,3.471935209,-10.68106898,-148098,16134,1.163610359,128,0.627169684,8696,21441.40625,47232,128
-214272,-15.45364564,-10.71806737,-148611,15683,1.131083504,128,0.594714951,8246,21460.9375,47872,128
-196616,-14.18026616,-10.23629489,-141931,1849,0.133352892,128,1.15394606,16000,21480.46875,48512,128
48760,3.516650619,-11.04088378,-153087,15904,1.147022384,128,0.746026128,10344,21500,49152,128
-213223,-15.37799005,-10.73321292,-148821,127,0.009159447,128,0.433595232,6012,21519.53125,49792,128
-212996,-15.36161844,-10.64327724,-147574,135,0.00973642,128,0.634021239,8791,21539.0625,50432,128
49127,3.543119257,-10.65517731,-147739,16368,1.18048682,128,0.663879593,9205,21558.59375,51072,128
-213392,-15.39017861,-10.6564755,-147757,15751,1.135987775,128,0.699363434,9697,21578.125,51712,128
-200641,-14.47055572,-10.6411136,-147544,16175,1.166567345,128,0.716600504,9936,21597.65625,52352,128
61444,4.431441358,-10.5817575,-146721,15942,1.149763006,128,0.768744441,10659,21617.1875,52992,128
-197700,-14.25844601,-10.58933027,-146826,16381,1.181424401,128,0.793121552,10997,21636.71875,53632,128
-198721,-14.33208219,-10.5217523,-145889,15955,1.150700587,128,0.900727022,12489,21656.25,54272,128
-197569,-14.24899808,-10.44386094,-144809,16271,1.173491022,128,0.994413018,13788,21675.78125,54912,128
-196721,-14.18783893,-10.4660744,-145117,16373,1.180847428,128,1.053336388,14605,21695.3125,55552,128
-196849,-14.1970705,-10.49059576,-145457,15375,1.108870042,128,1.034656886,14346,21714.84375,56192,128
65024,4.68963679,-10.55622644,-146367,15328,1.105480326,128,0.939312093,13024,21734.375,56832,128
-212993,-15.36140208,-10.66058644,-147814,15171,1.09415723,128,0.737010924,10219,21753.90625,57472,128
-213440,-15.39364045,-10.70054182,-148368,16239,1.17118313,128,0.663807471,9204,21773.4375,58112,128
-212994,-15.3614742,-10.72542378,-148713,15361,1.10786034,128,0.625366643,8671,21792.96875,58752,128
-213007,-15.36241178,-10.73429474,-148836,15609,1.125746504,128,0.610870196,8470,21812.5,59392,128
-213105,-15.3694797,-10.71511039,-148570,15555,1.121851936,128,0.60928352,8448,21832.03125,60032,128
49023,3.535618607,-10.71619221,-148585,15744,1.135482923,128,0.604956222,8388,21851.5625,60672,128
-213217,-15.37755732,-10.7254959,-148714,15873,1.144786614,128,0.604739857,8385,21871.09375,61312,128
-213985,-15.43294673,-10.71092733,-148512,15423,1.112331881,128,0.610870196,8470,21890.625,61952,128
48895,3.526387039,-10.72744319,-148741,15616,1.126251355,128,0.610437466,8464,21910.15625,62592,128
48646,3.508428753,-10.70833095,-148476,16176,1.166639467,128,0.657028038,9110,21929.6875,63232,128
48736,3.5149197,-10.69123813,-148239,15864,1.144137519,128,0.731096951,10137,21949.21875,63872,128
49151,3.544850176,-10.67933806,-148074,15764,1.136925356,128,0.757277102,10500,21968.75,64512,128
49031,3.536195581,-10.70724913,-148461,15878,1.145147222,128,0.628107265,8709,21988.28125,65152,128
48642,3.508140267,-10.70385941,-148414,8128,0.586204599,128,0.570914813,7916,22007.8125,256,128
-213500,-15.39796774,-10.73566505,-148855,7737,0.558005042,128,0.534709756,7414,22027.34375,896,128
47488,3.424911907,-10.71626433,-148586,7682,0.554038352,128,0.554038352,7682,22046.875,1536,128
48995,3.533599202,-10.72174558,-148662,7408,0.534277026,128,0.503769577,6985,22066.40625,2176,128
62393,4.499884784,-10.39590006,-144144,1796,0.129530445,128,0.745954006,10343,22085.9375,2816,128
-204398,-14.74151668,-11.01398242,-152714,15985,1.152864236,128,0.6535662,9062,22105.46875,3456,128
-217081,-15.6562353,-10.77994773,-149469,8185,0.590315532,128,0.31971518,4433,22125,4096,128
49105,3.541532581,-10.69217571,-148252,8184,0.59024341,128,0.542643135,7524,22144.53125,4736,128
48758,3.516506376,-10.70429214,-148420,8162,0.588656734,128,0.585411261,8117,22164.0625,5376,128
61858,4.461299713,-10.61385162,-147166,15360,1.107788218,128,0.625727251,8676,22183.59375,6016,128
61759,4.454159672,-10.61551042,-147189,16136,1.163754602,128,0.648301321,8989,22203.125,6656,128
-199743,-14.4057905,-10.58752723,-146801,15409,1.111322178,128,0.691285812,9585,22222.65625,7296,128
-199778,-14.40831475,-10.59805698,-146947,15367,1.108293069,128,0.73989579,10259,22242.1875,7936,128
62527,4.509549082,-10.52297837,-145906,16378,1.181208036,128,0.809204675,11220,22261.71875,8576,128
63471,4.5776319,-10.48078722,-145321,16256,1.172409197,128,0.919190159,12745,22281.25,9216,128
-198593,-14.32285062,-10.46210771,-145062,16191,1.167721292,128,0.971766826,13474,22300.78125,9856,128
64634,4.661509354,-10.48388845,-145364,15612,1.125962868,128,0.968665596,13431,22320.3125,10496,128
65512,4.724832144,-10.56985743,-146556,14862,1.071871647,128,0.842308502,11679,22339.84375,11136,128
-200703,-14.47502726,-10.62647291,-147341,16381,1.181424401,128,0.700228894,9709,22359.375,11776,128
-214016,-15.4351825,-10.67025073,-147948,8111,0.584978531,128,0.582310031,8074,22378.90625,12416,128
-214016,-15.4351825,-10.70277759,-148399,7967,0.574593016,128,0.55836565,7742,22398.4375,13056,128
47879,3.453111464,-10.74107417,-148930,7264,0.523891511,128,0.524396363,7271,22417.96875,13696,128
-213729,-15.4144836,-10.73357352,-148826,8191,0.590748261,128,0.526343647,7298,22437.5,14336,128
-214079,-15.43972617,-10.7068164,-148455,7899,0.569688746,128,0.542210405,7518,22457.03125,14976,128
-214013,-15.43496614,-10.7034988,-148409,7687,0.55439896,128,0.53846008,7466,22476.5625,15616,128
48206,3.476695237,-10.74958453,-149048,8168,0.589089464,128,0.533700053,7400,22496.09375,16256,128
49055,3.5379265,-10.7464833,-149005,7872,0.567741462,128,0.513722362,7123,22515.625,16896,128
48656,3.50914997,-10.74179539,-148940,8088,0.583319734,128,0.508890213,7056,22535.15625,17536,128
48190,3.475541291,-10.74994513,-149053,7622,0.549711055,128,0.564423867,7826,22554.6875,18176,128
48400,3.490686833,-10.74828634,-149030,7950,0.573366949,128,0.622698143,8634,22574.21875,18816,128
47128,3.398948121,-10.69938787,-148352,16256,1.172409197,128,0.680106959,9430,22593.75,19456,128
48655,3.509077848,-10.74136266,-148934,15874,1.144858735,128,0.573366949,7950,22613.28125,20096,128
-215031,-15.50838596,-10.78477988,-149536,8067,0.581805179,128,0.469944533,6516,22632.8125,20736,128
48659,3.509366335,-10.74100205,-148929,7800,0.562548704,128,0.467925127,6488,22652.34375,21376,128
47324,3.41308396,-10.74806997,-149027,7806,0.562981434,128,0.449173504,6228,22671.875,22016,128
-213007,-15.36241178,-10.68770417,-148190,8079,0.582670639,128,0.433667354,6013,22691.40625,22656,128
63936,4.611168457,-10.46758896,-145138,2,1.44E-04,128,0.592695545,8218,22710.9375,23296,128
-202947,-14.6368682,-10.90745877,-151237,16257,1.172481319,128,0.603585911,8369,22730.46875,23936,128
47107,3.397433567,-10.80360363,-149797,7934,0.572213003,128,0.202950263,2814,22750,24576,128
-213780,-15.4181618,-10.67868896,-148065,8125,0.585988234,128,0.480762777,6666,22769.53125,25216,128
47114,3.397938418,-10.66621192,-147892,8160,0.588512491,128,0.51408297,7128,22789.0625,25856,128
49085,3.540090148,-10.6768138,-148039,8128,0.586204599,128,0.512496294,7106,22808.59375,26496,128
-213121,-15.37063365,-10.61118312,-147129,8191,0.590748261,128,0.555769271,7706,22828.125,27136,128
61447,4.431657723,-10.61983772,-147249,8184,0.59024341,128,0.584545801,8105,22847.65625,27776,128
-200497,-14.4601702,-10.58954663,-146829,15631,1.127333179,128,0.641449766,8894,22867.1875,28416,128
-199673,-14.40074198,-10.53516692,-146075,16383,1.181568644,128,0.719124761,9971,22886.71875,29056,128
63439,4.575324008,-10.49167758,-145472,16376,1.181063793,128,0.845193368,11719,22906.25,29696,128
-198208,-14.2950838,-10.46643501,-145122,16351,1.179260752,128,0.895606386,12418,22925.78125,30336,128
-198656,-14.32739429,-10.480066,-145311,15487,1.116947665,128,0.923084727,12799,22945.3125,30976,128
-196800,-14.19353654,-10.52788264,-145974,16225,1.170173427,128,0.813027121,11273,22964.84375,31616,128
-200196,-14.43846159,-10.60851462,-147092,15171,1.09415723,128,0.650969821,9026,22984.375,32256,128
49025,3.535762851,-10.67270287,-147982,7728,0.557355947,128,0.518987241,7196,23003.90625,32896,128
-212996,-15.36161844,-10.69275268,-148260,7705,0.55569715,128,0.481844602,6681,23023.4375,33536,128
48128,3.47106975,-10.67638107,-148033,7216,0.520429673,128,0.485955535,6738,23042.96875,34176,128
-213066,-15.36666696,-10.70962914,-148494,6535,0.471314844,128,0.447154098,6200,23062.5,34816,128
49089,3.540378635,-10.67299136,-147986,7316,0.527641836,128,0.477156696,6616,23082.03125,35456,128
49137,3.543840473,-10.72051951,-148645,6430,0.463742073,128,0.446865612,6196,23101.5625,36096,128
48763,3.516866984,-10.66570707,-147885,7366,0.531247918,128,0.475858507,6598,23121.09375,36736,128
48641,3.508068145,-10.6934739,-148270,7196,0.518987241,128,0.446865612,6196,23140.625,37376,128
49028,3.535979216,-10.68698295,-148180,8064,0.581588814,128,0.436191611,6048,23160.15625,38016,128
-213122,-15.37070577,-10.69390663,-148276,8039,0.579785774,128,0.51054901,7079,23179.6875,38656,128
49148,3.544633811,-10.64601787,-147612,8186,0.590387653,128,0.590387653,8186,23199.21875,39296,128
-213024,-15.36363785,-10.63822873,-147504,15639,1.127910152,128,0.602792573,8358,23218.75,39936,128
-204319,-14.73581907,-10.68092474,-148096,8191,0.590748261,128,0.476291236,6604,23238.28125,40576,128
-213109,-15.36976819,-10.6871272,-148182,8183,0.590171288,128,0.440014057,6101,23257.8125,41216,128
-213229,-15.37842278,-10.70061394,-148369,7943,0.572862097,128,0.382533119,5304,23277.34375,41856,128
-213120,-15.37056152,-10.68669447,-148176,7175,0.517472686,128,0.397822904,5516,23296.875,42496,128
-213250,-15.37993734,-10.67032286,-147949,7677,0.553677744,128,0.370849415,5142,23316.40625,43136,128
65310,4.710263575,-10.31872992,-143074,0,0,128,0.65313347,9056,23335.9375,43776,128
-213024,-15.36363785,-10.99068713,-152391,8701,0.627530292,128,0.478166399,6630,23355.46875,44416,128
-216311,-15.60070164,-10.73436686,-148837,3969,0.286250745,128,0.153907556,2134,23375,45056,128
48924,3.528478566,-10.65719672,-147767,7816,0.563702651,128,0.418593933,5804,23394.53125,45696,128
-204787,-14.76957199,-10.65121062,-147684,7715,0.556418366,128,0.453356558,6286,23414.0625,46336,128
61952,4.468079146,-10.59784062,-146944,7684,0.554182596,128,0.485017954,6725,23433.59375,46976,128
-200577,-14.46593993,-10.60490854,-147042,8191,0.590748261,128,0.50788051,7042,23453.125,47616,128
58175,4.195675754,-10.57021804,-146561,7424,0.535430972,128,0.537161891,7448,23472.65625,48256,128
-200572,-14.46557933,-10.54338879,-146189,15887,1.145796316,128,0.5995471,8313,23492.1875,48896,128
-197441,-14.23976651,-10.45482343,-144961,16313,1.17652013,128,0.687391244,9531,23511.71875,49536,128
-196734,-14.18877652,-10.44249063,-144790,16003,1.154162425,128,0.774081442,10733,23531.25,50176,128
-197549,-14.24755564,-10.38630788,-144011,16383,1.181568644,128,0.851251584,11803,23550.78125,50816,128
-197383,-14.23558345,-10.39986675,-144199,16131,1.163393994,128,0.869137748,12051,23570.3125,51456,128
65528,4.72598609,-10.49369699,-145500,16000,1.15394606,128,0.698425853,9684,23589.84375,52096,128
62494,4.507169069,-10.54086453,-146154,8188,0.590531896,128,0.571852395,7929,23609.375,52736,128
57345,4.135814802,-10.65676399,-147761,6150,0.443548017,128,0.436768584,6056,23628.90625,53376,128
-212993,-15.36140208,-10.64183481,-147554,8071,0.582093666,128,0.415853312,5766,23648.4375,54016,128
-213056,-15.36594574,-10.64219542,-147559,8191,0.590748261,128,0.398183512,5521,23667.96875,54656,128
-204785,-14.76942775,-10.62950201,-147383,8187,0.590459775,128,0.417367866,5787,23687.5,55296,128
-213248,-15.37979309,-10.64270027,-147566,8071,0.582093666,128,0.405539919,5623,23707.03125,55936,128
49151,3.544850176,-10.6101013,-147114,8092,0.58360822,128,0.407198716,5646,23726.5625,56576,128
-204793,-14.77000472,-10.6331081,-147433,7487,0.539974635,128,0.391115593,5423,23746.09375,57216,128
49135,3.54369623,-10.63289173,-147430,8176,0.589666437,128,0.400779891,5557,23765.625,57856,128
61455,4.432234696,-10.63022323,-147393,7998,0.576828787,128,0.392197417,5438,23785.15625,58496,128
48975,3.532156769,-10.6201262,-147253,8048,0.580434868,128,0.416430285,5774,23804.6875,59136,128
57438,4.142522114,-10.59134967,-146854,8160,0.588512491,128,0.493888914,6848,23824.21875,59776,128
-212993,-15.36140208,-10.56899197,-146544,8161,0.588584612,128,0.54949469,7619,23843.75,60416,128
62417,4.501615703,-10.61190434,-147139,7180,0.517833295,128,0.464751776,6444,23863.28125,61056,128
-213224,-15.37806217,-10.65149911,-147688,8189,0.590604018,128,0.366738482,5085,23882.8125,61696,128
-212996,-15.36161844,-10.65820642,-147781,7361,0.530887309,128,0.321590343,4459,23902.34375,62336,128
49150,3.544778054,-10.67731865,-148046,7216,0.520429673,128,0.308247841,4274,23921.875,62976,128
48695,3.511962713,-10.65719672,-147767,7588,0.547258919,128,0.304569638,4223,23941.40625,63616,128
-198665,-14.32804338,-10.49124485,-145466,7,5.05E-04,128,0.346111696,4799,23960.9375,64256,128
65535,4.726490942,-10.71676918,-148593,16368,1.18048682,128,0.576828787,7998,23980.46875,64896,128
-215837,-15.56651599,-10.82379768,-150077,3799,0.273990068,128,0.163211246,2263,24000,0,128
48141,3.472007331,-10.6308002,-147401,480,0.034618382,128,0.272187027,3774,24019.53125,640,128
48912,3.527613107,-10.6047643,-147040,7936,0.572357246,128,0.354189319,4911,24039.0625,1280,128
-204676,-14.76156649,-10.62063105,-147260,7933,0.572140881,128,0.387509511,5373,24058.59375,1920,128
57407,4.140286343,-10.59221513,-146866,7196,0.518987241,128,0.387581633,5374,24078.125,2560,128
61475,4.433677129,-10.59531636,-146909,7942,0.572789976,128,0.429700664,5958,24097.65625,3200,128
61511,4.436273508,-10.51576621,-145806,7664,0.552740163,128,0.484224616,6714,24117.1875,3840,128
-200704,-14.47509938,-10.50862616,-145707,8179,0.589882802,128,0.536729161,7442,24136.71875,4480,128
-198513,-14.31708089,-10.42294567,-144519,15927,1.148681182,128,0.642459469,8908,24156.25,5120,128
65297,4.709325994,-10.40924256,-144329,16378,1.181208036,128,0.733476965,10170,24175.78125,5760,128
64512,4.652710516,-10.40282373,-144240,16152,1.164908548,128,0.777182672,10776,24195.3125,6400,128
64538,4.654585678,-10.4457361,-144835,14846,1.070717701,128,0.717826571,9953,24214.84375,7040,128
-197569,-14.24899808,-10.5581016,-146393,8079,0.582670639,128,0.530743066,7359,24234.375,7680,128
57587,4.153268236,-10.59582121,-146916,6180,0.445711666,128,0.404602337,5610,24253.90625,8320,128
57359,4.136824505,-10.63152142,-147411,8160,0.588512491,128,0.34625594,4801,24273.4375,8960,128
-204546,-14.75219068,-10.63952692,-147522,7871,0.56766934,128,0.310627855,4307,24292.96875,9600,128
-212994,-15.3614742,-10.63534387,-147464,8079,0.582670639,128,0.317190923,4398,24312.5,10240,128
49023,3.535618607,-10.64652272,-147619,7224,0.521006646,128,0.322744289,4475,24332.03125,10880,128
58304,4.204979444,-10.63519962,-147462,7232,0.521583619,128,0.310627855,4307,24351.5625,11520,128
61467,4.433100156,-10.61897226,-147237,7612,0.548989838,128,0.327432195,4540,24371.09375,12160,128
-200316,-14.44711619,-10.62517472,-147323,7415,0.534781877,128,0.326061884,4521,24390.625,12800,128
-204800,-14.77050957,-10.63296385,-147431,7937,0.572429368,128,0.316830315,4393,24410.15625,13440,128
-199905,-14.4174742,-10.60454793,-147037,7623,0.549783176,128,0.361978455,5019,24429.6875,14080,128
-204594,-14.75565252,-10.6014467,-146994,8191,0.590748261,128,0.412391473,5718,24449.21875,14720,128
-203807,-14.6988928,-10.57230956,-146590,8191,0.590748261,128,0.483503399,6704,24468.75,15360,128
57916,4.176996252,-10.58485873,-146764,7168,0.516967835,128,0.391187714,5424,24488.28125,16000,128
-198652,-14.3271058,-10.56985743,-146556,7743,0.558437772,128,0.336447398,4665,24507.8125,16640,128
-200577,-14.46593993,-10.63801237,-147501,4093,0.295193827,128,0.270023378,3744,24527.34375,17280,128
61440,4.431152872,-10.61139949,-147132,3972,0.286467109,128,0.271465811,3764,24546.875,17920,128
57539,4.149806398,-10.62762685,-147357,4038,0.291227137,128,0.250839025,3478,24566.40625,18560,128
64672,4.664249976,-10.40123706,-144218,256,0.018463137,128,0.317335167,4400,24585.9375,19200,128
-197120,-14.21661546,-10.69354602,-148271,16355,1.179549239,128,0.584617923,8106,24605.46875,19840,128
47393,3.418060353,-10.76119611,-149209,32,0.002307892,128,0.196747803,2728,24625,20480,128
57471,4.144902127,-10.60022063,-146977,460,0.033175949,128,0.143954771,1996,24644.53125,21120,128
57864,4.173245927,-10.56307799,-146462,7944,0.572934219,128,0.343659561,4765,24664.0625,21760,128
61969,4.469305214,-10.52045411,-145871,7742,0.55836565,128,0.376330659,5218,24683.59375,22400,128
59123,4.264047058,-10.51749712,-145830,8184,0.59024341,128,0.400852013,5558,24703.125,23040,128
63247,4.561476655,-10.50098127,-145601,8176,0.589666437,128,0.441961341,6128,24722.65625,23680,128
63616,4.588089536,-10.46419924,-145091,7952,0.573511192,128,0.49107617,6809,24742.1875,24320,128
-197112,-14.21603849,-10.40318434,-144245,8191,0.590748261,128,0.553821987,7679,24761.71875,24960,128
65355,4.713509049,-10.38061027,-143932,16382,1.181496523,128,0.623130873,8640,24781.25,25600,128
49678,3.582858274,-10.29795889,-142786,15992,1.153369087,128,0.709099854,9832,24800.78125,26240,128
-196669,-14.18408861,-10.32017235,-143094,15887,1.145796316,128,0.740617006,10269,24820.3125,26880,128
49772,3.589637707,-10.38392787,-143978,16368,1.18048682,128,0.678159675,9403,24839.84375,27520,128
-197624,-14.25296477,-10.47718113,-145271,8121,0.585699747,128,0.539541905,7481,24859.375,28160,128
62467,4.505221785,-10.51598257,-145809,8076,0.582454274,128,0.397967148,5518,24878.90625,28800,128
-204679,-14.76178286,-10.57973809,-146693,8069,0.581949423,128,0.342505615,4749,24898.4375,29440,128
57594,4.153773088,-10.54930276,-146271,7680,0.553894109,128,0.35289113,4893,24917.96875,30080,128
63491,4.579074333,-10.57634837,-146646,7392,0.53312308,128,0.330966154,4589,24937.5,30720,128
57752,4.165168305,-10.56841499,-146536,8184,0.59024341,128,0.322095194,4466,24957.03125,31360,128
57840,4.171515008,-10.57129986,-146576,7680,0.553894109,128,0.337024371,4673,24976.5625,32000,128
57599,4.154133696,-10.54713911,-146241,8186,0.590387653,128,0.332480709,4610,24996.09375,32640,128
59388,4.28315929,-10.56553013,-146496,8176,0.589666437,128,0.336375277,4664,25015.625,33280,128
57347,4.135959045,-10.5537743,-146333,7648,0.551586217,128,0.314306058,4358,25035.15625,33920,128
-203712,-14.69204124,-10.56192405,-146446,8191,0.590748261,128,0.327360073,4539,25054.6875,34560,128
58364,4.209306742,-10.5617798,-146444,7940,0.572645732,128,0.358588738,4972,25074.21875,35200,128
-203777,-14.69672915,-10.53062326,-146012,7711,0.556129879,128,0.435037665,6032,25093.75,35840,128
-199681,-14.40131896,-10.4880715,-145422,187,0.013486745,128,0.493528306,6843,25113.28125,36480,128
61536,4.438076548,-10.51872319,-145847,8160,0.588512491,128,0.438571625,6081,25132.8125,37120,128
-199909,-14.41776269,-10.56170768,-146443,7791,0.56189961,128,0.333057682,4618,25152.34375,37760,128
58887,4.247026354,-10.55939979,-146411,7936,0.572357246,128,0.319643059,4432,25171.875,38400,128
57980,4.181612036,-10.54447061,-146204,3584,0.258483918,128,0.289063488,4008,25191.40625,39040,128
59007,4.255680949,-10.51511711,-145797,4092,0.295121705,128,0.265479716,3681,25210.9375,39680,128
-198152,-14.29104499,-10.21754327,-141671,15,0.001081824,128,0.383975552,5324,25230.46875,40320,128
64512,4.652710516,-10.33921246,-143358,9982,0.719918098,128,0.674192986,9348,25250,40960,128
49088,3.540306513,-10.80937336,-149877,2240,0.161552448,128,0.157153029,2179,25269.53125,41600,128
58876,4.246233016,-10.53466207,-146068,252,0.01817465,128,0.184126518,2553,25289.0625,42240,128
-204792,-14.7699326,-10.51288134,-145766,4095,0.29533807,128,0.287981664,3993,25308.59375,42880,128
61951,4.468007024,-10.46059316,-145041,7952,0.573511192,128,0.348419589,4831,25328.125,43520,128
59535,4.293761169,-10.47703689,-145269,7992,0.576396057,128,0.359526319,4985,25347.65625,44160,128
-197889,-14.272077,-10.41551714,-144416,7617,0.549350446,128,0.440879517,6113,25367.1875,44800,128
-201602,-14.5398646,-10.40758376,-144306,7935,0.572285124,128,0.497062266,6892,25386.71875,45440,128
-196873,-14.19880142,-10.32125417,-143109,8177,0.589738558,128,0.567452975,7868,25406.25,46080,128
-211984,-15.28863135,-10.27112964,-142414,7,5.05E-04,128,0.627674535,8703,25425.78125,46720,128
-200193,-14.43824523,-10.23095789,-141857,15903,1.146950262,128,0.713066544,9887,25445.3125,47360,128
-211050,-15.22126975,-10.23636702,-141932,16247,1.171760103,128,0.762109251,10567,25464.84375,48000,128
61838,4.45985728,-10.27401451,-142454,16352,1.179332874,128,0.715446557,9920,25484.375,48640,128
61470,4.433316521,-10.38832729,-144039,14590,1.052254564,128,0.50167805,6956,25503.90625,49280,128
-196846,-14.19685414,-10.44191366,-144782,8179,0.589882802,128,0.419026663,5810,25523.4375,49920,128
62400,4.500389636,-10.51288134,-145766,6916,0.498793185,128,0.323177019,4481,25542.96875,50560,128
62980,4.54222018,-10.52254564,-145900,7310,0.527209106,128,0.326422492,4526,25562.5,51200,128
63480,4.578280995,-10.49795216,-145559,7360,0.530815188,128,0.327720681,4544,25582.03125,51840,128
62976,4.541931694,-10.52333898,-145911,7696,0.555048055,128,0.343226831,4759,25601.5625,52480,128
-199807,-14.41040628,-10.50227946,-145619,8115,0.585267018,128,0.363925739,5046,25621.09375,53120,128
-204560,-14.75320038,-10.50949162,-145719,8183,0.590171288,128,0.360680266,5001,25640.625,53760,128
-200441,-14.45613139,-10.49694246,-145545,8171,0.589305829,128,0.367748185,5099,25660.15625,54400,128
61455,4.432234696,-10.51331407,-145772,7196,0.518987241,128,0.360536022,4999,25679.6875,55040,128
59391,4.283375655,-10.49456245,-145512,7392,0.53312308,128,0.383759187,5321,25699.21875,55680,128
-198641,-14.32631246,-10.48136419,-145329,8191,0.590748261,128,0.424291542,5883,25718.75,56320,128
-196859,-14.19779172,-10.44112032,-144771,7905,0.570121475,128,0.490066468,6795,25738.28125,56960,128
61439,4.43108075,-10.41465168,-144404,7680,0.553894109,128,0.481483994,6676,25757.8125,57600,128
-203207,-14.65561982,-10.50646252,-145677,7199,0.519203606,128,0.324907938,4505,25777.34375,58240,128
61696,4.449616009,-10.4997552,-145584,7424,0.535430972,128,0.317623653,4404,25796.875,58880,128
-198657,-14.32746641,-10.52377171,-145917,7693,0.55483169,128,0.301324165,4178,25816.40625,59520,128
-202757,-14.62316509,-10.53011841,-146005,4019,0.289856826,128,0.28870288,4003,25835.9375,60160,128
57727,4.163365264,-10.39049094,-144069,64,0.004615784,128,0.325268546,4510,25855.46875,60800,128
-203257,-14.6592259,-9.965550299,-138177,831,0.059933074,128,0.801559782,11114,25875,61440,128
-216976,-15.64866253,-10.88502894,-150926,243,0.017525556,128,0.400563526,5554,25894.53125,62080,128
58892,4.247386962,-10.55572159,-146360,1920,0.138473527,128,0.129963175,1802,25914.0625,62720,128
-201216,-14.51202566,-10.44999128,-144894,8177,0.589738558,128,0.347554129,4819,25933.59375,63360,128
-198113,-14.28823224,-10.44386094,-144809,7393,0.533195202,128,0.397606539,5513,25953.125,64000,128
64494,4.651412326,-10.41710382,-144438,8172,0.58937795,128,0.418593933,5804,25972.65625,64640,128
-201217,-14.51209778,-10.38219695,-143954,8067,0.581805179,128,0.456457789,6329,25992.1875,65280,128
65520,4.725409117,-10.36005561,-143647,8112,0.585050653,128,0.502038658,6961,26011.71875,384,128
-198401,-14.30900327,-10.3036565,-142865,8191,0.590748261,128,0.54329223,7533,26031.25,1024,128
-197248,-14.22584703,-10.23752096,-141948,16319,1.17695286,128,0.623058751,8639,26050.78125,1664,128
-212801,-15.34755473,-10.17823698,-141126,16287,1.174644968,128,0.730952708,10135,26070.3125,2304,128
-197618,-14.25253204,-10.17246725,-141046,16383,1.181568644,128,0.795573687,11031,26089.84375,2944,128
63501,4.579795549,-10.19071402,-141299,16376,1.181063793,128,0.792905187,10994,26109.375,3584,128
65121,4.696632588,-10.3030074,-142856,16380,1.181352279,128,0.629044846,8722,26128.90625,4224,128
-196991,-14.20731177,-10.36654656,-143737,6943,0.500740469,128,0.500451982,6939,26148.4375,4864,128
61184,4.412689735,-10.45987194,-145031,7964,0.574376652,128,0.402294445,5578,26167.96875,5504,128
59648,4.301910913,-10.43160026,-144639,7616,0.549278325,128,0.401645351,5569,26187.5,6144,128
-198416,-14.3100851,-10.45698708,-144991,7295,0.526127282,128,0.38476889,5335,26207.03125,6784,128
-198145,-14.29054013,-10.45035189,-144899,7609,0.548773473,128,0.391836809,5433,26226.5625,7424,128
59936,4.322681942,-10.43333118,-144663,8184,0.59024341,128,0.403881121,5600,26246.09375,8064,128
-202256,-14.58703215,-10.42099839,-144492,8057,0.581083963,128,0.395298647,5481,26265.625,8704,128
63504,4.580011914,-10.41897898,-144464,8076,0.582454274,128,0.400130796,5548,26285.15625,9344,128
59521,4.292751466,-10.44335609,-144802,8160,0.588512491,128,0.379071281,5256,26304.6875,9984,128
-200824,-14.48375398,-10.44948643,-144887,8131,0.586420964,128,0.42508488,5894,26324.21875,10624,128
64995,4.687545262,-10.46383863,-145086,8190,0.59067614,128,0.431864313,5988,26343.75,11264,128
-196673,-14.1843771,-10.34411673,-143426,57,0.004110933,128,0.556995339,7723,26363.28125,11904,128
-196669,-14.18408861,-10.4170317,-144437,7543,0.544013446,128,0.467636641,6484,26382.8125,12544,128
65024,4.68963679,-10.4484046,-144872,7704,0.555625028,128,0.370993658,5144,26402.34375,13184,128
59364,4.281428371,-10.4890812,-145436,8184,0.59024341,128,0.329523722,4569,26421.875,13824,128
-203777,-14.69672915,-10.48727816,-145411,7617,0.549350446,128,0.323393383,4484,26441.40625,14464,128
61407,4.428772858,-10.47559446,-145249,8184,0.59024341,128,0.322600046,4473,26460.9375,15104,128
-200712,-14.47567635,-10.10777415,-140149,499,0.035988693,128,0.48797494,6766,26480.46875,15744,128
-196620,-14.18055465,-10.32291297,-143132,12519,0.902890671,128,0.66286989,9191,26500,16384,128
-214788,-15.4908604,-10.76660523,-149284,3599,0.259565742,128,0.222567346,3086,26519.53125,17024,128
57345,4.135814802,-10.47746962,-145275,588,0.042407518,128,0.272908243,3784,26539.0625,17664,128
63512,4.580588887,-10.47415203,-145229,8188,0.590531896,128,0.359165711,4980,26558.59375,18304,128
-201697,-14.54671616,-10.41155045,-144361,8161,0.588584612,128,0.409434487,5677,26578.125,18944,128
-197120,-14.21661546,-10.4083771,-144317,7743,0.558437772,128,0.410444189,5691,26597.65625,19584,128
-196721,-14.18783893,-10.35897378,-143632,8123,0.585843991,128,0.459703262,6374,26617.1875,20224,128
-200712,-14.47567635,-10.34108762,-143384,8191,0.590748261,128,0.502471388,6967,26636.71875,20864,128
64714,4.667279085,-10.31094078,-142966,8176,0.589666437,128,0.552956528,7667,26656.25,21504,128
-197156,-14.21921184,-10.23110214,-141859,143,0.010313393,128,0.658398349,9129,26675.78125,22144,128
51100,3.68541523,-10.19936862,-141419,16368,1.18048682,128,0.736506073,10212,26695.3125,22784,128
-212977,-15.36024813,-10.19071402,-141299,15887,1.145796316,128,0.790164565,10956,26714.84375,23424,128
61455,4.432234696,-10.27134601,-142417,16296,1.175294063,128,0.732250897,10153,26734.375,24064,128
60528,4.365377947,-10.38638,-144012,8064,0.581588814,128,0.526343647,7298,26753.90625,24704,128
-200935,-14.49175948,-10.44890946,-144879,8177,0.589738558,128,0.438571625,6081,26773.4375,25344,128
61247,4.417233398,-10.46477621,-145099,7184,0.518121781,128,0.372724578,5168,26792.96875,25984,128
-198657,-14.32746641,-10.50855404,-145706,8191,0.590748261,128,0.355343265,4927,26812.5,26624,128
-196609,-14.17976131,-10.49420184,-145507,8131,0.586420964,128,0.366810604,5086,26832.03125,27264,128
-196672,-14.18430497,-10.49052364,-145456,8191,0.590748261,128,0.358805103,4975,26851.5625,27904,128
-198655,-14.32732216,-10.4864127,-145399,7171,0.5171842,128,0.37063305,5139,26871.09375,28544,128
65279,4.708027805,-10.47429627,-145231,7328,0.528507296,128,0.3808022,5280,26890.625,29184,128
63424,4.574242183,-10.49953884,-145581,7920,0.5712033,128,0.349934143,4852,26910.15625,29824,128
-197112,-14.21603849,-10.47444051,-145233,7875,0.567957827,128,0.41888242,5808,26929.6875,30464,128
58367,4.209523107,-10.43643241,-144706,8128,0.586204599,128,0.504058064,6989,26949.21875,31104,128
-196626,-14.18098738,-10.38681273,-144018,47,0.003389717,128,0.533988539,7404,26968.75,31744,128
65424,4.718485441,-10.48576361,-145390,8190,0.59067614,128,0.421478799,5844,26988.28125,32384,128
60476,4.361627622,-10.48388845,-145364,8160,0.588512491,128,0.367459699,5095,27007.8125,33024,128
-200512,-14.46125203,-10.5330754,-146046,7171,0.5171842,128,0.314883031,4366,27027.34375,33664,128
-203233,-14.65749498,-10.51295346,-145767,8095,0.583824585,128,0.334572236,4639,27046.875,34304,128
65448,4.72021636,-10.52103108,-145879,4088,0.294833218,128,0.290217434,4024,27066.40625,34944,128
65295,4.709181751,-10.25872472,-142242,1792,0.129241959,128,0.406189013,5632,27085.9375,35584,128
-196879,-14.19923415,-10.06579936,-139567,15385,1.109591259,128,0.816488959,11321,27105.46875,36224,128
-221434,-15.97018075,-10.68453082,-148146,1935,0.139555352,128,0.106018794,1470,27125,36864,128
-202752,-14.62280448,-10.48662907,-145402,31,0.00223577,128,0.246583849,3419,27144.53125,37504,128
-204738,-14.76603803,-10.45518404,-144966,8191,0.590748261,128,0.403448391,5594,27164.0625,38144,128
-197603,-14.25145021,-10.40967529,-144335,8191,0.590748261,128,0.437417679,6065,27183.59375,38784,128
-212607,-15.33356313,-10.38255756,-143959,8071,0.582093666,128,0.473406371,6564,27203.125,39424,128
-196663,-14.18365588,-10.38024966,-143927,8079,0.582670639,128,0.492230116,6825,27222.65625,40064,128
61948,4.467790659,-10.3136814,-143004,7920,0.5712033,128,0.564279624,7824,27242.1875,40704,128
-211969,-15.28754953,-10.2756733,-142477,16377,1.181135914,128,0.608778668,8441,27261.71875,41344,128
-211972,-15.28776589,-10.19706073,-141387,127,0.009159447,128,0.69207915,9596,27281.25,41984,128
65507,4.724471536,-10.15681686,-140829,64,0.004615784,128,0.798530674,11072,27300.78125,42624,128
49203,3.548600501,-10.12796821,-140429,2,1.44E-04,128,0.858103139,11898,27320.3125,43264,128
65504,4.724255171,-10.23954037,-141976,16368,1.18048682,128,0.728139964,10096,27339.84375,43904,128
-196833,-14.19591656,-10.31692687,-143049,15503,1.118101611,128,0.603441668,8367,27359.375,44544,128
60411,4.356939716,-10.41818564,-144453,7292,0.525910917,128,0.451769883,6264,27378.90625,45184,128
64061,4.620183661,-10.43217724,-144647,7968,0.574665138,128,0.431647948,5985,27398.4375,45824,128
57855,4.172596833,-10.45136159,-144913,8072,0.582165787,128,0.39984231,5544,27417.96875,46464,128
65484,4.722812739,-10.45302039,-144936,8184,0.59024341,128,0.401573229,5568,27437.5,47104,128
65484,4.722812739,-10.41046863,-144346,8184,0.59024341,128,0.416430285,5774,27457.03125,47744,128
45536,3.284130488,-10.41631048,-144427,4092,0.295121705,128,0.409434487,5677,27496.09375,49024,0
-200707,-14.47531575,-10.41025226,-144343,7939,0.572573611,128,0.458405072,6356,27515.625,49664,128
-196863,-14.19808021,-10.39077942,-144073,8131,0.586420964,128,0.490571319,6802,27535.15625,50304,128
-197617,-14.25245991,-10.36157016,-143668,7999,0.576900909,128,0.56189961,7791,27554.6875,50944,128
-196637,-14.18178072,-10.34123186,-143386,7927,0.571708151,128,0.522376957,7243,27574.21875,51584,128
-197631,-14.25346962,-10.44696217,-144852,6399,0.461506303,128,0.407487203,5650,27593.75,52224,128
61409,4.428917101,-10.43145602,-144637,8056,0.581011841,128,0.372436091,5164,27613.28125,52864,128
61439,4.43108075,-10.45359736,-144944,8064,0.581588814,128,0.363565131,5041,27632.8125,53504,128
-201613,-14.54065794,-10.4297251,-144613,7997,0.576756665,128,0.357074184,4951,27652.34375,54144,128
-197680,-14.25700358,-10.37931208,-143914,5,3.61E-04,128,0.356497211,4943,27671.875,54784,128
-197699,-14.25837389,-10.08505584,-139834,15119,1.090406905,128,0.775668117,10755,27691.40625,55424,128
-213057,-15.36601786,-10.74525723,-148988,5061,0.365007563,128,0.293102299,4064,27710.9375,56064,128
57503,4.147210019,-10.50624615,-145674,0,0,128,0.139194744,1930,27730.46875,56704,128
63746,4.597465348,-10.36791687,-143756,144,0.010385515,128,0.413833906,5738,27750,57344,128
65532,4.726274577,-10.37130658,-143803,7680,0.553894109,128,0.437850408,6071,27769.53125,57984,128
65486,4.722956982,-10.31894628,-143077,8184,0.59024341,128,0.471531209,6538,27789.0625,58624,128
-200592,-14.46702176,-10.34512643,-143440,8177,0.589738558,128,0.490931927,6807,27808.59375,59264,128
-200675,-14.47300785,-10.2543253,-142181,31,0.00223577,128,0.560312934,7769,27828.125,59904,128
-197601,-14.25130597,-10.23485246,-141911,7945,0.573006341,128,0.606326533,8407,27847.65625,60544,128
65518,4.725264874,-10.13972403,-140592,32,0.002307892,128,0.703041637,9748,27867.1875,61184,128
65028,4.689925276,-10.10402383,-140097,32,0.002307892,128,0.778625104,10796,27886.71875,61824,128
49272,3.553576893,-10.09681166,-139997,0,0,128,0.828316906,11485,27906.25,62464,128
-211936,-15.28516952,-10.15811505,-140847,15617,1.126323477,128,0.78417847,10873,27925.78125,63104,128
65535,4.726490942,-10.25944594,-142252,16378,1.181208036,128,0.63495882,8804,27945.3125,63744,128
-197504,-14.24431017,-10.37065749,-143794,7967,0.574593016,128,0.46092933,6391,27964.84375,64384,128
65310,4.710263575,-10.37325387,-143830,8188,0.590531896,128,0.390322255,5412,27984.375,65024,128
-197117,-14.2163991,-10.39214973,-144092,7679,0.553821987,128,0.377051875,5228,28003.90625,128,128
65036,4.690502249,-10.40022736,-144204,7656,0.55216319,128,0.397895026,5517,28023.4375,768,128
61415,4.429349831,-10.37808602,-143897,8126,0.586060355,128,0.382821606,5308,28042.96875,1408,128
65504,4.724255171,-10.36416654,-143704,8186,0.590387653,128,0.392918634,5448,28062.5,2048,128
65504,4.724255171,-10.37527327,-143858,7672,0.553317136,128,0.3808022,5280,28082.03125,2688,128
-196866,-14.19829657,-10.37476842,-143851,8191,0.590748261,128,0.413040568,5727,28101.5625,3328,128
65159,4.699373209,-10.34700159,-143466,8188,0.590531896,128,0.455375964,6314,28121.09375,3968,128
61916,4.465482767,-10.30394498,-142869,8174,0.589522194,128,0.52295393,7251,28140.625,4608,128
-199804,-14.41018992,-10.29824737,-142790,7931,0.571996638,128,0.481483994,6676,28160.15625,5248,128
65039,4.690718614,-10.36373381,-143698,8128,0.586204599,128,0.365512415,5068,28179.6875,5888,128
-197112,-14.21603849,-10.39142852,-144082,8079,0.582670639,128,0.33341829,4623,28199.21875,6528,128
-196618,-14.18041041,-10.37923996,-143913,7743,0.558437772,128,0.328730384,4558,28218.75,7168,128
65406,4.717187252,-10.38075452,-143934,8064,0.581588814,128,0.31170968,4322,28238.28125,7808,128
65520,4.725409117,-10.29997829,-142814,28,0.002019406,128,0.331110398,4591,28257.8125,8448,128
57848,4.172091981,-10.08253158,-139799,15874,1.144858735,128,0.764921995,10606,28277.34375,9088,128
57374,4.137906329,-10.64623423,-147615,5108,0.36839728,128,0.273052487,3786,28296.875,9728,128
-196728,-14.18834379,-10.37476842,-143851,513,0.036998396,128,0.227183131,3150,28316.40625,10368,128
-200706,-14.47524363,-10.36019985,-143649,8063,0.581516693,128,0.362122698,5021,28335.9375,11008,128
-200447,-14.45656412,-10.3143305,-143013,7679,0.553821987,128,0.396885323,5503,28355.46875,11648,128
-196641,-14.1820692,-10.32161478,-143114,7687,0.55439896,128,0.408496905,5664,28375,12288,128
63992,4.615207269,-10.27076903,-142409,8188,0.590531896,128,0.459486897,6371,28394.53125,12928,128
64414,4.645642596,-10.2836788,-142588,8032,0.579280922,128,0.477300939,6618,28414.0625,13568,128
62976,4.541931694,-10.21408143,-141623,192,0.013847353,128,0.557355947,7728,28433.59375,14208,128
-197121,-14.21668759,-10.17491939,-141080,16131,1.163393994,128,0.665033539,9221,28453.125,14848,128
-198402,-14.30907539,-10.12075604,-140329,16383,1.181568644,128,0.740761249,10271,28472.65625,15488,128
-212892,-15.35411779,-10.09385468,-139956,16159,1.165413399,128,0.781582091,10837,28492.1875,16128,128
65024,4.68963679,-10.14275314,-140634,16380,1.181352279,128,0.739390938,10252,28511.71875,16768,128
64574,4.657182057,-10.26160959,-142282,8090,0.583463977,128,0.567308732,7866,28531.25,17408,128
-200677,-14.4731521,-10.37592237,-143867,7183,0.518049659,128,0.386860417,5364,28550.78125,18048,128
-197569,-14.24899808,-10.38919275,-144051,8183,0.590171288,128,0.359454198,4984,28570.3125,18688,128
64512,4.652710516,-10.40080433,-144212,7930,0.571924516,128,0.318849721,4421,28589.84375,19328,128
63488,4.578857968,-10.40945892,-144332,7922,0.571347543,128,0.298799908,4143,28609.375,19968,128
-197646,-14.25455144,-10.39142852,-144082,7985,0.575891206,128,0.331182519,4592,28628.90625,20608,128
-200717,-14.47603696,-10.3837115,-143975,8067,0.581805179,128,0.30997876,4298,28648.4375,21248,128
65022,4.689492546,-10.381043,-143938,7696,0.555048055,128,0.333634655,4626,28667.96875,21888,128
-200945,-14.49248069,-10.36921506,-143774,255,0.018391015,128,0.333490411,4624,28687.5,22528,128
64760,4.67059668,-10.37859087,-143904,7716,0.556490488,128,0.353828711,4906,28707.03125,23168,128
65504,4.724255171,-10.38327877,-143969,7696,0.555048055,128,0.448235923,6215,28726.5625,23808,128
-196612,-14.17997768,-10.32507662,-143162,51,0.003678203,128,0.429484299,5955,28746.09375,24448,128
61407,4.428772858,-10.40102069,-144215,7294,0.52605516,128,0.305651463,4238,28765.625,25088,128
61215,4.414925506,-10.40924256,-144329,4064,0.293102299,128,0.261008175,3619,28785.15625,25728,128
-201204,-14.5111602,-10.44256275,-144791,3843,0.277163419,128,0.265623959,3683,28804.6875,26368,128
-200705,-14.4751715,-10.4093868,-144331,3943,0.284375582,128,0.234034685,3245,28824.21875,27008,128
59393,4.283519898,-10.45929497,-145023,48,0.003461838,128,0.202301169,2805,28843.75,27648,128
61442,4.431297115,-10.0462544,-139296,3584,0.258483918,128,0.418377569,5801,28863.28125,28288,128
-199681,-14.40131896,-10.40844922,-144318,14313,1.032276873,128,0.559952326,7764,28882.8125,28928,128
-213184,-15.37517731,-10.52521414,-145937,191,0.013775231,128,-0.022357705,-310,28902.34375,29568,128
-202692,-14.61847718,-10.42244082,-144512,447,0.032238368,128,0.15809061,2192,28921.875,30208,128
-200717,-14.47603696,-10.3623635,-143679,57,0.004110933,128,0.27362946,3794,28941.40625,30848,128
64768,4.671173653,-10.36596958,-143729,4070,0.293535029,128,0.305002368,4229,28960.9375,31488,128
61376,4.426537088,-10.37080173,-143796,7936,0.572357246,128,0.316830315,4393,28980.46875,32128,128
-200697,-14.47459453,-10.33474092,-143296,8191,0.590748261,128,0.343875926,4768,29000,32768,128
-200224,-14.440481,-10.3073347,-142916,8191,0.590748261,128,0.388447093,5386,29019.53125,33408,128
65279,4.708027805,-10.20535472,-141502,24,0.001730919,128,0.498071968,6906,29039.0625,34048,128
-199105,-14.3597769,-10.20484986,-141495,8183,0.590171288,128,0.52648789,7300,29058.59375,34688,128
49407,3.563313313,-10.12515546,-140390,6,4.33E-04,128,0.639213996,8863,29078.125,35328,128
-196997,-14.2077445,-10.18580975,-141231,15423,1.112331881,128,0.676789364,9384,29097.65625,35968,128
-196624,-14.18084314,-10.22828939,-141820,8127,0.586132477,128,0.585555504,8119,29117.1875,36608,128
-200701,-14.47488302,-10.36546473,-143722,6531,0.471026358,128,0.378638551,5250,29136.71875,37248,128
63740,4.597032618,-10.43477362,-144683,4092,0.295121705,128,0.268292459,3720,29156.25,37888,128
-198656,-14.32739429,-10.45417433,-144952,3131,0.22581282,128,0.207926656,2883,29175.78125,38528,128
-197009,-14.20860996,-10.46326166,-145078,3983,0.287260447,128,0.212470318,2946,29195.3125,39168,128
61179,4.412329127,-10.46499258,-145102,3086,0.222567346,128,0.196675682,2727,29214.84375,39808,128
-198641,-14.32631246,-10.42979722,-144614,3983,0.287260447,128,0.203455115,2821,29234.375,40448,128
-200899,-14.4891631,-10.45345312,-144942,4095,0.29533807,128,0.207133318,2872,29253.90625,41088,128
-200705,-14.4751715,-10.43289845,-144657,4087,0.294761097,128,0.202733898,2811,29273.4375,41728,128
61247,4.417233398,-10.42813843,-144591,3552,0.256176025,128,0.180159829,2498,29292.96875,42368,128
60928,4.394226598,-10.44689005,-144851,3598,0.25949362,128,0.232159523,3219,29312.5,43008,128
61426,4.430143169,-10.41421895,-144398,7680,0.553894109,128,0.29887203,4144,29332.03125,43648,128
-200768,-14.47971517,-10.39359217,-144112,7799,0.562476583,128,0.347698372,4821,29351.5625,44288,128
64513,4.652782637,-10.44768339,-144862,7168,0.516967835,128,0.241463213,3348,29371.09375,44928,128
-202596,-14.6115535,-10.46044892,-145039,3457,0.249324471,128,0.184703491,2561,29390.625,45568,128
-198656,-14.32739429,-10.51749712,-145830,3809,0.274711284,128,0.164220949,2277,29410.15625,46208,128
-201649,-14.54325432,-10.47249323,-145206,4067,0.293318664,128,0.196315074,2722,29429.6875,46848,128
57735,4.163942237,-10.48626846,-145397,3894,0.280841622,128,0.160831232,2230,29449.21875,47488,128
-197127,-14.21712032,-10.23643914,-141933,3843,0.277163419,128,0.277163419,3843,29468.75,48128,128
65535,4.726490942,-10.65539368,-147742,8640,0.623130873,128,0.332408587,4609,29488.28125,48768,128
47105,3.397289323,-10.60923584,-147102,1016,0.073275575,128,-0.043777829,-607,29507.8125,49408,128
61425,4.430071048,-10.4773975,-145274,4,2.88E-04,128,0.188742303,2617,29527.34375,50048,128
60627,4.372517988,-10.43217724,-144647,3976,0.286755596,128,0.237208037,3289,29546.875,50688,128
-196767,-14.19115653,-10.4243881,-144539,3975,0.286683474,128,0.259349377,3596,29566.40625,51328,128
60415,4.357228202,-10.39640491,-144151,8174,0.589522194,128,0.311565436,4320,29585.9375,51968,128
-200960,-14.49356252,-10.36849384,-143764,8071,0.582093666,128,0.344236534,4773,29605.46875,52608,128
-196992,-14.2073839,-10.34195308,-143396,8097,0.583968828,128,0.381667659,5292,29625,53248,128
62208,4.486542283,-10.28382305,-142590,8166,0.588945221,128,0.464896019,6446,29644.53125,53888,128
61488,4.43461471,-10.20737412,-141530,510,0.036782031,128,0.597455573,8284,29664.0625,54528,128
-212761,-15.34466986,-10.16150476,-140894,255,0.018391015,128,0.673183283,9334,29683.59375,55168,128
-198577,-14.32169668,-10.20787897,-141537,16263,1.172914049,128,0.677077851,9388,29703.125,55808,128
64575,4.657254178,-10.27235571,-142431,15928,1.148753303,128,0.535575215,7426,29722.65625,56448,128
-200718,-14.47610908,-10.35854105,-143626,7683,0.554110474,128,0.418233325,5799,29742.1875,57088,128
60478,4.361771865,-10.41486805,-144407,4032,0.290794407,128,0.266056689,3689,29761.71875,57728,128
-196665,-14.18380012,-10.43592756,-144699,3967,0.286106501,128,0.210234548,2915,29781.25,58368,128
-201153,-14.50748199,-10.45359736,-144944,4001,0.288558637,128,0.210955764,2925,29800.78125,59008,128
-198593,-14.32285062,-10.43643241,-144706,3631,0.261873634,128,0.197180533,2734,29820.3125,59648,128
60447,4.359536095,-10.4403991,-144761,3588,0.258772404,128,0.208864237,2896,29839.84375,60288,128
59872,4.318066158,-10.42748933,-144582,3912,0.282139812,128,0.221124914,3066,29859.375,60928,128
-202745,-14.62229963,-10.4490537,-144881,4025,0.290289556,128,0.207205439,2873,29878.90625,61568,128
57471,4.144902127,-10.4307348,-144627,3584,0.258483918,128,0.210667278,2921,29898.4375,62208,128
-197681,-14.2570757,-10.44458216,-144819,3641,0.26259485,128,0.225668576,3129,29917.96875,62848,128
60657,4.374681637,-10.41313713,-144383,4072,0.293679272,128,0.2957708,4101,29937.5,63488,128
64400,4.644632893,-10.42128687,-144496,8116,0.585339139,128,0.363781496,5044,29957.03125,64128,128
60928,4.394226598,-10.40217464,-144231,7930,0.571924516,128,0.298222935,4135,29976.5625,64768,128
57731,4.163653751,-10.43686514,-144712,3318,0.239299564,128,0.228264955,3165,29996.09375,65408,128
-201468,-14.53020031,-10.46030467,-145037,3575,0.257834823,128,0.166168233,2304,30015.625,512,128
61663,4.447235995,-10.47559446,-145249,3084,0.222423103,128,0.1620573,2247,30035.15625,1152,128
59709,4.306310333,-10.46419924,-145091,3582,0.258339674,128,0.170062801,2358,30054.6875,1792,128
-202240,-14.5858782,-10.35342042,-143555,15,0.001081824,128,0.179727099,2492,30074.21875,2432,128
61469,4.433244399,-10.02339185,-138979,16352,1.179332874,128,0.7049168,9774,30093.75,3072,128
48904,3.527036134,-10.68727144,-148184,1004,0.072410115,128,0.080199251,1112,30113.28125,3712,128
-204799,-14.77043745,-10.50083703,-145599,32639,2.353977842,128,-0.010962488,-152,30132.8125,4352,128
-202177,-14.58133454,-10.42510932,-144549,3975,0.286683474,128,0.224875239,3118,30152.34375,4992,128
-200964,-14.49385101,-10.43477362,-144683,3079,0.222062495,128,0.243338375,3374,30171.875,5632,128
65392,4.716177549,-10.40830498,-144316,3870,0.279110703,128,0.281274352,3900,30191.40625,6272,128
-200718,-14.47610908,-10.37945633,-143916,7687,0.55439896,128,0.302910841,4200,30210.9375,6912,128
-200705,-14.4751715,-10.34238581,-143402,7687,0.55439896,128,0.342505615,4749,30230.46875,7552,128
65027,4.689853154,-10.31707112,-143051,7680,0.553894109,128,0.417944839,5795,30250,8192,128
64536,4.654441435,-10.26377323,-142312,240,0.017309191,128,0.496196806,6880,30269.53125,8832,128
-196736,-14.18892076,-10.13900282,-140582,369,0.026612881,128,0.636833982,8830,30289.0625,9472,128
63486,4.578713724,-10.21069172,-141576,15878,1.145147222,128,0.644911605,8942,30308.59375,10112,128
-199425,-14.38285582,-10.21436992,-141627,15873,1.144786614,128,0.594065856,8237,30328.125,10752,128
-197117,-14.2163991,-10.34310703,-143412,7681,0.553966231,128,0.427609137,5929,30347.65625,11392,128
64475,4.650042015,-10.41652684,-144430,6384,0.460424478,128,0.310699977,4308,30367.1875,12032,128
-201185,-14.50978989,-10.46895927,-145157,3077,0.221918252,128,0.219826725,3048,30386.71875,12672,128
-203007,-14.64119549,-10.50530857,-145661,4035,0.291010772,128,0.217158224,3011,30406.25,13312,128
63743,4.597248983,-10.47343081,-145219,3848,0.277524028,128,0.209369088,2903,30425.78125,13952,128
59326,4.278687749,-10.49182182,-145474,3708,0.267427,128,0.190689586,2644,30445.3125,14592,128
-204368,-14.73935303,-10.49009091,-145450,4095,0.29533807,128,0.203887845,2827,30464.84375,15232,128
-198357,-14.30582992,-10.45749193,-144998,3645,0.262883337,128,0.215571548,2989,30484.375,15872,128
-201701,-14.54700465,-10.4667235,-145126,3087,0.222639468,128,0.222567346,3086,30503.90625,16512,128
63535,4.582247684,-10.45662647,-144986,3072,0.221557644,128,0.205835129,2854,30523.4375,17152,128
-202721,-14.62056871,-10.45987194,-145031,3843,0.277163419,128,0.203310872,2819,30542.96875,17792,128
-197122,-14.21675971,-10.45648223,-144984,3983,0.287260447,128,0.207061196,2871,30562.5,18432,128
-201992,-14.56799204,-10.43686514,-144712,3823,0.275720987,128,0.268653067,3725,30582.03125,19072,128
-198652,-14.3271058,-10.44112032,-144771,7183,0.518049659,128,0.351304454,4871,30601.5625,19712,128
-196641,-14.1820692,-10.36092107,-143659,8191,0.590748261,128,0.369190618,5119,30621.09375,20352,128
-196872,-14.1987293,-10.36647443,-143736,7683,0.554110474,128,0.333129803,4619,30640.625,20992,128
-201212,-14.51173717,-10.44689005,-144851,3215,0.231871037,128,0.205330277,2847,30660.15625,21632,128
57849,4.172164103,-10.45049613,-144901,3586,0.258628161,128,0.187660478,2602,30679.6875,22272,128
-204769,-14.7682738,-10.45309251,-144937,3615,0.260719688,128,0.197180533,2734,30699.21875,22912,128
-202256,-14.58703215,-10.45121735,-144911,3223,0.23244801,128,0.176986477,2454,30718.75,23552,128
-197652,-14.25498417,-10.03334463,-139117,2047,0.147632974,128,0.46092933,6391,30738.28125,24192,128
60988,4.398553896,-10.44602459,-144839,2246,0.161985178,128,0.475858507,6598,30757.8125,24832,128
-200453,-14.45699685,-10.5357439,-146083,129,0.00930369,128,-0.06108702,-847,30777.34375,25472,128
-202400,-14.59741766,-10.41991656,-144477,383,0.027622584,128,0.163716097,2270,30796.875,26112,128
-197760,-14.26277331,-10.41811352,-144452,3855,0.278028879,128,0.263820918,3658,30816.40625,26752,128
-203536,-14.67934783,-10.38068239,-143933,3943,0.284375582,128,0.293679272,4072,30835.9375,27392,128
65280,4.708099926,-10.37051324,-143792,7750,0.558942623,128,0.300458705,4166,30855.46875,28032,128
65279,4.708027805,-10.36964779,-143780,8056,0.581011841,128,0.352386278,4886,30875,28672,128
65520,4.725409117,-10.28973702,-142672,8160,0.588512491,128,0.422344258,5856,30894.53125,29312,128
64480,4.650402623,-10.23867491,-141964,94,0.006779433,128,0.516823592,7166,30914.0625,29952,128
-198657,-14.32746641,-10.2153075,-141640,7919,0.571131178,128,0.571059057,7918,30933.59375,30592,128
-196625,-14.18091526,-10.17470302,-141077,16361,1.179981968,128,0.651618916,9035,30953.125,31232,128
-196735,-14.18884864,-10.18119397,-141167,16381,1.181424401,128,0.729221789,10111,30972.65625,31872,128
-198683,-14.32934157,-10.23687187,-141939,16115,1.162240048,128,0.640872793,8886,30992.1875,32512,128
63506,4.580156157,-10.35774772,-143615,7104,0.512352051,128,0.39674108,5501,31011.71875,33152,128
60675,4.375979826,-10.39460187,-144126,6144,0.443115287,128,0.300819314,4171,31031.25,33792,128
63716,4.595301699,-10.44148093,-144776,3840,0.276947054,128,0.262306364,3637,31050.78125,34432,128
58360,4.209018255,-10.44494277,-144824,3480,0.250983268,128,0.243626862,3378,31070.3125,35072,128
59902,4.320229807,-10.37657146,-143876,62,0.004471541,128,0.283582244,3932,31089.84375,35712,128
-198589,-14.32256214,-10.44443791,-144817,3903,0.281490717,128,0.248026281,3439,31109.375,36352,128
61055,4.403386045,-10.44407731,-144812,4046,0.29180411,128,0.250262052,3470,31128.90625,36992,128
-201504,-14.53279668,-10.42979722,-144614,3105,0.223937657,128,0.25018993,3469,31148.4375,37632,128
-202929,-14.63557001,-10.3890485,-144049,4095,0.29533807,128,0.279182825,3871,31167.96875,38272,128
60408,4.356723351,-10.44963067,-144889,3198,0.230644969,128,0.247809916,3436,31187.5,38912,128
-201777,-14.55248589,-10.41674321,-144433,4071,0.293607151,128,0.25415662,3524,31207.03125,39552,128
65280,4.708099926,-10.42777782,-144586,3278,0.236414699,128,0.269951257,3743,31226.5625,40192,128
-202560,-14.60895712,-10.43513422,-144688,7295,0.526127282,128,0.300747192,4170,31246.09375,40832,128
-197658,-14.2554169,-10.42893176,-144602,8191,0.590748261,128,0.364574833,5055,31265.625,41472,128
58397,4.211686756,-10.38616364,-144009,8184,0.59024341,128,0.3781337,5243,31285.15625,42112,128
-198637,-14.32602398,-10.43722575,-144717,3869,0.279038582,128,0.283077393,3925,31304.6875,42752,128
59910,4.32080678,-10.45020764,-144897,3136,0.226173428,128,0.231798915,3214,31324.21875,43392,128
-202752,-14.62280448,-10.43917304,-144744,4095,0.29533807,128,0.220475819,3057,31343.75,44032,128
-202691,-14.61840506,-10.42453234,-144541,3585,0.258556039,128,0.217013981,3009,31363.28125,44672,128
59207,4.270105275,-10.38962548,-144057,224,0.016155245,128,0.182395599,2529,31382.8125,45312,128
-198626,-14.32523064,-10.10416807,-140099,1671,0.120515242,128,0.792760944,10992,31402.34375,45952,128
-215025,-15.50795323,-10.73898265,-148901,6175,0.445351058,128,0.299881732,4158,31421.875,46592,128
63471,4.5776319,-10.49333638,-145495,32250,2.325922528,128,-0.051783329,-718,31441.40625,47232,128
-201718,-14.54823071,-10.40794437,-144311,3975,0.286683474,128,0.258123309,3579,31460.9375,47872,128
61383,4.427041939,-10.43123966,-144634,3120,0.225019482,128,0.243482619,3376,31480.46875,48512,128
65024,4.68963679,-10.34620826,-143455,8176,0.589666437,128,0.293967759,4076,31500,49152,128
61383,4.427041939,-10.36142592,-143666,8108,0.584762166,128,0.307815112,4268,31519.53125,49792,128
-200256,-14.44278889,-10.30502681,-142884,8191,0.590748261,128,0.389601039,5402,31539.0625,50432,128
63632,4.589243482,-10.31021956,-142956,8160,0.588512491,128,0.416069676,5769,31558.59375,51072,128
-197089,-14.21437969,-10.25403681,-142177,8191,0.590748261,128,0.498288333,6909,31578.125,51712,128
-198605,-14.32371608,-10.18768492,-141257,8191,0.590748261,128,0.584978531,8111,31597.65625,52352,128
49280,3.554153866,-10.18242004,-141184,16376,1.181063793,128,0.642892199,8914,31617.1875,52992,128
64519,4.653215367,-10.21833661,-141682,16382,1.181496523,128,0.640007334,8874,31636.71875,53632,128
-197313,-14.23053494,-10.3163499,-143041,6543,0.471891817,128,0.500740469,6943,31656.25,54272,128
-198655,-14.32732216,-10.37693207,-143881,7171,0.5171842,128,0.331110398,4591,31675.78125,54912,128
57977,4.181395672,-10.4350621,-144687,3592,0.259060891,128,0.261368783,3624,31695.3125,55552,128
-200737,-14.4774794,-10.45042401,-144900,3169,0.228553442,128,0.251992971,3494,31714.84375,56192,128
63488,4.578857968,-10.46441561,-145094,3596,0.259349377,128,0.236054091,3273,31734.375,56832,128
65379,4.715239968,-10.42453234,-144541,3840,0.276947054,128,0.260214837,3608,31753.90625,57472,128
59232,4.271908316,-10.43491786,-144685,3608,0.260214837,128,0.238434105,3306,31773.4375,58112,128
61312,4.421921304,-10.43794697,-144727,3072,0.221557644,128,0.241246848,3345,31792.96875,58752,128
65024,4.68963679,-10.39734249,-144164,4080,0.294256245,128,0.258123309,3579,31812.5,59392,128
61435,4.430792264,-10.43664878,-144709,3100,0.223577049,128,0.232880739,3229,31832.03125,60032,128
64760,4.67059668,-10.4537416,-144946,3900,0.281274352,128,0.220043089,3051,31851.5625,60672,128
-202498,-14.60448558,-10.43181663,-144642,3993,0.287981664,128,0.259709985,3601,31871.09375,61312,128
61424,4.429998926,-10.40001099,-144201,3072,0.221557644,128,0.231943158,3216,31890.625,61952,128
61264,4.418459465,-10.40743952,-144304,3320,0.239443808,128,0.237857132,3298,31910.15625,62592,128
-201155,-14.50762624,-10.40880983,-144323,3971,0.286394988,128,0.277163419,3843,31929.6875,63232,128
-201733,-14.54931254,-10.41248803,-144374,8159,0.588440369,128,0.35866086,4973,31949.21875,63872,128
65280,4.708099926,-10.35241072,-143541,8188,0.590531896,128,0.410588433,5693,31968.75,64512,128
-196623,-14.18077101,-10.40087645,-144213,7291,0.525838795,128,0.312935747,4339,31988.28125,65152,128
59456,4.28806356,-10.41710382,-144438,3590,0.258916647,128,0.25992635,3604,32007.8125,256,128
64960,4.685021005,-10.45446282,-144956,3598,0.25949362,128,0.237280159,3290,32027.34375,896,128
61423,4.429926804,-10.42417174,-144536,3134,0.226029185,128,0.230644969,3198,32046.875,1536,128
65035,4.690430127,-10.44011062,-144757,3966,0.28603438,128,0.210450913,2918,32066.40625,2176,128
-200720,-14.47625333,-10.13272823,-140495,509,0.036709909,128,0.37993674,5268,32085.9375,2816,128
62432,4.502697528,-10.20982626,-141564,12798,0.923012605,128,0.697271907,9668,32105.46875,3456,128
57345,4.135814802,-10.52016562,-145867,736,0.053081519,128,-0.035123233,-487,32125,4096,128
59399,4.283952628,-10.42662387,-144570,4092,0.295121705,128,0.179438612,2488,32144.53125,4736,128
-196640,-14.18199708,-10.41587775,-144421,7807,0.563053556,128,0.276370081,3832,32164.0625,5376,128
-200824,-14.48375398,-10.38262968,-143960,8079,0.582670639,128,0.326134005,4522,32183.59375,6016,128
61375,4.426464966,-10.38140361,-143943,7692,0.554759569,128,0.337889831,4685,32203.125,6656,128
65471,4.721875158,-10.34541492,-143444,7736,0.55793292,128,0.387221025,5369,32222.65625,7296,128
61441,4.431224994,-10.32889907,-143215,7996,0.576684544,128,0.427248529,5924,32242.1875,7936,128
64384,4.643478947,-10.27906302,-142524,8176,0.589666437,128,0.50167805,6956,32261.71875,8576,128
65424,4.718485441,-10.23636702,-141932,8184,0.59024341,128,0.577550003,8008,32281.25,9216,128
-212988,-15.36104147,-10.1783091,-141127,16353,1.179404995,128,0.701599205,9728,32300.78125,9856,128
64638,4.661797841,-10.17419817,-141070,15886,1.145724195,128,0.739102452,10248,32320.3125,10496,128
-200321,-14.4474768,-10.24141553,-142002,15483,1.116659178,128,0.670082053,9291,32339.84375,11136,128
65408,4.717331495,-10.3200281,-143092,6268,0.452058369,128,0.470521506,6524,32359.375,11776,128
-196612,-14.17997768,-10.42727297,-144579,7047,0.508241118,128,0.360391779,4997,32378.90625,12416,128
65439,4.719567265,-10.41126197,-144357,4082,0.294400489,128,0.288630758,4002,32398.4375,13056,128
-200705,-14.4751715,-10.46059316,-145041,4039,0.291299259,128,0.255959661,3549,32417.96875,13696,128
-198593,-14.32285062,-10.41234379,-144372,3087,0.222639468,128,0.267643364,3711,32437.5,14336,128
57854,4.172524711,-10.45056825,-144902,3726,0.268725189,128,0.271033081,3758,32457.03125,14976,128
-201830,-14.55630834,-10.44869309,-144876,4095,0.29533807,128,0.277524028,3848,32476.5625,15616,128
-197634,-14.25368598,-10.44191366,-144782,4047,0.291876232,128,0.250045687,3467,32496.09375,16256,128
63488,4.578857968,-10.43398028,-144672,3576,0.257906945,128,0.256320269,3554,32515.625,16896,128
-201747,-14.55032224,-10.44256275,-144791,3969,0.286250745,128,0.267787608,3713,32535.15625,17536,128
63488,4.578857968,-10.46593016,-145115,3132,0.225884941,128,0.249035984,3453,32554.6875,18176,128
63611,4.587728928,-10.4463852,-144844,3096,0.223288563,128,0.246078997,3412,32574.21875,18816,128
-197136,-14.21776941,-10.46621865,-145119,3871,0.279182825,128,0.223793414,3103,32593.75,19456,128
-198664,-14.32797126,-10.42821055,-144592,3457,0.249324471,128,0.289928948,4020,32613.28125,20096,128
61376,4.426537088,-10.41609411,-144424,8064,0.581588814,128,0.325124303,4508,32632.8125,20736,128
-197128,-14.21719244,-10.45532828,-144968,8121,0.585699747,128,0.355054778,4923,32652.34375,21376,128
58240,4.20036366,-10.44775551,-144863,7428,0.535719459,128,0.316469707,4388,32671.875,22016,128
-198532,-14.3184512,-10.4607374,-145043,3119,0.22494736,128,0.243338375,3374,32691.40625,22656,128
-204480,-14.74743065,-10.46398288,-145088,3585,0.258556039,128,0.19393506,2689,32710.9375,23296,128
-200704,-14.47509938,-10.50869829,-145708,3279,0.236486821,128,0.16249003,2253,32730.46875,23936,128
63615,4.588017415,-10.48698968,-145407,3138,0.226317671,128,0.159460921,2211,32750,24576,128
-212161,-15.30139688,-10.20672503,-141521,3587,0.258700282,128,0.268508824,3723,32769.53125,25216,128
-197631,-14.25346962,-10.64969607,-147663,14335,1.033863549,128,0.426022461,5907,32789.0625,25856,128
-204377,-14.74000212,-10.60389884,-147028,16359,1.179837725,128,-0.001947284,-27,32808.59375,26496,128
-198560,-14.32047061,-10.47083443,-145183,2043,0.147344488,128,0.082074414,1138,32828.125,27136,128
65216,4.703484142,-10.43614393,-144702,3992,0.287909542,128,0.252714187,3504,32847.65625,27776,128
64543,4.654946286,-10.40693467,-144297,3720,0.268292459,128,0.270816716,3755,32867.1875,28416,128
59390,4.283303533,-10.36229138,-143678,7776,0.560817785,128,0.312142409,4328,32886.71875,29056,128
-200957,-14.49334615,-10.35414164,-143565,8177,0.589738558,128,0.35909359,4979,32906.25,29696,128
63488,4.578857968,-10.29060248,-142684,7934,0.572213003,128,0.427897624,5933,32925.78125,30336,128
65304,4.709830846,-10.27985636,-142535,7694,0.554903812,128,0.44412499,6158,32945.3125,30976,128
-198653,-14.32717792,-10.18220367,-141181,8065,0.581660936,128,0.521511498,7231,32964.84375,31616,128
-198271,-14.29962746,-10.17051997,-141019,16321,1.177097103,128,0.637771563,8843,32984.375,32256,128
64510,4.652566272,-10.13712765,-140556,16318,1.176880738,128,0.696839177,9662,33003.90625,32896,128
-212604,-15.33334676,-10.24379554,-142035,7919,0.571131178,128,0.571059057,7918,33023.4375,33536,128
-196673,-14.1843771,-10.27206722,-142427,6351,0.458044464,128,0.457900221,6349,33042.96875,34176,128
-200832,-14.48433095,-10.43051844,-144624,7039,0.507664145,128,0.281202231,3899,33062.5,34816,128
64638,4.661797841,-10.40614133,-144286,3612,0.260503323,128,0.259637864,3600,33082.03125,35456,128
61434,4.430720142,-10.40498738,-144270,3582,0.258339674,128,0.249108106,3454,33101.5625,36096,128
-200936,-14.4918316,-10.42590266,-144560,3343,0.241102605,128,0.242256551,3359,33121.09375,36736,128
64512,4.652710516,-10.41075711,-144350,3584,0.258483918,128,0.259205134,3594,33140.625,37376,128
63939,4.611384822,-10.41645472,-144429,3296,0.237712888,128,0.237712888,3296,33160.15625,38016,128
65024,4.68963679,-10.37628298,-143872,3584,0.258483918,128,0.270023378,3744,33179.6875,38656,128
-201849,-14.55767865,-10.41962807,-144473,3075,0.221774008,128,0.243915349,3382,33199.21875,39296,128
60544,4.366531893,-10.3843606,-143984,3968,0.286178623,128,0.251992971,3494,33218.75,39936,128
-197244,-14.22555855,-10.41032438,-144344,4047,0.291876232,128,0.237496524,3293,33238.28125,40576,128
57473,4.145046371,-10.42164748,-144501,3228,0.232808618,128,0.232520131,3224,33257.8125,41216,128
-201503,-14.53272456,-10.39640491,-144151,3471,0.250334173,128,0.250045687,3467,33277.34375,41856,128
64963,4.68523737,-10.38529818,-143997,7616,0.549278325,128,0.320292153,4441,33296.875,42496,128
-196661,-14.18351164,-10.35132889,-143526,8071,0.582093666,128,0.388807701,5391,33316.40625,43136,128
-196672,-14.18430497,-10.343684,-143420,7775,0.560745664,128,0.385057376,5339,33335.9375,43776,128
61311,4.421849182,-10.38573091,-144003,4092,0.295121705,128,0.292525326,4056,33355.46875,44416,128
-203649,-14.68749758,-10.40448253,-144263,4095,0.29533807,128,0.206484223,2863,33375,45056,128
-201593,-14.53921551,-10.40347283,-144249,4047,0.291876232,128,0.191122316,2650,33394.53125,45696,128
-201185,-14.50978989,-10.40419405,-144259,4067,0.293318664,128,0.220331576,3055,33414.0625,46336,128
65247,4.705719913,-10.36063258,-143655,20,0.001442433,128,0.186145924,2581,33433.59375,46976,128
-204784,-14.76935563,-9.941173189,-137839,4083,0.29447261,128,0.553245014,7671,33453.125,47616,128
48688,3.511457862,-10.65416761,-147725,1022,0.073708305,128,0.219826725,3048,33472.65625,48256,128
64511,4.652638394,-10.42316203,-144522,192,0.013847353,128,0.010385515,144,33492.1875,48896,128
-196734,-14.18877652,-10.36488776,-143714,119,0.008582474,128,0.254300863,3526,33511.71875,49536,128
53047,3.825836042,-10.35399739,-143563,4048,0.291948353,128,0.250694782,3476,33531.25,50176,128
-200768,-14.47971517,-10.30170921,-142838,4041,0.291443502,128,0.330172817,4578,33550.78125,50816,128
63548,4.583185265,-10.2939922,-142731,8190,0.59067614,128,0.343298953,4760,33570.3125,51456,128
-198409,-14.30958024,-10.28468851,-142602,8075,0.582382152,128,0.372363969,5163,33589.84375,52096,128
-197392,-14.23623255,-10.23528519,-141917,127,0.009159447,128,0.422127893,5853,33609.375,52736,128
63486,4.578713724,-10.19410374,-141346,200,0.014424326,128,0.494682252,6859,33628.90625,53376,128
65534,4.72641882,-10.09096981,-139916,448,0.03231049,128,0.652268011,9044,33648.4375,54016,128
65293,4.709037508,-10.0779158,-139735,16380,1.181352279,128,0.7102538,9848,33667.96875,54656,128
-209921,-15.13984443,-10.12025119,-140322,15525,1.119688287,128,0.676573,9381,33687.5,55296,128
49214,3.549393839,-10.18775704,-141258,8076,0.582454274,128,0.564063259,7821,33707.03125,55936,128
65291,4.708893264,-10.30055527,-142822,7910,0.570482084,128,0.386427687,5358,33726.5625,56576,128
61439,4.43108075,-10.34880463,-143491,4080,0.294256245,128,0.287765299,3990,33746.09375,57216,128
-201215,-14.51195353,-10.3710181,-143799,3643,0.262739094,128,0.261008175,3619,33765.625,57856,128
-196612,-14.17997768,-10.35349254,-143556,3871,0.279182825,128,0.242184429,3358,33785.15625,58496,128
-200959,-14.4934904,-10.39005821,-144063,3135,0.226101306,128,0.226029185,3134,33804.6875,59136,128
-196611,-14.17990556,-10.34880463,-143491,3585,0.258556039,128,0.261152418,3621,33824.21875,59776,128
59199,4.269528302,-10.39142852,-144082,3456,0.249252349,128,0.249396592,3458,33843.75,60416,128
65465,4.721442428,-10.34339551,-143416,4038,0.291227137,128,0.263316067,3651,33863.28125,61056,128
65505,4.724327293,-10.3623635,-143679,4032,0.290794407,128,0.25415662,3524,33882.8125,61696,128
-200712,-14.47567635,-10.36409442,-143703,3825,0.27586523,128,0.233169226,3233,33902.34375,62336,128
-200828,-14.48404246,-10.36553685,-143723,4089,0.29490534,128,0.247593552,3433,33921.875,62976,128
65295,4.709181751,-10.37087385,-143797,3566,0.257185728,128,0.254445106,3528,33941.40625,63616,128
65379,4.715239968,-10.35298769,-143549,8130,0.586348842,128,0.309401787,4290,33960.9375,64256,128
59139,4.265201004,-10.37411933,-143842,8128,0.586204599,128,0.364719077,5057,33980.46875,64896,128
-200580,-14.4661563,-10.30502681,-142884,31,0.00223577,128,0.396813202,5502,34000,0,128
65295,4.709181751,-10.35212223,-143537,4064,0.293102299,128,0.293390786,4068,34019.53125,640,128
-196626,-14.18098738,-10.38450484,-143986,3267,0.235621361,128,0.235909848,3271,34039.0625,1280,128
-209384,-15.10111512,-10.40729528,-144302,3791,0.273413095,128,0.194800519,2701,34058.59375,1920,128
-200988,-14.49558192,-10.40130918,-144219,4069,0.293462907,128,0.191915654,2661,34078.125,2560,128
-197631,-14.25346962,-10.33639971,-143319,3,2.16E-04,128,0.185424708,2571,34097.65625,3200,128
-198388,-14.30806569,-9.983075855,-138420,2051,0.147921461,128,0.48573917,6735,34117.1875,3840,128
48112,3.469915804,-10.71900496,-148624,1022,0.073708305,128,0.362627549,5028,34136.71875,4480,128
57831,4.170865914,-10.45431858,-144954,32256,2.326355258,128,-0.030002598,-416,34156.25,5120,128
2,1.44E-04,-10.39424126,-144121,24576,1.772461149,128,0.065486439,908,34175.78125,5760,0
65472,4.721947279,-10.33120696,-143247,3968,0.286178623,128,0.298367178,4137,34214.84375,7040,128
-198416,-14.3100851,-10.30942623,-142945,8161,0.588584612,128,0.336735885,4669,34234.375,7680,128
-199784,-14.40874748,-10.31094078,-142966,7681,0.553966231,128,0.341279547,4732,34253.90625,8320,128
-200615,-14.46868056,-10.260672,-142269,8127,0.586132477,128,0.424147299,5881,34273.4375,8960,128
65360,4.713869657,-10.22259178,-141741,7964,0.574376652,128,0.480113683,6657,34292.96875,9600,128
64575,4.657254178,-10.15292229,-140775,7984,0.575819084,128,0.583391855,8089,34312.5,10240,128
64509,4.652494151,-10.11253418,-140215,16286,1.174572846,128,0.657028038,9110,34332.03125,10880,128
-197113,-14.21611061,-10.10741354,-140144,16003,1.154162425,128,0.666620215,9243,34351.5625,11520,128
-198433,-14.31131116,-10.21292749,-141607,15387,1.109735502,128,0.550360149,7631,34371.09375,12160,128
64512,4.652710516,-10.28461639,-142601,7696,0.555048055,128,0.403592635,5596,34390.625,12800,128
61441,4.431224994,-10.34909312,-143495,7552,0.544662541,128,0.304064787,4216,34410.15625,13440,128
64990,4.687184654,-10.34440522,-143430,4064,0.293102299,128,0.29800657,4132,34429.6875,14080,128
-197476,-14.24229076,-10.38378362,-143976,3585,0.258556039,128,0.263532432,3654,34449.21875,14720,128
65440,4.719639387,-10.35558407,-143585,3838,0.276802811,128,0.27629796,3831,34468.75,15360,128
-200478,-14.45879989,-10.30430559,-142874,7171,0.5171842,128,0.295554435,4098,34488.28125,16000,128
-200712,-14.47567635,-10.33632759,-143318,4045,0.291731988,128,0.279182825,3871,34507.8125,16640,128
-200740,-14.47769576,-10.32421116,-143150,3843,0.277163419,128,0.279904041,3881,34527.34375,17280,128
61440,4.431152872,-10.32284085,-143131,4086,0.294688975,128,0.276009473,3827,34546.875,17920,128
65535,4.726490942,-10.32522086,-143164,3968,0.286178623,128,0.292453205,4055,34566.40625,18560,128
-200707,-14.47531575,-10.29514614,-142747,127,0.009159447,128,0.286755596,3976,34585.9375,19200,128
-200704,-14.47509938,-10.35320405,-143552,7171,0.5171842,128,0.318416991,4415,34605.46875,19840,128
61632,4.445000225,-10.29117945,-142692,8184,0.59024341,128,0.413906028,5739,34625,20480,128
-200224,-14.440481,-10.28209213,-142566,7937,0.572429368,128,0.42155092,5845,34644.53125,21120,128
61553,4.439302616,-10.26608113,-142344,7740,0.558221407,128,0.3781337,5243,34664.0625,21760,128
-196616,-14.18026616,-10.3373373,-143332,3967,0.286106501,128,0.258556039,3585,34683.59375,22400,128
-201214,-14.51188141,-10.32615844,-143177,3981,0.287116204,128,0.242833524,3367,34703.125,23040,128
61391,4.427618912,-10.34743432,-143472,3868,0.27896646,128,0.214273359,2971,34722.65625,23680,128
61432,4.430575899,-10.34866039,-143489,3832,0.276370081,128,0.209729696,2908,34742.1875,24320,128
-196672,-14.18430497,-9.940163486,-137825,3711,0.267643364,128,0.525622431,7288,34761.71875,24960,128
65392,4.716177549,-10.30257467,-142850,15208,1.09682573,128,0.573799679,7956,34781.25,25600,128
-203235,-14.65763922,-10.51353043,-145775,959,0.069164642,128,0.04031599,559,34800.78125,26240,128
-196794,-14.19310381,-10.31909052,-143079,3,2.16E-04,128,0.199416304,2765,34820.3125,26880,128
64631,4.661292989,-10.33531789,-143304,4068,0.293390786,128,0.279543433,3876,34839.84375,27520,128
-197344,-14.23277071,-10.2943528,-142736,4095,0.29533807,128,0.310123004,4300,34859.375,28160,128
-200702,-14.47495514,-10.30517105,-142886,7603,0.548340744,128,0.341207426,4731,34878.90625,28800,128
-200577,-14.46593993,-10.24386766,-142036,8129,0.58627672,128,0.391187714,5424,34898.4375,29440,128
62528,4.509621204,-10.24942103,-142113,7966,0.574520895,128,0.416935136,5781,34917.96875,30080,128
65535,4.726490942,-10.14066161,-140605,158,0.011395217,128,0.532762472,7387,34937.5,30720,128
-197580,-14.24979141,-10.13806524,-140569,7911,0.570554205,128,0.594354343,8241,34957.03125,31360,128
-196862,-14.19800808,-10.09515287,-139974,16353,1.179404995,128,0.662725647,9189,34976.5625,32000,128
-196609,-14.17976131,-10.07777155,-139733,16319,1.17695286,128,0.710470165,9851,34996.09375,32640,128
65376,4.715023603,-10.13914706,-140584,16320,1.177024982,128,0.630126671,8737,35015.625,33280,128
63251,4.561765142,-10.24567071,-142061,6912,0.498504698,128,0.413689663,5736,35035.15625,33920,128
62400,4.500389636,-10.33914034,-143357,7136,0.514659943,128,0.304569638,4223,35054.6875,34560,128
-197113,-14.21611061,-10.32060508,-143100,4079,0.294184124,128,0.274278554,3803,35074.21875,35200,128
63512,4.580588887,-10.34563128,-143447,3312,0.238866835,128,0.244564443,3391,35093.75,35840,128
-197118,-14.21647122,-10.33805851,-143342,3815,0.275144014,128,0.233601956,3239,35113.28125,36480,128
61441,4.431224994,-10.34166459,-143392,3582,0.258339674,128,0.261873634,3631,35132.8125,37120,128
-200576,-14.46586781,-10.31945113,-143084,3587,0.258700282,128,0.258988769,3591,35152.34375,37760,128
-200641,-14.47055572,-10.32248024,-143126,3583,0.258411796,128,0.262017877,3633,35171.875,38400,128
61455,4.432234696,-10.36128168,-143664,3592,0.259060891,128,0.224154022,3108,35191.40625,39040,128
65291,4.708893264,-10.34130399,-143387,3392,0.244636565,128,0.246006876,3411,35210.9375,39680,128
-200703,-14.47502726,-10.31404201,-143009,3983,0.287260447,128,0.242400794,3361,35230.46875,40320,128
-196946,-14.2040663,-10.31887416,-143076,4035,0.291010772,128,0.294688975,4086,35250,40960,128
61936,4.4669252,-10.29961768,-142809,7904,0.570049354,128,0.325196424,4509,35269.53125,41600,128
-200417,-14.45440047,-10.31678263,-143047,8191,0.590748261,128,0.385490106,5345,35289.0625,42240,128
-200193,-14.43824523,-10.30019466,-142817,7199,0.519203606,128,0.325557032,4514,35308.59375,42880,128
62169,4.483729539,-10.33748154,-143334,4080,0.294256245,128,0.236126213,3274,35328.125,43520,128
-198654,-14.32725004,-10.33928458,-143359,3095,0.223216441,128,0.211027886,2926,35347.65625,44160,128
61388,4.427402547,-10.39431338,-144122,3008,0.216941859,128,0.180159829,2498,35367.1875,44800,128
61423,4.429926804,-10.3533483,-143554,3870,0.279110703,128,0.190617465,2643,35386.71875,45440,128
62458,4.50457269,-10.19035342,-141294,120,0.008654595,128,0.22848132,3168,35406.25,46080,128
63494,4.579290697,-9.892923819,-137170,12256,0.883922682,128,0.768672319,10658,35425.78125,46720,128
-204769,-14.7682738,-10.50098127,-145601,3855,0.278028879,128,0.04384995,608,35445.3125,47360,128
61189,4.413050343,-10.39323156,-144107,992,0.071544656,128,0.057841546,802,35464.84375,48000,128
-200704,-14.47509938,-10.32110993,-143107,3591,0.258988769,128,0.239227443,3317,35484.375,48640,128
-200257,-14.44286101,-10.30509893,-142885,4095,0.29533807,128,0.259782107,3602,35503.90625,49280,128
62526,4.509476961,-10.30596439,-142897,7294,0.52605516,128,0.304064787,4216,35523.4375,49920,128
65528,4.72598609,-10.25273863,-142159,8064,0.581588814,128,0.331110398,4591,35542.96875,50560,128
63468,4.577415535,-10.25771502,-142228,8176,0.589666437,128,0.368180915,5105,35562.5,51200,128
-196612,-14.17997768,-10.21725478,-141667,8191,0.590748261,128,0.414627244,5749,35582.03125,51840,128
64488,4.650979596,-10.14477255,-140662,7936,0.572357246,128,0.501822293,6958,35601.5625,52480,128
-196752,-14.1900747,-10.09414316,-139960,8161,0.588584612,128,0.610437466,8464,35621.09375,53120,128
-196993,-14.20745602,-10.09991289,-140040,16129,1.163249751,128,0.672678432,9327,35640.625,53760,128
-212978,-15.36032025,-10.17340483,-141059,16271,1.173491022,128,0.599691343,8315,35660.15625,54400,128
-197585,-14.25015202,-10.2276403,-141811,7283,0.525261822,128,0.450471693,6246,35679.6875,55040,128
-200195,-14.43838947,-10.35919015,-143635,6157,0.444052868,128,0.261657269,3628,35699.21875,55680,128
-200754,-14.47870546,-10.35284345,-143547,3459,0.249468714,128,0.232303766,3221,35718.75,56320,128
65423,4.718413319,-10.34548704,-143445,3084,0.222423103,128,0.22934678,3180,35738.28125,56960,128
65534,4.72641882,-10.37296538,-143826,3960,0.28560165,128,0.197252655,2735,35757.8125,57600,128
65521,4.725481239,-10.34361188,-143419,3848,0.277524028,128,0.20367148,2824,35777.34375,58240,128
-201501,-14.53258032,-10.33950094,-143362,4089,0.29490534,128,0.218240049,3026,35796.875,58880,128
-196640,-14.18199708,-10.37246053,-143819,4001,0.288558637,128,0.194223546,2693,35816.40625,59520,128
-200704,-14.47509938,-10.36618595,-143732,3073,0.221629765,128,0.214850332,2979,35835.9375,60160,128
-196637,-14.18178072,-10.32449965,-143154,3983,0.287260447,128,0.202950263,2814,35855.46875,60800,128
-200960,-14.49356252,-10.37498479,-143854,3331,0.240237145,128,0.171577355,2379,35875,61440,128
-200776,-14.48029214,-10.32399479,-143147,255,0.018391015,128,0.210883643,2924,35894.53125,62080,128
-200593,-14.46709388,-10.32449965,-143154,3997,0.28827015,128,0.241246848,3345,35914.0625,62720,128
61502,4.435624413,-10.30654136,-142905,8128,0.586204599,128,0.334860722,4643,35933.59375,63360,128
64541,4.654802043,-10.28512124,-142608,7928,0.571780273,128,0.331543127,4597,35953.125,64000,128
-197072,-14.21315363,-10.33257727,-143266,3713,0.267787608,128,0.206051493,2857,35972.65625,64640,128
65042,4.690934979,-10.36005561,-143647,3098,0.223432806,128,0.148498434,2059,35992.1875,65280,128
-200765,-14.4794988,-10.33272151,-143268,2035,0.146767515,128,0.153114218,2123,36011.71875,384,128
64568,4.656749327,-10.34880463,-143491,2044,0.147416609,128,0.142728703,1979,36031.25,1024,128
-200449,-14.45670837,-10.30307952,-142857,509,0.036709909,128,0.106523646,1477,36050.78125,1664,128
-197376,-14.2350786,-10.0682515,-139601,7,5.05E-04,128,0.729798762,10119,36070.3125,2304,128
48371,3.488595306,-10.67263075,-147981,3292,0.237424402,128,0.255887539,3548,36089.84375,2944,128
-202741,-14.62201114,-10.35926227,-143636,31105,2.243343263,128,-0.010457636,-145,36109.375,3584,128
61424,4.429998926,-10.31858567,-143072,1986,0.143233555,128,0.179799221,2493,36128.90625,4224,128
64656,4.66309603,-10.29204491,-142704,3828,0.276081595,128,0.220980671,3064,36148.4375,4864,128
61456,4.432306818,-10.2906746,-142685,3596,0.259349377,128,0.231438307,3209,36167.96875,5504,128
62384,4.49923569,-10.27120176,-142415,3840,0.276947054,128,0.26346031,3653,36187.5,6144,128
61502,4.435624413,-10.23521307,-141916,3696,0.26656154,128,0.303559936,4209,36207.03125,6784,128
62977,4.542003815,-10.21235051,-141599,7998,0.576828787,128,0.336808006,4670,36226.5625,7424,128
-196855,-14.19750323,-10.14037313,-140601,8175,0.589594315,128,0.435542516,6039,36246.09375,8064,128
-196616,-14.18026616,-10.10972144,-140176,239,0.017237069,128,0.510693253,7081,36265.625,8704,128
-197117,-14.2163991,-10.09104193,-139917,8191,0.590748261,128,0.570698449,7913,36285.15625,9344,128
64516,4.652999002,-10.13518037,-140529,8142,0.587214301,128,0.542643135,7524,36304.6875,9984,128
63480,4.578280995,-10.22749606,-141809,8176,0.589666437,128,0.363204523,5036,36324.21875,10624,128
62400,4.500389636,-10.29911283,-142802,6212,0.448019558,128,0.257906945,3576,36343.75,11264,128
-197616,-14.25238779,-10.33120696,-143247,3777,0.272403392,128,0.200426006,2779,36363.28125,11904,128
65219,4.703700507,-10.36633019,-143734,3168,0.22848132,128,0.157297272,2181,36382.8125,12544,128
-200732,-14.47711879,-10.38284604,-143963,2023,0.145902055,128,0.143594163,1991,36402.34375,13184,128
-196611,-14.17990556,-10.35428588,-143567,3103,0.223793414,128,0.149003285,2066,36421.875,13824,128
65534,4.72641882,-10.31512383,-143024,4032,0.290794407,128,0.170207044,2360,36441.40625,14464,128
-196625,-14.18091526,-10.32853846,-143210,3591,0.258988769,128,0.162562151,2254,36460.9375,15104,128
-200930,-14.49139887,-10.33971731,-143365,2047,0.147632974,128,0.132775919,1841,36480.46875,15744,128
61537,4.43814867,-10.3346688,-143295,1948,0.140492933,128,0.139988081,1941,36500,16384,128
-197476,-14.24229076,-10.34988646,-143506,3187,0.229851631,128,0.130900756,1815,36519.53125,17024,128
61475,4.433677129,-10.33625547,-143317,1984,0.143089311,128,0.125203148,1736,36539.0625,17664,128
63495,4.579362819,-10.36178653,-143671,3132,0.225884941,128,0.151311177,2098,36558.59375,18304,128
-200452,-14.45692473,-10.32147054,-143112,3939,0.284087096,128,0.207926656,2883,36578.125,18944,128
-200473,-14.45843929,-10.26983145,-142396,4079,0.294184124,128,0.286394988,3971,36597.65625,19584,128
-199808,-14.4104784,-10.30884925,-142937,4033,0.290866529,128,0.22761586,3156,36617.1875,20224,128
61552,4.439230494,-10.30791167,-142924,1550,0.111788525,128,0.118279471,1640,36636.71875,20864,128
61446,4.431585602,-10.34310703,-143412,1492,0.10760547,128,0.086401711,1198,36656.25,21504,128
-198268,-14.29941109,-10.32053296,-143099,511,0.036854152,128,0.073636183,1021,36675.78125,22144,128
61454,4.432162575,-10.34346763,-143417,374,0.026973489,128,0.044210558,613,36695.3125,22784,128
63462,4.576982805,-10.19987347,-141426,1796,0.129530445,128,0.097219956,1348,36714.84375,23424,128
-197597,-14.25101748,-10.27091328,-142411,14623,1.054634578,128,0.456674153,6332,36734.375,24064,128
-204240,-14.73012146,-10.52160806,-145887,16307,1.1760874,128,-0.042479639,-589,36753.90625,24704,128
65535,4.726490942,-10.30906562,-142940,31104,2.243271141,128,0.012693407,176,36773.4375,25344,128
61565,4.440168076,-10.29074672,-142686,2040,0.147128123,128,0.099816334,1384,36792.96875,25984,128
-200704,-14.47509938,-10.26550415,-142336,2045,0.147488731,128,0.135083811,1873,36812.5,26624,128
-196836,-14.19613292,-10.26117686,-142276,3775,0.272259149,128,0.163067003,2261,36832.03125,27264,128
-198669,-14.32833187,-10.20304682,-141470,4091,0.295049583,128,0.192925357,2675,36851.5625,27904,128
62585,4.513732137,-10.21307173,-141609,4092,0.295121705,128,0.228841928,3173,36871.09375,28544,128
65024,4.68963679,-10.14455618,-140659,8128,0.586204599,128,0.309257544,4288,36890.625,29184,128
-196733,-14.18870439,-10.10589899,-140123,3,2.16E-04,128,0.389817404,5405,36910.15625,29824,128
-197064,-14.21257665,-10.04510046,-139280,207,0.014929177,128,0.467276033,6479,36929.6875,30464,128
-197504,-14.24431017,-10.03471494,-139136,7919,0.571131178,128,0.52958912,7343,36949.21875,31104,128
65036,4.690502249,-10.04481197,-139276,8048,0.580434868,128,0.493456184,6842,36968.75,31744,128
-197633,-14.25361386,-10.12998761,-140457,7105,0.512424172,128,0.346544426,4805,36988.28125,32384,128
65279,4.708027805,-10.24141553,-142002,3044,0.219538238,128,0.152032393,2108,37007.8125,33024,128
65280,4.708099926,-10.24660829,-142074,1720,0.124049201,128,0.124193445,1722,37027.34375,33664,128
65031,4.690141641,-10.28302971,-142579,1084,0.078179846,128,0.070534953,978,37046.875,34304,128
64511,4.652638394,-10.27826968,-142513,1600,0.115394606,128,0.078540454,1089,37066.40625,34944,128
-198964,-14.34960775,-10.26355687,-142309,1795,0.129458324,128,0.077674994,1077,37085.9375,35584,128
-196609,-14.17976131,-10.22843364,-141822,1919,0.138401406,128,0.095849645,1329,37105.46875,36224,128
65056,4.691944682,-10.24833921,-142098,1902,0.137175338,128,0.081785927,1134,37125,36864,128
63006,4.544095343,-10.25511864,-142192,896,0.064620979,128,0.072554359,1006,37144.53125,37504,128
-199711,-14.4034826,-10.21220627,-141597,1543,0.111283673,128,0.088204752,1223,37164.0625,38144,128
64515,4.65292688,-10.23175123,-141868,966,0.069669493,128,0.069669493,966,37183.59375,38784,128
-196809,-14.19418564,-10.22013965,-141707,1797,0.129602567,128,0.074213156,1029,37203.125,39424,128
61855,4.461083348,-10.21552386,-141643,960,0.069236764,128,0.107966078,1497,37222.65625,40064,128
-196809,-14.19418564,-10.21790388,-141676,1797,0.129602567,128,0.153835434,2133,37242.1875,40704,0
-198257,-14.29861776,-10.17210664,-141041,4095,0.29533807,128,0.214417602,2973,37261.71875,41344,128
65439,4.719567265,-10.18386247,-141204,3592,0.259060891,128,0.15275361,2118,37281.25,41984,128
65286,4.708532656,-10.22583726,-141786,112,0.008077622,128,0.051134235,709,37300.78125,42624,128
65473,4.722019401,-10.22518816,-141777,26,0.001875162,128,0.007284285,101,37320.3125,43264,128
-198912,-14.34585742,-10.24235311,-142015,63,0.004543663,128,0.008726717,121,37339.84375,43904,128
-196736,-14.18892076,-10.21523538,-141639,16339,1.178395293,128,7.93E-04,11,37359.375,44544,128
61695,4.449543887,-10.03132522,-139089,196,0.014135839,128,0.064981588,901,37378.90625,45184,128
-197634,-14.25368598,-10.30120436,-142831,8057,0.581083963,128,0.280481014,3889,37398.4375,45824,128
57588,4.153340358,-10.38940911,-144054,542,0.039089923,128,-0.164148827,-2276,37417.96875,46464,128
61569,4.440456562,-10.25620046,-142207,30850,2.224952248,128,-0.135732905,-1882,37437.5,47104,128
-197120,-14.21661546,-10.18040063,-141156,513,0.036998396,128,0.065919169,914,37457.03125,47744,128
-198641,-14.32631246,-10.18948796,-141282,241,0.017381313,128,0.070751318,981,37476.5625,48384,128
65281,4.708172048,-10.1629472,-140914,1084,0.078179846,128,0.103206051,1431,37496.09375,49024,128
63536,4.582319806,-10.14780166,-140704,1672,0.120587363,128,0.122895255,1704,37515.625,49664,128
65535,4.726490942,-10.07178546,-139650,3724,0.268580946,128,0.199560547,2767,37535.15625,50304,128
65507,4.724471536,-10.07286728,-139665,3884,0.280120406,128,0.247809916,3436,37554.6875,50944,128
