Device,Device,Device,Device,Device,Device,Device,Device
ECG LL-RA,ECG LL-RA,ECG Vx-RL,ECG Vx-RL,Timestamp,Timestamp,ECG LA-RA,ECG LA-RA
CAL,RAW,CAL,RAW,RAW,CAL,CAL,RAW
mV,No Units,mV,No Units,No Units,mSecs,mV,No Units
-13.40464492,-1452,-3.55426191,-385,64,1.953125,-22.54417554,-2442
24.28899503,2631,-302.5092318,-32768,192,5.859375,-8.733329264,-946
24.22437208,2624,-302.5092318,-32768,320,9.765625,-8.548692282,-926
23.93818476,2593,-302.5092318,-32768,448,13.671875,-8.56715598,-928
23.77201147,2575,-302.5092318,-32768,576,17.578125,-8.557924131,-927
23.5319834,2549,-302.5092318,-32768,704,21.484375,-8.604083377,-932
23.4765923,2543,-302.5092318,-32768,832,25.390625,-8.484069338,-919
23.4765923,2543,-302.5092318,-32768,960,29.296875,-8.419446394,-912
23.44889676,2540,-302.5092318,-32768,1088,33.203125,-8.271736808,-896
23.33811457,2528,-302.5092318,-32768,1216,37.109375,-8.280968657,-897
23.12578204,2505,-302.5092318,-32768,1344,41.015625,-8.3640553,-906
23.14424574,2507,-302.5092318,-32768,1472,44.921875,-8.225577563,-891
23.03346355,2495,-302.5092318,-32768,1600,48.828125,-8.179418317,-886
22.97807245,2489,-302.5092318,-32768,1728,52.734375,-8.170186468,-885
22.94114505,2485,-302.5092318,-32768,1856,56.640625,-8.160954619,-884
22.83959471,2474,-302.5092318,-32768,1984,60.546875,-8.244041261,-893
22.89498581,2480,-302.5092318,-32768,2112,64.453125,-8.096331675,-877
22.87652211,2478,-302.5092318,-32768,2240,68.359375,-8.068636128,-874
22.88575396,2479,-302.5092318,-32768,2368,72.265625,-7.967085788,-863
22.81189917,2471,-302.5092318,-32768,2496,76.171875,-8.022476882,-869
22.64572588,2453,-302.5092318,-32768,2624,80.078125,-8.133259072,-881
22.70111698,2459,-302.5092318,-32768,2752,83.984375,-8.059404279,-873
22.81189917,2471,-302.5092318,-32768,2880,87.890625,-7.93939024,-860
22.80266732,2470,-302.5092318,-32768,3008,91.796875,-7.847071749,-850
22.71958068,2461,-302.5092318,-32768,3136,95.703125,-7.957853938,-862
22.65495773,2454,-302.5092318,-32768,3264,99.609375,-7.994781335,-866
22.71958068,2461,-302.5092318,-32768,3392,103.515625,-7.911694693,-857
22.70111698,2459,-302.5092318,-32768,3520,107.421875,-7.93939024,-860
22.79343547,2469,-302.5092318,-32768,3648,111.328125,-7.791680654,-844
22.68265328,2457,-302.5092318,-32768,3776,115.234375,-7.930158391,-859
22.61803034,2450,-302.5092318,-32768,3904,119.140625,-7.967085788,-863
22.60879849,2449,-302.5092318,-32768,4032,123.046875,-7.967085788,-863
22.56263924,2444,-302.5092318,-32768,4160,126.953125,-7.967085788,-863
22.64572588,2453,-302.5092318,-32768,4288,130.859375,-7.883999145,-854
22.55340739,2443,-302.5092318,-32768,4416,134.765625,-7.967085788,-863
22.47032075,2434,-302.5092318,-32768,4544,138.671875,-8.077867977,-875
22.4610889,2433,-302.5092318,-32768,4672,142.578125,-8.087099826,-876
22.4980163,2437,-302.5092318,-32768,4800,146.484375,-7.994781335,-866
22.55340739,2443,-302.5092318,-32768,4928,150.390625,-7.911694693,-857
22.4795526,2435,-302.5092318,-32768,5056,154.296875,-7.985549486,-865
22.39646596,2426,-302.5092318,-32768,5184,158.203125,-8.004013184,-867
22.36877041,2423,-302.5092318,-32768,5312,162.109375,-8.142490921,-882
22.32261116,2418,-302.5092318,-32768,5440,166.015625,-8.124027223,-880
22.35030671,2421,-302.5092318,-32768,5568,169.921875,-8.013245033,-868
22.37800226,2424,-302.5092318,-32768,5696,173.828125,-8.013245033,-868
22.33184301,2419,-302.5092318,-32768,5824,177.734375,-8.059404279,-873
22.28568377,2414,-302.5092318,-32768,5952,181.640625,-8.15172277,-883
22.30414747,2416,-302.5092318,-32768,6080,185.546875,-8.087099826,-876
22.31337931,2417,-302.5092318,-32768,6208,189.453125,-8.05017243,-872
22.32261116,2418,-302.5092318,-32768,6336,193.359375,-8.013245033,-868
22.33184301,2419,-302.5092318,-32768,6464,197.265625,-8.004013184,-867
22.22106082,2407,-302.5092318,-32768,6592,201.171875,-8.15172277,-883
22.32261116,2418,-302.5092318,-32768,6720,205.078125,-8.087099826,-876
22.30414747,2416,-302.5092318,-32768,6848,208.984375,-8.022476882,-869
22.38723411,2425,-302.5092318,-32768,6976,212.890625,-7.948622089,-861
22.32261116,2418,-302.5092318,-32768,7104,216.796875,-8.013245033,-868
22.30414747,2416,-302.5092318,-32768,7232,220.703125,-8.087099826,-876
22.39646596,2426,-302.5092318,-32768,7360,224.609375,-7.985549486,-865
22.26722007,2412,-302.5092318,-32768,7488,228.515625,-8.068636128,-874
22.31337931,2417,-302.5092318,-32768,7616,232.421875,-8.031708731,-870
22.22106082,2407,-302.5092318,-32768,7744,236.328125,-8.077867977,-875
22.28568377,2414,-302.5092318,-32768,7872,240.234375,-8.160954619,-884
22.23029267,2408,-302.5092318,-32768,8000,244.140625,-8.068636128,-874
22.28568377,2414,-302.5092318,-32768,8128,248.046875,-8.022476882,-869
22.31337931,2417,-302.5092318,-32768,8256,251.953125,-7.994781335,-866
22.23029267,2408,-302.5092318,-32768,8384,255.859375,-8.031708731,-870
22.27645192,2413,-302.5092318,-32768,8512,259.765625,-8.04094058,-871
22.22106082,2407,-302.5092318,-32768,8640,263.671875,-8.170186468,-885
22.27645192,2413,-302.5092318,-32768,8768,267.578125,-8.087099826,-876
22.35030671,2421,-302.5092318,-32768,8896,271.484375,-7.920926542,-858
22.29491562,2415,-302.5092318,-32768,9024,275.390625,-8.05017243,-872
22.24875637,2410,-302.5092318,-32768,9152,279.296875,-8.096331675,-877
22.23952452,2409,-302.5092318,-32768,9280,283.203125,-8.124027223,-880
22.27645192,2413,-302.5092318,-32768,9408,287.109375,-8.087099826,-876
22.35953856,2422,-302.5092318,-32768,9536,291.015625,-7.967085788,-863
22.27645192,2413,-302.5092318,-32768,9664,294.921875,-8.04094058,-871
22.30414747,2416,-302.5092318,-32768,9792,298.828125,-8.04094058,-871
22.24875637,2410,-302.5092318,-32768,9920,302.734375,-8.114795373,-879
22.28568377,2414,-302.5092318,-32768,10048,306.640625,-8.068636128,-874
22.32261116,2418,-302.5092318,-32768,10176,310.546875,-7.985549486,-865
22.23029267,2408,-302.5092318,-32768,10304,314.453125,-8.114795373,-879
22.27645192,2413,-302.5092318,-32768,10432,318.359375,-8.068636128,-874
22.27645192,2413,-302.5092318,-32768,10560,322.265625,-8.096331675,-877
22.29491562,2415,-302.5092318,-32768,10688,326.171875,-8.068636128,-874
22.31337931,2417,-302.5092318,-32768,10816,330.078125,-7.967085788,-863
22.24875637,2410,-302.5092318,-32768,10944,333.984375,-8.087099826,-876
22.24875637,2410,-302.5092318,-32768,11072,337.890625,-8.077867977,-875
22.22106082,2407,-302.5092318,-32768,11200,341.796875,-8.15172277,-883
22.28568377,2414,-302.5092318,-32768,11328,345.703125,-8.04094058,-871
22.26722007,2412,-302.5092318,-32768,11456,349.609375,-8.05017243,-872
22.26722007,2412,-302.5092318,-32768,11584,353.515625,-8.068636128,-874
22.22106082,2407,-302.5092318,-32768,11712,357.421875,-8.096331675,-877
22.13797418,2398,-302.5092318,-32768,11840,361.328125,-8.234809412,-892
22.24875637,2410,-302.5092318,-32768,11968,365.234375,-8.087099826,-876
22.23029267,2408,-302.5092318,-32768,12096,369.140625,-8.059404279,-873
22.27645192,2413,-302.5092318,-32768,12224,373.046875,-8.013245033,-868
22.21182897,2406,-302.5092318,-32768,12352,376.953125,-8.114795373,-879
22.16566973,2401,-302.5092318,-32768,12480,380.859375,-8.188650166,-887
22.26722007,2412,-302.5092318,-32768,12608,384.765625,-8.059404279,-873
22.30414747,2416,-302.5092318,-32768,12736,388.671875,-8.031708731,-870
22.37800226,2424,-302.5092318,-32768,12864,392.578125,-7.994781335,-866
22.23952452,2409,-302.5092318,-32768,12992,396.484375,-8.096331675,-877
22.23029267,2408,-302.5092318,-32768,13120,400.390625,-8.142490921,-882
22.18413343,2403,-302.5092318,-32768,13248,404.296875,-8.133259072,-881
22.23029267,2408,-302.5092318,-32768,13376,408.203125,-8.105563524,-878
22.27645192,2413,-302.5092318,-32768,13504,412.109375,-7.994781335,-866
22.25798822,2411,-302.5092318,-32768,13632,416.015625,-8.096331675,-877
22.19336528,2404,-302.5092318,-32768,13760,419.921875,-8.114795373,-879
22.14720603,2399,-302.5092318,-32768,13888,423.828125,-8.179418317,-886
22.16566973,2401,-302.5092318,-32768,14016,427.734375,-8.160954619,-884
22.25798822,2411,-302.5092318,-32768,14144,431.640625,-8.004013184,-867
22.21182897,2406,-302.5092318,-32768,14272,435.546875,-8.087099826,-876
22.22106082,2407,-302.5092318,-32768,14400,439.453125,-8.114795373,-879
22.21182897,2406,-302.5092318,-32768,14528,443.359375,-8.114795373,-879
22.19336528,2404,-302.5092318,-32768,14656,447.265625,-8.142490921,-882
22.30414747,2416,-302.5092318,-32768,14784,451.171875,-7.967085788,-863
22.25798822,2411,-302.5092318,-32768,14912,455.078125,-8.04094058,-871
22.35030671,2421,-302.5092318,-32768,15040,458.984375,-7.994781335,-866
22.18413343,2403,-302.5092318,-32768,15168,462.890625,-8.15172277,-883
22.20259713,2405,-302.5092318,-32768,15296,466.796875,-8.133259072,-881
22.24875637,2410,-302.5092318,-32768,15424,470.703125,-8.059404279,-873
22.20259713,2405,-302.5092318,-32768,15552,474.609375,-8.114795373,-879
22.23029267,2408,-302.5092318,-32768,15680,478.515625,-8.124027223,-880
22.19336528,2404,-302.5092318,-32768,15808,482.421875,-8.188650166,-887
22.27645192,2413,-302.5092318,-32768,15936,486.328125,-8.077867977,-875
22.32261116,2418,-302.5092318,-32768,16064,490.234375,-8.013245033,-868
22.28568377,2414,-302.5092318,-32768,16192,494.140625,-8.05017243,-872
22.26722007,2412,-302.5092318,-32768,16320,498.046875,-8.059404279,-873
22.21182897,2406,-302.5092318,-32768,16448,501.953125,-8.133259072,-881
22.32261116,2418,-302.5092318,-32768,16576,505.859375,-8.031708731,-870
22.38723411,2425,-302.5092318,-32768,16704,509.765625,-8.004013184,-867
22.30414747,2416,-302.5092318,-32768,16832,513.671875,-8.059404279,-873
22.26722007,2412,-302.5092318,-32768,16960,517.578125,-8.105563524,-878
22.19336528,2404,-302.5092318,-32768,17088,521.484375,-8.216345714,-890
22.27645192,2413,-302.5092318,-32768,17216,525.390625,-8.05017243,-872
22.30414747,2416,-302.5092318,-32768,17344,529.296875,-8.04094058,-871
22.30414747,2416,-302.5092318,-32768,17472,533.203125,-7.976317637,-864
22.20259713,2405,-302.5092318,-32768,17600,537.109375,-8.068636128,-874
22.19336528,2404,-302.5092318,-32768,17728,541.015625,-8.133259072,-881
22.18413343,2403,-302.5092318,-32768,17856,544.921875,-8.096331675,-877
22.21182897,2406,-302.5092318,-32768,17984,548.828125,-8.04094058,-871
22.30414747,2416,-302.5092318,-32768,18112,552.734375,-7.957853938,-862
22.22106082,2407,-302.5092318,-32768,18240,556.640625,-8.077867977,-875
22.11027863,2395,-302.5092318,-32768,18368,560.546875,-8.179418317,-886
22.16566973,2401,-302.5092318,-32768,18496,564.453125,-8.114795373,-879
22.15643788,2400,-302.5092318,-32768,18624,568.359375,-8.114795373,-879
22.23952452,2409,-302.5092318,-32768,18752,572.265625,-7.994781335,-866
22.17490158,2402,-302.5092318,-32768,18880,576.171875,-8.096331675,-877
22.10104678,2394,-302.5092318,-32768,19008,580.078125,-8.15172277,-883
22.06411939,2390,-302.5092318,-32768,19136,583.984375,-8.179418317,-886
22.08258309,2392,-302.5092318,-32768,19264,587.890625,-8.188650166,-887
22.28568377,2414,-302.5092318,-32768,19392,591.796875,-7.976317637,-864
22.18413343,2403,-302.5092318,-32768,19520,595.703125,-8.077867977,-875
22.11951048,2396,-302.5092318,-32768,19648,599.609375,-8.142490921,-882
22.13797418,2398,-302.5092318,-32768,19776,603.515625,-8.133259072,-881
22.15643788,2400,-302.5092318,-32768,19904,607.421875,-8.087099826,-876
22.18413343,2403,-302.5092318,-32768,20032,611.328125,-8.031708731,-870
22.11951048,2396,-302.5092318,-32768,20160,615.234375,-8.105563524,-878
22.14720603,2399,-302.5092318,-32768,20288,619.140625,-8.087099826,-876
22.06411939,2390,-302.5092318,-32768,20416,623.046875,-8.188650166,-887
22.11027863,2395,-302.5092318,-32768,20544,626.953125,-8.15172277,-883
22.19336528,2404,-302.5092318,-32768,20672,630.859375,-8.031708731,-870
22.13797418,2398,-302.5092318,-32768,20800,634.765625,-8.096331675,-877
22.12874233,2397,-302.5092318,-32768,20928,638.671875,-8.114795373,-879
22.06411939,2390,-302.5092318,-32768,21056,642.578125,-8.234809412,-892
22.00872829,2384,-302.5092318,-32768,21184,646.484375,-8.197882015,-888
21.8979461,2372,-302.5092318,-32768,21312,650.390625,-8.234809412,-892
21.8979461,2372,-302.5092318,-32768,21440,654.296875,-8.004013184,-867
22.02719199,2386,-302.5092318,-32768,21568,658.203125,-7.717825861,-836
22.23029267,2408,-302.5092318,-32768,21696,662.109375,-7.551652577,-818
22.4980163,2437,-302.5092318,-32768,21824,666.015625,-7.477797784,-810
22.39646596,2426,-302.5092318,-32768,21952,669.921875,-7.394711142,-801
22.67342143,2456,-302.5092318,-32768,22080,673.828125,-7.62550737,-826
22.59033479,2447,-302.5092318,-32768,22208,677.734375,-7.810144353,-846
22.47032075,2434,-302.5092318,-32768,22336,681.640625,-8.04094058,-871
22.35953856,2422,-302.5092318,-32768,22464,685.546875,-8.447141942,-915
22.16566973,2401,-302.5092318,-32768,22592,689.453125,-8.539460433,-925
22.02719199,2386,-302.5092318,-32768,22720,693.359375,-8.456373791,-916
21.86101871,2368,-302.5092318,-32768,22848,697.265625,-8.474837489,-918
22.07335124,2391,-302.5092318,-32768,22976,701.171875,-8.3640553,-906
22.04565569,2388,-302.5092318,-32768,23104,705.078125,-8.225577563,-891
22.11951048,2396,-302.5092318,-32768,23232,708.984375,-8.160954619,-884
22.17490158,2402,-302.5092318,-32768,23360,712.890625,-8.031708731,-870
22.11027863,2395,-302.5092318,-32768,23488,716.796875,-8.114795373,-879
22.06411939,2390,-302.5092318,-32768,23616,720.703125,-8.160954619,-884
22.06411939,2390,-302.5092318,-32768,23744,724.609375,-8.15172277,-883
22.11951048,2396,-302.5092318,-32768,23872,728.515625,-8.077867977,-875
22.18413343,2403,-302.5092318,-32768,24000,732.421875,-7.957853938,-862
22.12874233,2397,-302.5092318,-32768,24128,736.328125,-8.04094058,-871
22.15643788,2400,-302.5092318,-32768,24256,740.234375,-8.05017243,-872
22.11951048,2396,-302.5092318,-32768,24384,744.140625,-8.096331675,-877
22.10104678,2394,-302.5092318,-32768,24512,748.046875,-8.05017243,-872
22.18413343,2403,-302.5092318,-32768,24640,751.953125,-7.948622089,-861
22.11027863,2395,-302.5092318,-32768,24768,755.859375,-8.068636128,-874
22.11027863,2395,-302.5092318,-32768,24896,759.765625,-8.031708731,-870
22.02719199,2386,-302.5092318,-32768,25024,763.671875,-8.15172277,-883
22.10104678,2394,-302.5092318,-32768,25152,767.578125,-8.077867977,-875
22.18413343,2403,-302.5092318,-32768,25280,771.484375,-7.957853938,-862
22.10104678,2394,-302.5092318,-32768,25408,775.390625,-8.022476882,-869
22.05488754,2389,-302.5092318,-32768,25536,779.296875,-8.05017243,-872
22.00872829,2384,-302.5092318,-32768,25664,783.203125,-8.170186468,-885
22.06411939,2390,-302.5092318,-32768,25792,787.109375,-8.077867977,-875
22.10104678,2394,-302.5092318,-32768,25920,791.015625,-8.004013184,-867
22.03642384,2387,-302.5092318,-32768,26048,794.921875,-8.05017243,-872
22.20259713,2405,-302.5092318,-32768,26176,798.828125,-8.004013184,-867
22.07335124,2391,-302.5092318,-32768,26304,802.734375,-8.068636128,-874
22.13797418,2398,-302.5092318,-32768,26432,806.640625,-7.985549486,-865
22.19336528,2404,-302.5092318,-32768,26560,810.546875,-7.976317637,-864
22.11027863,2395,-302.5092318,-32768,26688,814.453125,-8.022476882,-869
22.11027863,2395,-302.5092318,-32768,26816,818.359375,-8.022476882,-869
22.03642384,2387,-302.5092318,-32768,26944,822.265625,-8.114795373,-879
22.18413343,2403,-302.5092318,-32768,27072,826.171875,-8.004013184,-867
22.08258309,2392,-302.5092318,-32768,27200,830.078125,-7.994781335,-866
22.11951048,2396,-302.5092318,-32768,27328,833.984375,-7.994781335,-866
22.11951048,2396,-302.5092318,-32768,27456,837.890625,-8.031708731,-870
22.07335124,2391,-302.5092318,-32768,27584,841.796875,-8.05017243,-872
22.08258309,2392,-302.5092318,-32768,27712,845.703125,-8.004013184,-867
22.16566973,2401,-302.5092318,-32768,27840,849.609375,-7.967085788,-863
22.21182897,2406,-302.5092318,-32768,27968,853.515625,-7.856303598,-851
22.14720603,2399,-302.5092318,-32768,28096,857.421875,-7.948622089,-861
22.08258309,2392,-302.5092318,-32768,28224,861.328125,-8.022476882,-869
22.01796014,2385,-302.5092318,-32768,28352,865.234375,-8.068636128,-874
22.12874233,2397,-302.5092318,-32768,28480,869.140625,-7.985549486,-865
22.19336528,2404,-302.5092318,-32768,28608,873.046875,-7.856303598,-851
22.12874233,2397,-302.5092318,-32768,28736,876.953125,-7.948622089,-861
22.14720603,2399,-302.5092318,-32768,28864,880.859375,-7.93939024,-860
22.11951048,2396,-302.5092318,-32768,28992,884.765625,-7.957853938,-862
22.18413343,2403,-302.5092318,-32768,29120,888.671875,-7.930158391,-859
22.27645192,2413,-302.5092318,-32768,29248,892.578125,-7.800912503,-845
22.19336528,2404,-302.5092318,-32768,29376,896.484375,-7.911694693,-857
22.17490158,2402,-302.5092318,-32768,29504,900.390625,-7.920926542,-858
22.23029267,2408,-302.5092318,-32768,29632,904.296875,-7.902462844,-856
22.21182897,2406,-302.5092318,-32768,29760,908.203125,-7.911694693,-857
22.28568377,2414,-302.5092318,-32768,29888,912.109375,-7.782448805,-843
22.37800226,2424,-302.5092318,-32768,30016,916.015625,-7.73628956,-838
22.28568377,2414,-302.5092318,-32768,30144,919.921875,-7.810144353,-846
22.20259713,2405,-302.5092318,-32768,30272,923.828125,-7.976317637,-864
22.21182897,2406,-302.5092318,-32768,30400,927.734375,-7.930158391,-859
22.27645192,2413,-302.5092318,-32768,30528,931.640625,-7.856303598,-851
22.25798822,2411,-302.5092318,-32768,30656,935.546875,-7.902462844,-856
22.22106082,2407,-302.5092318,-32768,30784,939.453125,-7.920926542,-858
22.27645192,2413,-302.5092318,-32768,30912,943.359375,-7.93939024,-860
22.30414747,2416,-302.5092318,-32768,31040,947.265625,-7.883999145,-854
22.29491562,2415,-302.5092318,-32768,31168,951.171875,-7.874767296,-853
22.27645192,2413,-302.5092318,-32768,31296,955.078125,-7.865535447,-852
22.24875637,2410,-302.5092318,-32768,31424,958.984375,-7.93939024,-860
22.18413343,2403,-302.5092318,-32768,31552,962.890625,-8.04094058,-871
22.19336528,2404,-302.5092318,-32768,31680,966.796875,-7.967085788,-863
22.18413343,2403,-302.5092318,-32768,31808,970.703125,-7.948622089,-861
22.22106082,2407,-302.5092318,-32768,31936,974.609375,-7.911694693,-857
22.22106082,2407,-302.5092318,-32768,32064,978.515625,-7.957853938,-862
22.12874233,2397,-302.5092318,-32768,32192,982.421875,-8.096331675,-877
22.05488754,2389,-302.5092318,-32768,32320,986.328125,-8.05017243,-872
22.11027863,2395,-302.5092318,-32768,32448,990.234375,-8.059404279,-873
22.16566973,2401,-302.5092318,-32768,32576,994.140625,-7.957853938,-862
22.03642384,2387,-302.5092318,-32768,32704,998.046875,-8.068636128,-874
22.05488754,2389,-302.5092318,-32768,32832,1001.953125,-8.105563524,-878
22.14720603,2399,-302.5092318,-32768,32960,1005.859375,-7.994781335,-866
22.10104678,2394,-302.5092318,-32768,33088,1009.765625,-8.059404279,-873
22.19336528,2404,-302.5092318,-32768,33216,1013.671875,-7.930158391,-859
22.05488754,2389,-302.5092318,-32768,33344,1017.578125,-8.087099826,-876
22.02719199,2386,-302.5092318,-32768,33472,1021.484375,-8.133259072,-881
22.05488754,2389,-302.5092318,-32768,33600,1025.390625,-8.087099826,-876
22.05488754,2389,-302.5092318,-32768,33728,1029.296875,-8.077867977,-875
22.13797418,2398,-302.5092318,-32768,33856,1033.203125,-7.976317637,-864
22.05488754,2389,-302.5092318,-32768,33984,1037.109375,-8.087099826,-876
22.05488754,2389,-302.5092318,-32768,34112,1041.015625,-8.059404279,-873
22.04565569,2388,-302.5092318,-32768,34240,1044.921875,-8.105563524,-878
22.06411939,2390,-302.5092318,-32768,34368,1048.828125,-8.096331675,-877
22.11027863,2395,-302.5092318,-32768,34496,1052.734375,-8.013245033,-868
22.04565569,2388,-302.5092318,-32768,34624,1056.640625,-8.077867977,-875
22.11027863,2395,-302.5092318,-32768,34752,1060.546875,-8.031708731,-870
22.08258309,2392,-302.5092318,-32768,34880,1064.453125,-8.077867977,-875
22.10104678,2394,-302.5092318,-32768,35008,1068.359375,-8.031708731,-870
22.12874233,2397,-302.5092318,-32768,35136,1072.265625,-7.994781335,-866
22.16566973,2401,-302.5092318,-32768,35264,1076.171875,-8.031708731,-870
22.04565569,2388,-302.5092318,-32768,35392,1080.078125,-8.077867977,-875
22.01796014,2385,-302.5092318,-32768,35520,1083.984375,-8.188650166,-887
22.07335124,2391,-302.5092318,-32768,35648,1087.890625,-8.087099826,-876
22.09181494,2393,-302.5092318,-32768,35776,1091.796875,-8.077867977,-875
22.05488754,2389,-302.5092318,-32768,35904,1095.703125,-8.04094058,-871
22.12874233,2397,-302.5092318,-32768,36032,1099.609375,-8.013245033,-868
22.07335124,2391,-302.5092318,-32768,36160,1103.515625,-8.114795373,-879
22.07335124,2391,-302.5092318,-32768,36288,1107.421875,-8.068636128,-874
22.13797418,2398,-302.5092318,-32768,36416,1111.328125,-8.05017243,-872
22.26722007,2412,-302.5092318,-32768,36544,1115.234375,-7.948622089,-861
22.19336528,2404,-302.5092318,-32768,36672,1119.140625,-7.994781335,-866
22.01796014,2385,-302.5092318,-32768,36800,1123.046875,-8.160954619,-884
22.05488754,2389,-302.5092318,-32768,36928,1126.953125,-8.105563524,-878
22.00872829,2384,-302.5092318,-32768,37056,1130.859375,-8.133259072,-881
22.16566973,2401,-302.5092318,-32768,37184,1134.765625,-8.004013184,-867
22.12874233,2397,-302.5092318,-32768,37312,1138.671875,-8.031708731,-870
22.07335124,2391,-302.5092318,-32768,37440,1142.578125,-8.096331675,-877
22.08258309,2392,-302.5092318,-32768,37568,1146.484375,-8.077867977,-875
22.06411939,2390,-302.5092318,-32768,37696,1150.390625,-8.142490921,-882
22.08258309,2392,-302.5092318,-32768,37824,1154.296875,-8.022476882,-869
22.11951048,2396,-302.5092318,-32768,37952,1158.203125,-8.05017243,-872
22.07335124,2391,-302.5092318,-32768,38080,1162.109375,-8.124027223,-880
22.00872829,2384,-302.5092318,-32768,38208,1166.015625,-8.114795373,-879
22.09181494,2393,-302.5092318,-32768,38336,1169.921875,-8.059404279,-873
22.17490158,2402,-302.5092318,-32768,38464,1173.828125,-7.948622089,-861
22.04565569,2388,-302.5092318,-32768,38592,1177.734375,-8.077867977,-875
22.09181494,2393,-302.5092318,-32768,38720,1181.640625,-8.077867977,-875
22.01796014,2385,-302.5092318,-32768,38848,1185.546875,-8.142490921,-882
22.05488754,2389,-302.5092318,-32768,38976,1189.453125,-8.114795373,-879
22.12874233,2397,-302.5092318,-32768,39104,1193.359375,-7.985549486,-865
22.04565569,2388,-302.5092318,-32768,39232,1197.265625,-8.096331675,-877
22.05488754,2389,-302.5092318,-32768,39360,1201.171875,-8.105563524,-878
22.01796014,2385,-302.5092318,-32768,39488,1205.078125,-8.124027223,-880
22.01796014,2385,-302.5092318,-32768,39616,1208.984375,-8.124027223,-880
22.12874233,2397,-302.5092318,-32768,39744,1212.890625,-7.985549486,-865
22.11027863,2395,-302.5092318,-32768,39872,1216.796875,-8.05017243,-872
22.10104678,2394,-302.5092318,-32768,40000,1220.703125,-8.068636128,-874
21.9718009,2380,-302.5092318,-32768,40128,1224.609375,-8.197882015,-888
22.07335124,2391,-302.5092318,-32768,40256,1228.515625,-8.05017243,-872
22.05488754,2389,-302.5092318,-32768,40384,1232.421875,-8.068636128,-874
21.9718009,2380,-302.5092318,-32768,40512,1236.328125,-8.142490921,-882
22.05488754,2389,-302.5092318,-32768,40640,1240.234375,-8.105563524,-878
22.00872829,2384,-302.5092318,-32768,40768,1244.140625,-8.15172277,-883
22.04565569,2388,-302.5092318,-32768,40896,1248.046875,-8.059404279,-873
22.11951048,2396,-302.5092318,-32768,41024,1251.953125,-8.031708731,-870
22.03642384,2387,-302.5092318,-32768,41152,1255.859375,-8.068636128,-874
22.04565569,2388,-302.5092318,-32768,41280,1259.765625,-8.087099826,-876
21.9533372,2378,-302.5092318,-32768,41408,1263.671875,-8.142490921,-882
22.04565569,2388,-302.5092318,-32768,41536,1267.578125,-8.077867977,-875
22.04565569,2388,-302.5092318,-32768,41664,1271.484375,-8.05017243,-872
21.99949644,2383,-302.5092318,-32768,41792,1275.390625,-8.077867977,-875
22.02719199,2386,-302.5092318,-32768,41920,1279.296875,-8.087099826,-876
21.9902646,2382,-302.5092318,-32768,42048,1283.203125,-8.142490921,-882
22.07335124,2391,-302.5092318,-32768,42176,1287.109375,-8.059404279,-873
22.09181494,2393,-302.5092318,-32768,42304,1291.015625,-8.022476882,-869
22.03642384,2387,-302.5092318,-32768,42432,1294.921875,-8.04094058,-871
21.99949644,2383,-302.5092318,-32768,42560,1298.828125,-8.124027223,-880
21.96256905,2379,-302.5092318,-32768,42688,1302.734375,-8.170186468,-885
22.02719199,2386,-302.5092318,-32768,42816,1306.640625,-8.124027223,-880
21.99949644,2383,-302.5092318,-32768,42944,1310.546875,-8.096331675,-877
22.16566973,2401,-302.5092318,-32768,43072,1314.453125,-7.976317637,-864
22.06411939,2390,-302.5092318,-32768,43200,1318.359375,-8.087099826,-876
21.9902646,2382,-302.5092318,-32768,43328,1322.265625,-8.179418317,-886
21.99949644,2383,-302.5092318,-32768,43456,1326.171875,-8.142490921,-882
22.11951048,2396,-302.5092318,-32768,43584,1330.078125,-8.068636128,-874
22.20259713,2405,-302.5092318,-32768,43712,1333.984375,-7.93939024,-860
22.12874233,2397,-302.5092318,-32768,43840,1337.890625,-8.022476882,-869
22.14720603,2399,-302.5092318,-32768,43968,1341.796875,-8.05017243,-872
22.07335124,2391,-302.5092318,-32768,44096,1345.703125,-8.105563524,-878
22.06411939,2390,-302.5092318,-32768,44224,1349.609375,-8.087099826,-876
22.16566973,2401,-302.5092318,-32768,44352,1353.515625,-7.985549486,-865
22.03642384,2387,-302.5092318,-32768,44480,1357.421875,-8.142490921,-882
22.08258309,2392,-302.5092318,-32768,44608,1361.328125,-8.124027223,-880
22.08258309,2392,-302.5092318,-32768,44736,1365.234375,-8.142490921,-882
22.13797418,2398,-302.5092318,-32768,44864,1369.140625,-8.059404279,-873
22.20259713,2405,-302.5092318,-32768,44992,1373.046875,-8.004013184,-867
22.16566973,2401,-302.5092318,-32768,45120,1376.953125,-8.004013184,-867
22.13797418,2398,-302.5092318,-32768,45248,1380.859375,-7.994781335,-866
22.01796014,2385,-302.5092318,-32768,45376,1384.765625,-8.105563524,-878
22.01796014,2385,-302.5092318,-32768,45504,1388.671875,-8.087099826,-876
22.10104678,2394,-302.5092318,-32768,45632,1392.578125,-7.976317637,-864
22.09181494,2393,-302.5092318,-32768,45760,1396.484375,-8.04094058,-871
22.01796014,2385,-302.5092318,-32768,45888,1400.390625,-8.059404279,-873
21.98103275,2381,-302.5092318,-32768,46016,1404.296875,-8.188650166,-887
22.01796014,2385,-302.5092318,-32768,46144,1408.203125,-8.105563524,-878
22.02719199,2386,-302.5092318,-32768,46272,1412.109375,-8.077867977,-875
22.11027863,2395,-302.5092318,-32768,46400,1416.015625,-8.004013184,-867
22.00872829,2384,-302.5092318,-32768,46528,1419.921875,-8.068636128,-874
21.99949644,2383,-302.5092318,-32768,46656,1423.828125,-8.160954619,-884
21.9902646,2382,-302.5092318,-32768,46784,1427.734375,-8.142490921,-882
21.9902646,2382,-302.5092318,-32768,46912,1431.640625,-8.105563524,-878
22.01796014,2385,-302.5092318,-32768,47040,1435.546875,-8.059404279,-873
21.98103275,2381,-302.5092318,-32768,47168,1439.453125,-8.087099826,-876
21.9902646,2382,-302.5092318,-32768,47296,1443.359375,-8.179418317,-886
22.02719199,2386,-302.5092318,-32768,47424,1447.265625,-8.105563524,-878
21.9902646,2382,-302.5092318,-32768,47552,1451.171875,-8.105563524,-878
22.01796014,2385,-302.5092318,-32768,47680,1455.078125,-8.05017243,-872
21.98103275,2381,-302.5092318,-32768,47808,1458.984375,-8.114795373,-879
21.92564165,2375,-302.5092318,-32768,47936,1462.890625,-8.179418317,-886
22.04565569,2388,-302.5092318,-32768,48064,1466.796875,-8.068636128,-874
22.00872829,2384,-302.5092318,-32768,48192,1470.703125,-8.096331675,-877
22.07335124,2391,-302.5092318,-32768,48320,1474.609375,-7.994781335,-866
21.92564165,2375,-302.5092318,-32768,48448,1478.515625,-8.160954619,-884
21.88871426,2371,-302.5092318,-32768,48576,1482.421875,-8.262504959,-895
21.9348735,2376,-302.5092318,-32768,48704,1486.328125,-8.216345714,-890
21.82409131,2364,-302.5092318,-32768,48832,1490.234375,-8.262504959,-895
21.87948241,2370,-302.5092318,-32768,48960,1494.140625,-8.160954619,-884
21.80562761,2362,-302.5092318,-32768,49088,1498.046875,-8.04094058,-871
21.90717795,2373,-302.5092318,-32768,49216,1501.953125,-7.800912503,-845
22.05488754,2389,-302.5092318,-32768,49344,1505.859375,-7.560884426,-819
22.37800226,2424,-302.5092318,-32768,49472,1509.765625,-7.542420728,-817
22.34107486,2420,-302.5092318,-32768,49600,1513.671875,-7.283928953,-789
22.56263924,2444,-302.5092318,-32768,49728,1517.578125,-7.597811823,-823
22.4610889,2433,-302.5092318,-32768,49856,1521.484375,-7.800912503,-845
22.24875637,2410,-302.5092318,-32768,49984,1525.390625,-8.105563524,-878
22.17490158,2402,-302.5092318,-32768,50112,1529.296875,-8.428678243,-913
22.16566973,2401,-302.5092318,-32768,50240,1533.203125,-8.410214545,-911
22.01796014,2385,-302.5092318,-32768,50368,1537.109375,-8.474837489,-918
21.84255501,2366,-302.5092318,-32768,50496,1541.015625,-8.456373791,-916
21.86101871,2368,-302.5092318,-32768,50624,1544.921875,-8.428678243,-913
21.9718009,2380,-302.5092318,-32768,50752,1548.828125,-8.244041261,-893
21.98103275,2381,-302.5092318,-32768,50880,1552.734375,-8.188650166,-887
21.9902646,2382,-302.5092318,-32768,51008,1556.640625,-8.124027223,-880
21.9718009,2380,-302.5092318,-32768,51136,1560.546875,-8.105563524,-878
21.9164098,2374,-302.5092318,-32768,51264,1564.453125,-8.207113865,-889
21.9718009,2380,-302.5092318,-32768,51392,1568.359375,-8.124027223,-880
21.9164098,2374,-302.5092318,-32768,51520,1572.265625,-8.124027223,-880
22.02719199,2386,-302.5092318,-32768,51648,1576.171875,-8.031708731,-870
21.98103275,2381,-302.5092318,-32768,51776,1580.078125,-8.087099826,-876
21.87948241,2370,-302.5092318,-32768,51904,1583.984375,-8.188650166,-887
21.98103275,2381,-302.5092318,-32768,52032,1587.890625,-8.087099826,-876
22.04565569,2388,-302.5092318,-32768,52160,1591.796875,-8.087099826,-876
22.00872829,2384,-302.5092318,-32768,52288,1595.703125,-8.004013184,-867
22.00872829,2384,-302.5092318,-32768,52416,1599.609375,-8.04094058,-871
21.86101871,2368,-302.5092318,-32768,52544,1603.515625,-8.179418317,-886
21.94410535,2377,-302.5092318,-32768,52672,1607.421875,-8.105563524,-878
21.92564165,2375,-302.5092318,-32768,52800,1611.328125,-8.124027223,-880
22.02719199,2386,-302.5092318,-32768,52928,1615.234375,-7.985549486,-865
21.94410535,2377,-302.5092318,-32768,53056,1619.140625,-8.087099826,-876
21.9533372,2378,-302.5092318,-32768,53184,1623.046875,-8.096331675,-877
21.99949644,2383,-302.5092318,-32768,53312,1626.953125,-8.068636128,-874
21.94410535,2377,-302.5092318,-32768,53440,1630.859375,-8.068636128,-874
22.09181494,2393,-302.5092318,-32768,53568,1634.765625,-7.902462844,-856
22.04565569,2388,-302.5092318,-32768,53696,1638.671875,-8.031708731,-870
22.03642384,2387,-302.5092318,-32768,53824,1642.578125,-7.994781335,-866
21.9718009,2380,-302.5092318,-32768,53952,1646.484375,-8.05017243,-872
22.04565569,2388,-302.5092318,-32768,54080,1650.390625,-7.994781335,-866
22.03642384,2387,-302.5092318,-32768,54208,1654.296875,-7.957853938,-862
21.9718009,2380,-302.5092318,-32768,54336,1658.203125,-8.05017243,-872
21.9348735,2376,-302.5092318,-32768,54464,1662.109375,-8.087099826,-876
21.9348735,2376,-302.5092318,-32768,54592,1666.015625,-8.15172277,-883
21.92564165,2375,-302.5092318,-32768,54720,1669.921875,-8.04094058,-871
22.00872829,2384,-302.5092318,-32768,54848,1673.828125,-7.985549486,-865
21.9902646,2382,-302.5092318,-32768,54976,1677.734375,-8.031708731,-870
21.99949644,2383,-302.5092318,-32768,55104,1681.640625,-8.022476882,-869
21.92564165,2375,-302.5092318,-32768,55232,1685.546875,-8.124027223,-880
21.9718009,2380,-302.5092318,-32768,55360,1689.453125,-8.05017243,-872
22.06411939,2390,-302.5092318,-32768,55488,1693.359375,-7.976317637,-864
21.99949644,2383,-302.5092318,-32768,55616,1697.265625,-7.985549486,-865
21.98103275,2381,-302.5092318,-32768,55744,1701.171875,-8.004013184,-867
21.96256905,2379,-302.5092318,-32768,55872,1705.078125,-8.096331675,-877
22.04565569,2388,-302.5092318,-32768,56000,1708.984375,-8.004013184,-867
22.09181494,2393,-302.5092318,-32768,56128,1712.890625,-7.865535447,-852
22.07335124,2391,-302.5092318,-32768,56256,1716.796875,-7.911694693,-857
21.9718009,2380,-302.5092318,-32768,56384,1720.703125,-7.994781335,-866
22.06411939,2390,-302.5092318,-32768,56512,1724.609375,-7.957853938,-862
22.07335124,2391,-302.5092318,-32768,56640,1728.515625,-7.930158391,-859
22.05488754,2389,-302.5092318,-32768,56768,1732.421875,-7.930158391,-859
22.12874233,2397,-302.5092318,-32768,56896,1736.328125,-7.8378399,-849
22.06411939,2390,-302.5092318,-32768,57024,1740.234375,-7.930158391,-859
21.92564165,2375,-302.5092318,-32768,57152,1744.140625,-8.05017243,-872
22.09181494,2393,-302.5092318,-32768,57280,1748.046875,-7.902462844,-856
22.09181494,2393,-302.5092318,-32768,57408,1751.953125,-7.893230995,-855
22.14720603,2399,-302.5092318,-32768,57536,1755.859375,-7.828608051,-848
22.11951048,2396,-302.5092318,-32768,57664,1759.765625,-7.893230995,-855
22.15643788,2400,-302.5092318,-32768,57792,1763.671875,-7.911694693,-857
22.16566973,2401,-302.5092318,-32768,57920,1767.578125,-7.883999145,-854
22.15643788,2400,-302.5092318,-32768,58048,1771.484375,-7.874767296,-853
22.15643788,2400,-302.5092318,-32768,58176,1775.390625,-7.810144353,-846
22.08258309,2392,-302.5092318,-32768,58304,1779.296875,-7.920926542,-858
22.05488754,2389,-302.5092318,-32768,58432,1783.203125,-7.985549486,-865
22.03642384,2387,-302.5092318,-32768,58560,1787.109375,-7.976317637,-864
22.15643788,2400,-302.5092318,-32768,58688,1791.015625,-7.967085788,-863
22.24875637,2410,-302.5092318,-32768,58816,1794.921875,-7.819376202,-847
22.13797418,2398,-302.5092318,-32768,58944,1798.828125,-7.893230995,-855
22.12874233,2397,-302.5092318,-32768,59072,1802.734375,-7.930158391,-859
22.10104678,2394,-302.5092318,-32768,59200,1806.640625,-8.04094058,-871
22.02719199,2386,-302.5092318,-32768,59328,1810.546875,-8.04094058,-871
22.23029267,2408,-302.5092318,-32768,59456,1814.453125,-7.828608051,-848
22.03642384,2387,-302.5092318,-32768,59584,1818.359375,-8.013245033,-868
22.03642384,2387,-302.5092318,-32768,59712,1822.265625,-8.013245033,-868
21.9902646,2382,-302.5092318,-32768,59840,1826.171875,-8.068636128,-874
22.04565569,2388,-302.5092318,-32768,59968,1830.078125,-8.031708731,-870
22.05488754,2389,-302.5092318,-32768,60096,1833.984375,-7.948622089,-861
22.02719199,2386,-302.5092318,-32768,60224,1837.890625,-8.004013184,-867
22.01796014,2385,-302.5092318,-32768,60352,1841.796875,-8.022476882,-869
21.88871426,2371,-302.5092318,-32768,60480,1845.703125,-8.170186468,-885
21.9902646,2382,-302.5092318,-32768,60608,1849.609375,-8.05017243,-872
22.04565569,2388,-302.5092318,-32768,60736,1853.515625,-8.004013184,-867
21.98103275,2381,-302.5092318,-32768,60864,1857.421875,-8.013245033,-868
21.9718009,2380,-302.5092318,-32768,60992,1861.328125,-8.05017243,-872
21.88871426,2371,-302.5092318,-32768,61120,1865.234375,-8.188650166,-887
21.9348735,2376,-302.5092318,-32768,61248,1869.140625,-8.142490921,-882
21.98103275,2381,-302.5092318,-32768,61376,1873.046875,-8.059404279,-873
21.94410535,2377,-302.5092318,-32768,61504,1876.953125,-8.059404279,-873
21.9533372,2378,-302.5092318,-32768,61632,1880.859375,-8.077867977,-875
21.87948241,2370,-302.5092318,-32768,61760,1884.765625,-8.216345714,-890
21.9533372,2378,-302.5092318,-32768,61888,1888.671875,-8.105563524,-878
22.01796014,2385,-302.5092318,-32768,62016,1892.578125,-8.04094058,-871
22.02719199,2386,-302.5092318,-32768,62144,1896.484375,-7.985549486,-865
21.9718009,2380,-302.5092318,-32768,62272,1900.390625,-8.077867977,-875
21.9533372,2378,-302.5092318,-32768,62400,1904.296875,-8.133259072,-881
21.94410535,2377,-302.5092318,-32768,62528,1908.203125,-8.105563524,-878
21.9164098,2374,-302.5092318,-32768,62656,1912.109375,-8.133259072,-881
21.98103275,2381,-302.5092318,-32768,62784,1916.015625,-8.031708731,-870
21.9718009,2380,-302.5092318,-32768,62912,1919.921875,-8.068636128,-874
21.98103275,2381,-302.5092318,-32768,63040,1923.828125,-8.105563524,-878
21.96256905,2379,-302.5092318,-32768,63168,1927.734375,-8.133259072,-881
21.99949644,2383,-302.5092318,-32768,63296,1931.640625,-8.059404279,-873
22.07335124,2391,-302.5092318,-32768,63424,1935.546875,-7.93939024,-860
21.99949644,2383,-302.5092318,-32768,63552,1939.453125,-8.05017243,-872
22.00872829,2384,-302.5092318,-32768,63680,1943.359375,-8.077867977,-875
22.07335124,2391,-302.5092318,-32768,63808,1947.265625,-8.059404279,-873
22.02719199,2386,-302.5092318,-32768,63936,1951.171875,-8.04094058,-871
22.03642384,2387,-302.5092318,-32768,64064,1955.078125,-7.985549486,-865
21.98103275,2381,-302.5092318,-32768,64192,1958.984375,-8.077867977,-875
21.99949644,2383,-302.5092318,-32768,64320,1962.890625,-8.068636128,-874
21.9533372,2378,-302.5092318,-32768,64448,1966.796875,-8.142490921,-882
21.98103275,2381,-302.5092318,-32768,64576,1970.703125,-8.105563524,-878
22.08258309,2392,-302.5092318,-32768,64704,1974.609375,-8.013245033,-868
21.9902646,2382,-302.5092318,-32768,64832,1978.515625,-8.087099826,-876
21.9718009,2380,-302.5092318,-32768,64960,1982.421875,-8.077867977,-875
21.94410535,2377,-302.5092318,-32768,65088,1986.328125,-8.142490921,-882
21.98103275,2381,-302.5092318,-32768,65216,1990.234375,-8.068636128,-874
22.02719199,2386,-302.5092318,-32768,65344,1994.140625,-8.013245033,-868
21.9902646,2382,-302.5092318,-32768,65472,1998.046875,-8.087099826,-876
22.00872829,2384,-302.5092318,-32768,64,2001.953125,-8.096331675,-877
21.9348735,2376,-302.5092318,-32768,192,2005.859375,-8.179418317,-886
21.9718009,2380,-302.5092318,-32768,320,2009.765625,-8.105563524,-878
21.9718009,2380,-302.5092318,-32768,448,2013.671875,-8.096331675,-877
22.01796014,2385,-302.5092318,-32768,576,2017.578125,-8.022476882,-869
21.98103275,2381,-302.5092318,-32768,704,2021.484375,-8.068636128,-874
21.92564165,2375,-302.5092318,-32768,832,2025.390625,-8.216345714,-890
21.96256905,2379,-302.5092318,-32768,960,2029.296875,-8.15172277,-883
21.9902646,2382,-302.5092318,-32768,1088,2033.203125,-8.114795373,-879
22.11027863,2395,-302.5092318,-32768,1216,2037.109375,-7.948622089,-861
22.00872829,2384,-302.5092318,-32768,1344,2041.015625,-8.04094058,-871
21.94410535,2377,-302.5092318,-32768,1472,2044.921875,-8.160954619,-884
21.98103275,2381,-302.5092318,-32768,1600,2048.828125,-8.114795373,-879
21.9718009,2380,-302.5092318,-32768,1728,2052.734375,-8.114795373,-879
22.02719199,2386,-302.5092318,-32768,1856,2056.640625,-7.994781335,-866
21.98103275,2381,-302.5092318,-32768,1984,2060.546875,-8.114795373,-879
21.9718009,2380,-302.5092318,-32768,2112,2064.453125,-8.133259072,-881
21.9902646,2382,-302.5092318,-32768,2240,2068.359375,-8.114795373,-879
21.9902646,2382,-302.5092318,-32768,2368,2072.265625,-8.114795373,-879
22.03642384,2387,-302.5092318,-32768,2496,2076.171875,-7.976317637,-864
21.9902646,2382,-302.5092318,-32768,2624,2080.078125,-8.068636128,-874
22.00872829,2384,-302.5092318,-32768,2752,2083.984375,-8.087099826,-876
21.96256905,2379,-302.5092318,-32768,2880,2087.890625,-8.142490921,-882
21.88871426,2371,-302.5092318,-32768,3008,2091.796875,-8.170186468,-885
22.01796014,2385,-302.5092318,-32768,3136,2095.703125,-8.004013184,-867
21.92564165,2375,-302.5092318,-32768,3264,2099.609375,-8.133259072,-881
21.87025056,2369,-302.5092318,-32768,3392,2103.515625,-8.188650166,-887
21.9718009,2380,-302.5092318,-32768,3520,2107.421875,-8.179418317,-886
21.9902646,2382,-302.5092318,-32768,3648,2111.328125,-8.096331675,-877
21.99949644,2383,-302.5092318,-32768,3776,2115.234375,-8.04094058,-871
21.96256905,2379,-302.5092318,-32768,3904,2119.140625,-8.087099826,-876
21.9902646,2382,-302.5092318,-32768,4032,2123.046875,-8.105563524,-878
21.98103275,2381,-302.5092318,-32768,4160,2126.953125,-8.133259072,-881
22.01796014,2385,-302.5092318,-32768,4288,2130.859375,-8.114795373,-879
22.07335124,2391,-302.5092318,-32768,4416,2134.765625,-7.976317637,-864
22.01796014,2385,-302.5092318,-32768,4544,2138.671875,-8.068636128,-874
22.05488754,2389,-302.5092318,-32768,4672,2142.578125,-8.077867977,-875
21.9164098,2374,-302.5092318,-32768,4800,2146.484375,-8.197882015,-888
22.04565569,2388,-302.5092318,-32768,4928,2150.390625,-8.04094058,-871
22.08258309,2392,-302.5092318,-32768,5056,2154.296875,-8.004013184,-867
22.04565569,2388,-302.5092318,-32768,5184,2158.203125,-8.022476882,-869
22.09181494,2393,-302.5092318,-32768,5312,2162.109375,-8.04094058,-871
22.06411939,2390,-302.5092318,-32768,5440,2166.015625,-8.15172277,-883
22.04565569,2388,-302.5092318,-32768,5568,2169.921875,-8.114795373,-879
22.10104678,2394,-302.5092318,-32768,5696,2173.828125,-7.985549486,-865
22.06411939,2390,-302.5092318,-32768,5824,2177.734375,-8.05017243,-872
22.06411939,2390,-302.5092318,-32768,5952,2181.640625,-8.05017243,-872
22.03642384,2387,-302.5092318,-32768,6080,2185.546875,-8.05017243,-872
21.96256905,2379,-302.5092318,-32768,6208,2189.453125,-8.096331675,-877
21.9902646,2382,-302.5092318,-32768,6336,2193.359375,-8.077867977,-875
22.02719199,2386,-302.5092318,-32768,6464,2197.265625,-7.985549486,-865
22.00872829,2384,-302.5092318,-32768,6592,2201.171875,-8.05017243,-872
21.9718009,2380,-302.5092318,-32768,6720,2205.078125,-8.133259072,-881
21.98103275,2381,-302.5092318,-32768,6848,2208.984375,-8.068636128,-874
22.00872829,2384,-302.5092318,-32768,6976,2212.890625,-8.022476882,-869
22.06411939,2390,-302.5092318,-32768,7104,2216.796875,-7.994781335,-866
21.96256905,2379,-302.5092318,-32768,7232,2220.703125,-8.105563524,-878
21.90717795,2373,-302.5092318,-32768,7360,2224.609375,-8.105563524,-878
21.9348735,2376,-302.5092318,-32768,7488,2228.515625,-8.096331675,-877
21.87948241,2370,-302.5092318,-32768,7616,2232.421875,-8.142490921,-882
21.99949644,2383,-302.5092318,-32768,7744,2236.328125,-8.031708731,-870
21.96256905,2379,-302.5092318,-32768,7872,2240.234375,-8.04094058,-871
21.92564165,2375,-302.5092318,-32768,8000,2244.140625,-8.124027223,-880
21.92564165,2375,-302.5092318,-32768,8128,2248.046875,-8.142490921,-882
21.98103275,2381,-302.5092318,-32768,8256,2251.953125,-8.124027223,-880
21.9718009,2380,-302.5092318,-32768,8384,2255.859375,-8.022476882,-869
21.99949644,2383,-302.5092318,-32768,8512,2259.765625,-8.087099826,-876
21.96256905,2379,-302.5092318,-32768,8640,2263.671875,-8.077867977,-875
21.90717795,2373,-302.5092318,-32768,8768,2267.578125,-8.15172277,-883
21.96256905,2379,-302.5092318,-32768,8896,2271.484375,-8.096331675,-877
21.96256905,2379,-302.5092318,-32768,9024,2275.390625,-8.004013184,-867
21.94410535,2377,-302.5092318,-32768,9152,2279.296875,-8.087099826,-876
21.9533372,2378,-302.5092318,-32768,9280,2283.203125,-8.096331675,-877
21.8979461,2372,-302.5092318,-32768,9408,2287.109375,-8.170186468,-885
21.9164098,2374,-302.5092318,-32768,9536,2291.015625,-8.179418317,-886
21.84255501,2366,-302.5092318,-32768,9664,2294.921875,-8.142490921,-882
21.77793207,2359,-302.5092318,-32768,9792,2298.828125,-8.207113865,-889
21.77793207,2359,-302.5092318,-32768,9920,2302.734375,-8.15172277,-883
21.69484542,2350,-302.5092318,-32768,10048,2306.640625,-8.077867977,-875
21.92564165,2375,-302.5092318,-32768,10176,2310.546875,-7.690130314,-833
22.22106082,2407,-302.5092318,-32768,10304,2314.453125,-7.450102237,-807
22.41492965,2428,-302.5092318,-32768,10432,2318.359375,-7.413174841,-803
22.28568377,2414,-302.5092318,-32768,10560,2322.265625,-7.52395703,-815
22.4426252,2431,-302.5092318,-32768,10688,2326.171875,-7.819376202,-847
22.33184301,2419,-302.5092318,-32768,10816,2330.078125,-7.874767296,-853
22.23029267,2408,-302.5092318,-32768,10944,2333.984375,-8.133259072,-881
22.23952452,2409,-302.5092318,-32768,11072,2337.890625,-8.262504959,-895
22.08258309,2392,-302.5092318,-32768,11200,2341.796875,-8.484069338,-919
21.9164098,2374,-302.5092318,-32768,11328,2345.703125,-8.56715598,-928
21.83332316,2365,-302.5092318,-32768,11456,2349.609375,-8.419446394,-912
21.90717795,2373,-302.5092318,-32768,11584,2353.515625,-8.308664205,-900
22.00872829,2384,-302.5092318,-32768,11712,2357.421875,-8.142490921,-882
21.9533372,2378,-302.5092318,-32768,11840,2361.328125,-8.15172277,-883
21.9164098,2374,-302.5092318,-32768,11968,2365.234375,-8.188650166,-887
21.9164098,2374,-302.5092318,-32768,12096,2369.140625,-8.133259072,-881
21.9164098,2374,-302.5092318,-32768,12224,2373.046875,-8.133259072,-881
22.02719199,2386,-302.5092318,-32768,12352,2376.953125,-7.967085788,-863
21.9902646,2382,-302.5092318,-32768,12480,2380.859375,-8.059404279,-873
22.02719199,2386,-302.5092318,-32768,12608,2384.765625,-8.04094058,-871
21.9533372,2378,-302.5092318,-32768,12736,2388.671875,-8.077867977,-875
22.01796014,2385,-302.5092318,-32768,12864,2392.578125,-8.031708731,-870
21.98103275,2381,-302.5092318,-32768,12992,2396.484375,-7.957853938,-862
21.9164098,2374,-302.5092318,-32768,13120,2400.390625,-8.077867977,-875
21.90717795,2373,-302.5092318,-32768,13248,2404.296875,-8.068636128,-874
21.88871426,2371,-302.5092318,-32768,13376,2408.203125,-8.087099826,-876
21.9164098,2374,-302.5092318,-32768,13504,2412.109375,-8.05017243,-872
21.98103275,2381,-302.5092318,-32768,13632,2416.015625,-7.957853938,-862
21.9533372,2378,-302.5092318,-32768,13760,2419.921875,-8.004013184,-867
21.9718009,2380,-302.5092318,-32768,13888,2423.828125,-7.948622089,-861
21.94410535,2377,-302.5092318,-32768,14016,2427.734375,-8.077867977,-875
21.9533372,2378,-302.5092318,-32768,14144,2431.640625,-7.994781335,-866
22.02719199,2386,-302.5092318,-32768,14272,2435.546875,-7.883999145,-854
21.9533372,2378,-302.5092318,-32768,14400,2439.453125,-7.994781335,-866
21.9533372,2378,-302.5092318,-32768,14528,2443.359375,-8.022476882,-869
21.8979461,2372,-302.5092318,-32768,14656,2447.265625,-8.096331675,-877
21.9718009,2380,-302.5092318,-32768,14784,2451.171875,-7.976317637,-864
21.99949644,2383,-302.5092318,-32768,14912,2455.078125,-7.93939024,-860
21.96256905,2379,-302.5092318,-32768,15040,2458.984375,-7.948622089,-861
21.9533372,2378,-302.5092318,-32768,15168,2462.890625,-8.013245033,-868
21.82409131,2364,-302.5092318,-32768,15296,2466.796875,-8.179418317,-886
21.9533372,2378,-302.5092318,-32768,15424,2470.703125,-8.004013184,-867
21.9348735,2376,-302.5092318,-32768,15552,2474.609375,-7.994781335,-866
21.96256905,2379,-302.5092318,-32768,15680,2478.515625,-7.93939024,-860
21.9902646,2382,-302.5092318,-32768,15808,2482.421875,-7.967085788,-863
21.9164098,2374,-302.5092318,-32768,15936,2486.328125,-8.077867977,-875
21.9348735,2376,-302.5092318,-32768,16064,2490.234375,-7.985549486,-865
21.98103275,2381,-302.5092318,-32768,16192,2494.140625,-7.930158391,-859
21.98103275,2381,-302.5092318,-32768,16320,2498.046875,-7.902462844,-856
21.99949644,2383,-302.5092318,-32768,16448,2501.953125,-7.902462844,-856
21.96256905,2379,-302.5092318,-32768,16576,2505.859375,-7.994781335,-866
21.9718009,2380,-302.5092318,-32768,16704,2509.765625,-7.967085788,-863
21.9902646,2382,-302.5092318,-32768,16832,2513.671875,-7.948622089,-861
22.05488754,2389,-302.5092318,-32768,16960,2517.578125,-7.828608051,-848
22.05488754,2389,-302.5092318,-32768,17088,2521.484375,-7.893230995,-855
22.00872829,2384,-302.5092318,-32768,17216,2525.390625,-7.920926542,-858
22.05488754,2389,-302.5092318,-32768,17344,2529.296875,-7.911694693,-857
22.07335124,2391,-302.5092318,-32768,17472,2533.203125,-7.847071749,-850
22.00872829,2384,-302.5092318,-32768,17600,2537.109375,-7.893230995,-855
21.99949644,2383,-302.5092318,-32768,17728,2541.015625,-7.883999145,-854
21.99949644,2383,-302.5092318,-32768,17856,2544.921875,-7.874767296,-853
22.10104678,2394,-302.5092318,-32768,17984,2548.828125,-7.883999145,-854
22.03642384,2387,-302.5092318,-32768,18112,2552.734375,-7.856303598,-851
22.15643788,2400,-302.5092318,-32768,18240,2556.640625,-7.73628956,-838
22.10104678,2394,-302.5092318,-32768,18368,2560.546875,-7.8378399,-849
22.05488754,2389,-302.5092318,-32768,18496,2564.453125,-7.856303598,-851
21.94410535,2377,-302.5092318,-32768,18624,2568.359375,-8.004013184,-867
22.03642384,2387,-302.5092318,-32768,18752,2572.265625,-7.893230995,-855
22.12874233,2397,-302.5092318,-32768,18880,2576.171875,-7.791680654,-844
22.11951048,2396,-302.5092318,-32768,19008,2580.078125,-7.847071749,-850
22.09181494,2393,-302.5092318,-32768,19136,2583.984375,-7.800912503,-845
22.03642384,2387,-302.5092318,-32768,19264,2587.890625,-7.930158391,-859
22.11951048,2396,-302.5092318,-32768,19392,2591.796875,-7.874767296,-853
22.21182897,2406,-302.5092318,-32768,19520,2595.703125,-7.791680654,-844
22.05488754,2389,-302.5092318,-32768,19648,2599.609375,-7.883999145,-854
22.08258309,2392,-302.5092318,-32768,19776,2603.515625,-7.893230995,-855
22.07335124,2391,-302.5092318,-32768,19904,2607.421875,-7.957853938,-862
22.11027863,2395,-302.5092318,-32768,20032,2611.328125,-7.893230995,-855
22.07335124,2391,-302.5092318,-32768,20160,2615.234375,-7.874767296,-853
22.11027863,2395,-302.5092318,-32768,20288,2619.140625,-7.865535447,-852
22.05488754,2389,-302.5092318,-32768,20416,2623.046875,-7.920926542,-858
21.9533372,2378,-302.5092318,-32768,20544,2626.953125,-8.087099826,-876
21.9164098,2374,-302.5092318,-32768,20672,2630.859375,-8.04094058,-871
22.01796014,2385,-302.5092318,-32768,20800,2634.765625,-7.948622089,-861
21.99949644,2383,-302.5092318,-32768,20928,2638.671875,-7.994781335,-866
21.92564165,2375,-302.5092318,-32768,21056,2642.578125,-8.022476882,-869
22.04565569,2388,-302.5092318,-32768,21184,2646.484375,-7.994781335,-866
22.04565569,2388,-302.5092318,-32768,21312,2650.390625,-7.93939024,-860
21.99949644,2383,-302.5092318,-32768,21440,2654.296875,-7.985549486,-865
22.03642384,2387,-302.5092318,-32768,21568,2658.203125,-7.902462844,-856
21.96256905,2379,-302.5092318,-32768,21696,2662.109375,-8.004013184,-867
21.87948241,2370,-302.5092318,-32768,21824,2666.015625,-8.15172277,-883
21.8979461,2372,-302.5092318,-32768,21952,2669.921875,-8.087099826,-876
21.90717795,2373,-302.5092318,-32768,22080,2673.828125,-8.068636128,-874
21.94410535,2377,-302.5092318,-32768,22208,2677.734375,-7.967085788,-863
21.9348735,2376,-302.5092318,-32768,22336,2681.640625,-8.031708731,-870
21.94410535,2377,-302.5092318,-32768,22464,2685.546875,-8.022476882,-869
21.9718009,2380,-302.5092318,-32768,22592,2689.453125,-8.068636128,-874
21.94410535,2377,-302.5092318,-32768,22720,2693.359375,-8.059404279,-873
21.99949644,2383,-302.5092318,-32768,22848,2697.265625,-7.93939024,-860
21.9718009,2380,-302.5092318,-32768,22976,2701.171875,-8.013245033,-868
22.00872829,2384,-302.5092318,-32768,23104,2705.078125,-8.013245033,-868
21.86101871,2368,-302.5092318,-32768,23232,2708.984375,-8.124027223,-880
21.82409131,2364,-302.5092318,-32768,23360,2712.890625,-8.15172277,-883
21.9902646,2382,-302.5092318,-32768,23488,2716.796875,-7.920926542,-858
21.9902646,2382,-302.5092318,-32768,23616,2720.703125,-8.013245033,-868
21.98103275,2381,-302.5092318,-32768,23744,2724.609375,-8.004013184,-867
21.9164098,2374,-302.5092318,-32768,23872,2728.515625,-8.105563524,-878
21.98103275,2381,-302.5092318,-32768,24000,2732.421875,-8.068636128,-874
21.99949644,2383,-302.5092318,-32768,24128,2736.328125,-7.948622089,-861
21.9902646,2382,-302.5092318,-32768,24256,2740.234375,-7.976317637,-864
21.98103275,2381,-302.5092318,-32768,24384,2744.140625,-7.967085788,-863
21.96256905,2379,-302.5092318,-32768,24512,2748.046875,-8.068636128,-874
21.9902646,2382,-302.5092318,-32768,24640,2751.953125,-8.022476882,-869
22.02719199,2386,-302.5092318,-32768,24768,2755.859375,-7.948622089,-861
22.03642384,2387,-302.5092318,-32768,24896,2759.765625,-7.930158391,-859
22.02719199,2386,-302.5092318,-32768,25024,2763.671875,-7.957853938,-862
21.90717795,2373,-302.5092318,-32768,25152,2767.578125,-8.105563524,-878
21.96256905,2379,-302.5092318,-32768,25280,2771.484375,-8.05017243,-872
21.94410535,2377,-302.5092318,-32768,25408,2775.390625,-8.04094058,-871
21.98103275,2381,-302.5092318,-32768,25536,2779.296875,-7.994781335,-866
21.94410535,2377,-302.5092318,-32768,25664,2783.203125,-8.05017243,-872
21.82409131,2364,-302.5092318,-32768,25792,2787.109375,-8.197882015,-888
21.96256905,2379,-302.5092318,-32768,25920,2791.015625,-8.031708731,-870
21.9718009,2380,-302.5092318,-32768,26048,2794.921875,-7.994781335,-866
22.03642384,2387,-302.5092318,-32768,26176,2798.828125,-7.920926542,-858
21.98103275,2381,-302.5092318,-32768,26304,2802.734375,-8.031708731,-870
21.8979461,2372,-302.5092318,-32768,26432,2806.640625,-8.077867977,-875
21.9348735,2376,-302.5092318,-32768,26560,2810.546875,-8.04094058,-871
21.98103275,2381,-302.5092318,-32768,26688,2814.453125,-8.031708731,-870
22.06411939,2390,-302.5092318,-32768,26816,2818.359375,-7.93939024,-860
21.8979461,2372,-302.5092318,-32768,26944,2822.265625,-8.059404279,-873
21.84255501,2366,-302.5092318,-32768,27072,2826.171875,-8.133259072,-881
21.90717795,2373,-302.5092318,-32768,27200,2830.078125,-8.087099826,-876
21.92564165,2375,-302.5092318,-32768,27328,2833.984375,-8.05017243,-872
21.98103275,2381,-302.5092318,-32768,27456,2837.890625,-7.93939024,-860
21.94410535,2377,-302.5092318,-32768,27584,2841.796875,-8.031708731,-870
21.9164098,2374,-302.5092318,-32768,27712,2845.703125,-8.068636128,-874
21.8979461,2372,-302.5092318,-32768,27840,2849.609375,-8.087099826,-876
21.90717795,2373,-302.5092318,-32768,27968,2853.515625,-8.05017243,-872
22.01796014,2385,-302.5092318,-32768,28096,2857.421875,-7.93939024,-860
21.92564165,2375,-302.5092318,-32768,28224,2861.328125,-8.022476882,-869
21.9164098,2374,-302.5092318,-32768,28352,2865.234375,-8.059404279,-873
21.90717795,2373,-302.5092318,-32768,28480,2869.140625,-8.077867977,-875
21.9718009,2380,-302.5092318,-32768,28608,2873.046875,-8.022476882,-869
21.92564165,2375,-302.5092318,-32768,28736,2876.953125,-7.994781335,-866
21.92564165,2375,-302.5092318,-32768,28864,2880.859375,-8.068636128,-874
21.9718009,2380,-302.5092318,-32768,28992,2884.765625,-8.022476882,-869
21.94410535,2377,-302.5092318,-32768,29120,2888.671875,-8.15172277,-883
21.98103275,2381,-302.5092318,-32768,29248,2892.578125,-8.004013184,-867
21.99949644,2383,-302.5092318,-32768,29376,2896.484375,-7.985549486,-865
21.9348735,2376,-302.5092318,-32768,29504,2900.390625,-8.096331675,-877
21.90717795,2373,-302.5092318,-32768,29632,2904.296875,-8.087099826,-876
21.85178686,2367,-302.5092318,-32768,29760,2908.203125,-8.197882015,-888
21.9902646,2382,-302.5092318,-32768,29888,2912.109375,-8.068636128,-874
22.04565569,2388,-302.5092318,-32768,30016,2916.015625,-8.004013184,-867
22.03642384,2387,-302.5092318,-32768,30144,2919.921875,-7.93939024,-860
21.9902646,2382,-302.5092318,-32768,30272,2923.828125,-8.022476882,-869
21.94410535,2377,-302.5092318,-32768,30400,2927.734375,-8.133259072,-881
22.03642384,2387,-302.5092318,-32768,30528,2931.640625,-8.068636128,-874
21.9718009,2380,-302.5092318,-32768,30656,2935.546875,-8.059404279,-873
22.02719199,2386,-302.5092318,-32768,30784,2939.453125,-7.994781335,-866
22.01796014,2385,-302.5092318,-32768,30912,2943.359375,-8.04094058,-871
21.98103275,2381,-302.5092318,-32768,31040,2947.265625,-8.068636128,-874
22.02719199,2386,-302.5092318,-32768,31168,2951.171875,-8.004013184,-867
21.9533372,2378,-302.5092318,-32768,31296,2955.078125,-8.013245033,-868
21.9902646,2382,-302.5092318,-32768,31424,2958.984375,-7.93939024,-860
21.96256905,2379,-302.5092318,-32768,31552,2962.890625,-8.004013184,-867
21.9164098,2374,-302.5092318,-32768,31680,2966.796875,-8.05017243,-872
21.90717795,2373,-302.5092318,-32768,31808,2970.703125,-8.031708731,-870
21.92564165,2375,-302.5092318,-32768,31936,2974.609375,-8.031708731,-870
21.98103275,2381,-302.5092318,-32768,32064,2978.515625,-7.948622089,-861
21.88871426,2371,-302.5092318,-32768,32192,2982.421875,-8.059404279,-873
21.83332316,2365,-302.5092318,-32768,32320,2986.328125,-8.142490921,-882
21.81485946,2363,-302.5092318,-32768,32448,2990.234375,-8.133259072,-881
21.88871426,2371,-302.5092318,-32768,32576,2994.140625,-8.059404279,-873
21.87948241,2370,-302.5092318,-32768,32704,2998.046875,-8.022476882,-869
21.78716391,2360,-302.5092318,-32768,32832,3001.953125,-8.114795373,-879
21.76870022,2358,-302.5092318,-32768,32960,3005.859375,-8.142490921,-882
21.78716391,2360,-302.5092318,-32768,33088,3009.765625,-8.160954619,-884
21.85178686,2367,-302.5092318,-32768,33216,3013.671875,-8.05017243,-872
21.96256905,2379,-302.5092318,-32768,33344,3017.578125,-7.976317637,-864
21.9533372,2378,-302.5092318,-32768,33472,3021.484375,-8.05017243,-872
21.78716391,2360,-302.5092318,-32768,33600,3025.390625,-8.105563524,-878
21.75946837,2357,-302.5092318,-32768,33728,3029.296875,-8.179418317,-886
21.88871426,2371,-302.5092318,-32768,33856,3033.203125,-8.05017243,-872
21.8979461,2372,-302.5092318,-32768,33984,3037.109375,-8.022476882,-869
21.8979461,2372,-302.5092318,-32768,34112,3041.015625,-8.013245033,-868
21.86101871,2368,-302.5092318,-32768,34240,3044.921875,-8.068636128,-874
21.81485946,2363,-302.5092318,-32768,34368,3048.828125,-8.170186468,-885
21.82409131,2364,-302.5092318,-32768,34496,3052.734375,-8.133259072,-881
21.86101871,2368,-302.5092318,-32768,34624,3056.640625,-8.068636128,-874
21.85178686,2367,-302.5092318,-32768,34752,3060.546875,-8.114795373,-879
21.75023652,2356,-302.5092318,-32768,34880,3064.453125,-8.170186468,-885
21.61175878,2341,-302.5092318,-32768,35008,3068.359375,-8.25327311,-894
21.66714988,2347,-302.5092318,-32768,35136,3072.265625,-7.985549486,-865
21.77793207,2359,-302.5092318,-32768,35264,3076.171875,-7.754753258,-840
22.02719199,2386,-302.5092318,-32768,35392,3080.078125,-7.440870388,-806
22.35030671,2421,-302.5092318,-32768,35520,3083.984375,-7.487029633,-811
22.11027863,2395,-302.5092318,-32768,35648,3087.890625,-7.487029633,-811
22.41492965,2428,-302.5092318,-32768,35776,3091.796875,-7.62550737,-826
22.26722007,2412,-302.5092318,-32768,35904,3095.703125,-7.763985107,-841
22.14720603,2399,-302.5092318,-32768,36032,3099.609375,-8.004013184,-867
22.00872829,2384,-302.5092318,-32768,36160,3103.515625,-8.437910092,-914
21.86101871,2368,-302.5092318,-32768,36288,3107.421875,-8.557924131,-927
21.77793207,2359,-302.5092318,-32768,36416,3111.328125,-8.557924131,-927
21.74100467,2355,-302.5092318,-32768,36544,3115.234375,-8.419446394,-912
21.8979461,2372,-302.5092318,-32768,36672,3119.140625,-8.15172277,-883
21.8979461,2372,-302.5092318,-32768,36800,3123.046875,-8.15172277,-883
21.81485946,2363,-302.5092318,-32768,36928,3126.953125,-8.188650166,-887
21.88871426,2371,-302.5092318,-32768,37056,3130.859375,-8.114795373,-879
21.88871426,2371,-302.5092318,-32768,37184,3134.765625,-8.087099826,-876
21.94410535,2377,-302.5092318,-32768,37312,3138.671875,-7.948622089,-861
21.8979461,2372,-302.5092318,-32768,37440,3142.578125,-8.013245033,-868
21.87948241,2370,-302.5092318,-32768,37568,3146.484375,-8.04094058,-871
21.82409131,2364,-302.5092318,-32768,37696,3150.390625,-8.160954619,-884
21.87025056,2369,-302.5092318,-32768,37824,3154.296875,-8.068636128,-874
21.9348735,2376,-302.5092318,-32768,37952,3158.203125,-7.967085788,-863
21.80562761,2362,-302.5092318,-32768,38080,3162.109375,-8.059404279,-873
21.90717795,2373,-302.5092318,-32768,38208,3166.015625,-8.031708731,-870
21.85178686,2367,-302.5092318,-32768,38336,3169.921875,-8.087099826,-876
21.87025056,2369,-302.5092318,-32768,38464,3173.828125,-8.022476882,-869
21.9348735,2376,-302.5092318,-32768,38592,3177.734375,-7.920926542,-858
21.92564165,2375,-302.5092318,-32768,38720,3181.640625,-7.967085788,-863
21.85178686,2367,-302.5092318,-32768,38848,3185.546875,-8.04094058,-871
21.80562761,2362,-302.5092318,-32768,38976,3189.453125,-8.15172277,-883
21.82409131,2364,-302.5092318,-32768,39104,3193.359375,-8.068636128,-874
21.8979461,2372,-302.5092318,-32768,39232,3197.265625,-8.031708731,-870
21.9718009,2380,-302.5092318,-32768,39360,3201.171875,-7.920926542,-858
21.92564165,2375,-302.5092318,-32768,39488,3205.078125,-7.976317637,-864
21.81485946,2363,-302.5092318,-32768,39616,3208.984375,-8.105563524,-878
21.96256905,2379,-302.5092318,-32768,39744,3212.890625,-7.957853938,-862
21.9164098,2374,-302.5092318,-32768,39872,3216.796875,-7.930158391,-859
21.9348735,2376,-302.5092318,-32768,40000,3220.703125,-7.920926542,-858
21.8979461,2372,-302.5092318,-32768,40128,3224.609375,-8.013245033,-868
21.79639576,2361,-302.5092318,-32768,40256,3228.515625,-8.133259072,-881
21.9164098,2374,-302.5092318,-32768,40384,3232.421875,-7.985549486,-865
21.9533372,2378,-302.5092318,-32768,40512,3236.328125,-7.957853938,-862
21.96256905,2379,-302.5092318,-32768,40640,3240.234375,-7.967085788,-863
21.85178686,2367,-302.5092318,-32768,40768,3244.140625,-8.077867977,-875
21.84255501,2366,-302.5092318,-32768,40896,3248.046875,-8.077867977,-875
21.9348735,2376,-302.5092318,-32768,41024,3251.953125,-7.957853938,-862
21.96256905,2379,-302.5092318,-32768,41152,3255.859375,-7.930158391,-859
21.99949644,2383,-302.5092318,-32768,41280,3259.765625,-7.883999145,-854
21.90717795,2373,-302.5092318,-32768,41408,3263.671875,-7.976317637,-864
21.9348735,2376,-302.5092318,-32768,41536,3267.578125,-8.013245033,-868
21.92564165,2375,-302.5092318,-32768,41664,3271.484375,-7.976317637,-864
21.9348735,2376,-302.5092318,-32768,41792,3275.390625,-7.976317637,-864
22.00872829,2384,-302.5092318,-32768,41920,3279.296875,-7.865535447,-852
21.8979461,2372,-302.5092318,-32768,42048,3283.203125,-7.967085788,-863
21.9533372,2378,-302.5092318,-32768,42176,3287.109375,-7.911694693,-857
21.9718009,2380,-302.5092318,-32768,42304,3291.015625,-7.93939024,-860
21.9902646,2382,-302.5092318,-32768,42432,3294.921875,-7.920926542,-858
22.04565569,2388,-302.5092318,-32768,42560,3298.828125,-7.800912503,-845
22.00872829,2384,-302.5092318,-32768,42688,3302.734375,-7.874767296,-853
21.9533372,2378,-302.5092318,-32768,42816,3306.640625,-7.967085788,-863
21.9348735,2376,-302.5092318,-32768,42944,3310.546875,-7.957853938,-862
22.03642384,2387,-302.5092318,-32768,43072,3314.453125,-7.874767296,-853
22.11951048,2396,-302.5092318,-32768,43200,3318.359375,-7.800912503,-845
22.00872829,2384,-302.5092318,-32768,43328,3322.265625,-7.847071749,-850
22.04565569,2388,-302.5092318,-32768,43456,3326.171875,-7.865535447,-852
22.05488754,2389,-302.5092318,-32768,43584,3330.078125,-7.902462844,-856
22.05488754,2389,-302.5092318,-32768,43712,3333.984375,-7.8378399,-849
22.09181494,2393,-302.5092318,-32768,43840,3337.890625,-7.782448805,-843
22.10104678,2394,-302.5092318,-32768,43968,3341.796875,-7.828608051,-848
22.10104678,2394,-302.5092318,-32768,44096,3345.703125,-7.8378399,-849
22.02719199,2386,-302.5092318,-32768,44224,3349.609375,-7.930158391,-859
21.99949644,2383,-302.5092318,-32768,44352,3353.515625,-7.920926542,-858
22.02719199,2386,-302.5092318,-32768,44480,3357.421875,-7.883999145,-854
22.12874233,2397,-302.5092318,-32768,44608,3361.328125,-7.810144353,-846
22.08258309,2392,-302.5092318,-32768,44736,3365.234375,-7.865535447,-852
22.00872829,2384,-302.5092318,-32768,44864,3369.140625,-7.976317637,-864
21.96256905,2379,-302.5092318,-32768,44992,3373.046875,-7.930158391,-859
21.96256905,2379,-302.5092318,-32768,45120,3376.953125,-7.930158391,-859
22.07335124,2391,-302.5092318,-32768,45248,3380.859375,-7.893230995,-855
22.00872829,2384,-302.5092318,-32768,45376,3384.765625,-7.93939024,-860
21.92564165,2375,-302.5092318,-32768,45504,3388.671875,-8.05017243,-872
22.04565569,2388,-302.5092318,-32768,45632,3392.578125,-7.911694693,-857
21.9348735,2376,-302.5092318,-32768,45760,3396.484375,-7.967085788,-863
21.9164098,2374,-302.5092318,-32768,45888,3400.390625,-7.957853938,-862
21.90717795,2373,-302.5092318,-32768,46016,3404.296875,-8.031708731,-870
21.87025056,2369,-302.5092318,-32768,46144,3408.203125,-8.096331675,-877
21.84255501,2366,-302.5092318,-32768,46272,3412.109375,-8.059404279,-873
21.87025056,2369,-302.5092318,-32768,46400,3416.015625,-8.059404279,-873
21.9348735,2376,-302.5092318,-32768,46528,3419.921875,-7.930158391,-859
21.8979461,2372,-302.5092318,-32768,46656,3423.828125,-7.985549486,-865
21.88871426,2371,-302.5092318,-32768,46784,3427.734375,-8.013245033,-868
21.83332316,2365,-302.5092318,-32768,46912,3431.640625,-8.068636128,-874
21.84255501,2366,-302.5092318,-32768,47040,3435.546875,-8.04094058,-871
21.8979461,2372,-302.5092318,-32768,47168,3439.453125,-7.920926542,-858
21.76870022,2358,-302.5092318,-32768,47296,3443.359375,-8.142490921,-882
21.81485946,2363,-302.5092318,-32768,47424,3447.265625,-8.105563524,-878
21.80562761,2362,-302.5092318,-32768,47552,3451.171875,-8.124027223,-880
21.82409131,2364,-302.5092318,-32768,47680,3455.078125,-8.068636128,-874
21.90717795,2373,-302.5092318,-32768,47808,3458.984375,-7.976317637,-864
21.82409131,2364,-302.5092318,-32768,47936,3462.890625,-8.068636128,-874
21.85178686,2367,-302.5092318,-32768,48064,3466.796875,-8.04094058,-871
21.82409131,2364,-302.5092318,-32768,48192,3470.703125,-8.096331675,-877
21.78716391,2360,-302.5092318,-32768,48320,3474.609375,-8.05017243,-872
21.90717795,2373,-302.5092318,-32768,48448,3478.515625,-7.957853938,-862
21.88871426,2371,-302.5092318,-32768,48576,3482.421875,-8.004013184,-867
21.85178686,2367,-302.5092318,-32768,48704,3486.328125,-8.04094058,-871
21.83332316,2365,-302.5092318,-32768,48832,3490.234375,-8.124027223,-880
21.87025056,2369,-302.5092318,-32768,48960,3494.140625,-8.022476882,-869
21.88871426,2371,-302.5092318,-32768,49088,3498.046875,-8.031708731,-870
21.8979461,2372,-302.5092318,-32768,49216,3501.953125,-7.976317637,-864
21.90717795,2373,-302.5092318,-32768,49344,3505.859375,-7.985549486,-865
21.76870022,2358,-302.5092318,-32768,49472,3509.765625,-8.133259072,-881
21.90717795,2373,-302.5092318,-32768,49600,3513.671875,-8.013245033,-868
21.9533372,2378,-302.5092318,-32768,49728,3517.578125,-7.920926542,-858
21.9348735,2376,-302.5092318,-32768,49856,3521.484375,-7.957853938,-862
21.81485946,2363,-302.5092318,-32768,49984,3525.390625,-8.022476882,-869
21.78716391,2360,-302.5092318,-32768,50112,3529.296875,-8.160954619,-884
21.81485946,2363,-302.5092318,-32768,50240,3533.203125,-8.096331675,-877
21.79639576,2361,-302.5092318,-32768,50368,3537.109375,-8.105563524,-878
21.76870022,2358,-302.5092318,-32768,50496,3541.015625,-8.096331675,-877
21.84255501,2366,-302.5092318,-32768,50624,3544.921875,-8.05017243,-872
21.81485946,2363,-302.5092318,-32768,50752,3548.828125,-8.114795373,-879
21.86101871,2368,-302.5092318,-32768,50880,3552.734375,-8.031708731,-870
21.86101871,2368,-302.5092318,-32768,51008,3556.640625,-8.04094058,-871
21.88871426,2371,-302.5092318,-32768,51136,3560.546875,-7.994781335,-866
21.82409131,2364,-302.5092318,-32768,51264,3564.453125,-8.05017243,-872
21.87948241,2370,-302.5092318,-32768,51392,3568.359375,-8.022476882,-869
21.88871426,2371,-302.5092318,-32768,51520,3572.265625,-8.04094058,-871
21.81485946,2363,-302.5092318,-32768,51648,3576.171875,-8.077867977,-875
21.8979461,2372,-302.5092318,-32768,51776,3580.078125,-7.976317637,-864
21.80562761,2362,-302.5092318,-32768,51904,3583.984375,-8.087099826,-876
21.76870022,2358,-302.5092318,-32768,52032,3587.890625,-8.124027223,-880
21.86101871,2368,-302.5092318,-32768,52160,3591.796875,-8.087099826,-876
21.85178686,2367,-302.5092318,-32768,52288,3595.703125,-8.05017243,-872
21.9902646,2382,-302.5092318,-32768,52416,3599.609375,-7.893230995,-855
21.90717795,2373,-302.5092318,-32768,52544,3603.515625,-8.013245033,-868
21.85178686,2367,-302.5092318,-32768,52672,3607.421875,-8.022476882,-869
21.79639576,2361,-302.5092318,-32768,52800,3611.328125,-8.142490921,-882
21.83332316,2365,-302.5092318,-32768,52928,3615.234375,-8.05017243,-872
21.8979461,2372,-302.5092318,-32768,53056,3619.140625,-7.985549486,-865
21.86101871,2368,-302.5092318,-32768,53184,3623.046875,-8.022476882,-869
21.77793207,2359,-302.5092318,-32768,53312,3626.953125,-8.068636128,-874
21.74100467,2355,-302.5092318,-32768,53440,3630.859375,-8.15172277,-883
21.81485946,2363,-302.5092318,-32768,53568,3634.765625,-8.068636128,-874
21.83332316,2365,-302.5092318,-32768,53696,3638.671875,-7.994781335,-866
21.77793207,2359,-302.5092318,-32768,53824,3642.578125,-8.068636128,-874
21.80562761,2362,-302.5092318,-32768,53952,3646.484375,-8.087099826,-876
21.75946837,2357,-302.5092318,-32768,54080,3650.390625,-8.124027223,-880
21.83332316,2365,-302.5092318,-32768,54208,3654.296875,-7.994781335,-866
21.82409131,2364,-302.5092318,-32768,54336,3658.203125,-8.031708731,-870
21.82409131,2364,-302.5092318,-32768,54464,3662.109375,-8.05017243,-872
21.85178686,2367,-302.5092318,-32768,54592,3666.015625,-8.031708731,-870
21.76870022,2358,-302.5092318,-32768,54720,3669.921875,-8.114795373,-879
21.79639576,2361,-302.5092318,-32768,54848,3673.828125,-8.04094058,-871
21.75946837,2357,-302.5092318,-32768,54976,3677.734375,-8.096331675,-877
21.80562761,2362,-302.5092318,-32768,55104,3681.640625,-8.04094058,-871
21.75946837,2357,-302.5092318,-32768,55232,3685.546875,-8.087099826,-876
21.77793207,2359,-302.5092318,-32768,55360,3689.453125,-8.15172277,-883
21.81485946,2363,-302.5092318,-32768,55488,3693.359375,-8.087099826,-876
21.82409131,2364,-302.5092318,-32768,55616,3697.265625,-8.068636128,-874
21.8979461,2372,-302.5092318,-32768,55744,3701.171875,-7.948622089,-861
21.87948241,2370,-302.5092318,-32768,55872,3705.078125,-8.05017243,-872
21.84255501,2366,-302.5092318,-32768,56000,3708.984375,-8.105563524,-878
21.90717795,2373,-302.5092318,-32768,56128,3712.890625,-8.05017243,-872
21.84255501,2366,-302.5092318,-32768,56256,3716.796875,-8.068636128,-874
21.9348735,2376,-302.5092318,-32768,56384,3720.703125,-7.920926542,-858
21.9348735,2376,-302.5092318,-32768,56512,3724.609375,-7.985549486,-865
21.87025056,2369,-302.5092318,-32768,56640,3728.515625,-8.05017243,-872
21.79639576,2361,-302.5092318,-32768,56768,3732.421875,-8.133259072,-881
21.86101871,2368,-302.5092318,-32768,56896,3736.328125,-8.105563524,-878
21.9533372,2378,-302.5092318,-32768,57024,3740.234375,-7.976317637,-864
21.82409131,2364,-302.5092318,-32768,57152,3744.140625,-8.068636128,-874
21.83332316,2365,-302.5092318,-32768,57280,3748.046875,-8.105563524,-878
21.9533372,2378,-302.5092318,-32768,57408,3751.953125,-8.013245033,-868
21.92564165,2375,-302.5092318,-32768,57536,3755.859375,-8.004013184,-867
21.9533372,2378,-302.5092318,-32768,57664,3759.765625,-7.930158391,-859
21.85178686,2367,-302.5092318,-32768,57792,3763.671875,-7.985549486,-865
21.85178686,2367,-302.5092318,-32768,57920,3767.578125,-7.985549486,-865
21.77793207,2359,-302.5092318,-32768,58048,3771.484375,-8.124027223,-880
21.75946837,2357,-302.5092318,-32768,58176,3775.390625,-8.096331675,-877
21.78716391,2360,-302.5092318,-32768,58304,3779.296875,-8.013245033,-868
21.80562761,2362,-302.5092318,-32768,58432,3783.203125,-8.087099826,-876
21.79639576,2361,-302.5092318,-32768,58560,3787.109375,-8.05017243,-872
21.77793207,2359,-302.5092318,-32768,58688,3791.015625,-8.15172277,-883
21.79639576,2361,-302.5092318,-32768,58816,3794.921875,-8.031708731,-870
21.80562761,2362,-302.5092318,-32768,58944,3798.828125,-8.013245033,-868
21.83332316,2365,-302.5092318,-32768,59072,3802.734375,-8.004013184,-867
21.77793207,2359,-302.5092318,-32768,59200,3806.640625,-8.05017243,-872
21.69484542,2350,-302.5092318,-32768,59328,3810.546875,-8.188650166,-887
21.77793207,2359,-302.5092318,-32768,59456,3814.453125,-8.068636128,-874
21.78716391,2360,-302.5092318,-32768,59584,3818.359375,-8.031708731,-870
21.84255501,2366,-302.5092318,-32768,59712,3822.265625,-8.031708731,-870
21.82409131,2364,-302.5092318,-32768,59840,3826.171875,-8.04094058,-871
21.71330912,2352,-302.5092318,-32768,59968,3830.078125,-8.179418317,-886
21.75946837,2357,-302.5092318,-32768,60096,3833.984375,-8.077867977,-875
21.78716391,2360,-302.5092318,-32768,60224,3837.890625,-8.087099826,-876
21.79639576,2361,-302.5092318,-32768,60352,3841.796875,-7.985549486,-865
21.73177282,2354,-302.5092318,-32768,60480,3845.703125,-8.087099826,-876
21.67638173,2348,-302.5092318,-32768,60608,3849.609375,-8.160954619,-884
21.71330912,2352,-302.5092318,-32768,60736,3853.515625,-8.096331675,-877
21.75946837,2357,-302.5092318,-32768,60864,3857.421875,-8.105563524,-878
21.79639576,2361,-302.5092318,-32768,60992,3861.328125,-8.013245033,-868
21.75023652,2356,-302.5092318,-32768,61120,3865.234375,-8.142490921,-882
21.57483139,2337,-302.5092318,-32768,61248,3869.140625,-8.290200507,-898
21.53790399,2333,-302.5092318,-32768,61376,3873.046875,-8.262504959,-895
21.51944029,2331,-302.5092318,-32768,61504,3876.953125,-8.105563524,-878
21.65791803,2346,-302.5092318,-32768,61632,3880.859375,-7.754753258,-840
21.75946837,2357,-302.5092318,-32768,61760,3884.765625,-7.551652577,-818
22.07335124,2391,-302.5092318,-32768,61888,3888.671875,-7.533188879,-816
21.94410535,2377,-302.5092318,-32768,62016,3892.578125,-7.477797784,-810
22.21182897,2406,-302.5092318,-32768,62144,3896.484375,-7.560884426,-819
22.32261116,2418,-302.5092318,-32768,62272,3900.390625,-7.662434767,-830
22.09181494,2393,-302.5092318,-32768,62400,3904.296875,-7.957853938,-862
21.9718009,2380,-302.5092318,-32768,62528,3908.203125,-8.382518998,-908
21.8979461,2372,-302.5092318,-32768,62656,3912.109375,-8.511764885,-922
21.75023652,2356,-302.5092318,-32768,62784,3916.015625,-8.511764885,-922
21.67638173,2348,-302.5092318,-32768,62912,3919.921875,-8.391750847,-909
21.73177282,2354,-302.5092318,-32768,63040,3923.828125,-8.327127903,-902
21.76870022,2358,-302.5092318,-32768,63168,3927.734375,-8.188650166,-887
21.72254097,2353,-302.5092318,-32768,63296,3931.640625,-8.216345714,-890
21.73177282,2354,-302.5092318,-32768,63424,3935.546875,-8.133259072,-881
21.76870022,2358,-302.5092318,-32768,63552,3939.453125,-8.04094058,-871
21.77793207,2359,-302.5092318,-32768,63680,3943.359375,-8.031708731,-870
21.75023652,2356,-302.5092318,-32768,63808,3947.265625,-8.087099826,-876
21.69484542,2350,-302.5092318,-32768,63936,3951.171875,-8.170186468,-885
21.79639576,2361,-302.5092318,-32768,64064,3955.078125,-8.031708731,-870
21.87025056,2369,-302.5092318,-32768,64192,3958.984375,-7.985549486,-865
21.79639576,2361,-302.5092318,-32768,64320,3962.890625,-8.013245033,-868
21.73177282,2354,-302.5092318,-32768,64448,3966.796875,-8.068636128,-874
21.68561357,2349,-302.5092318,-32768,64576,3970.703125,-8.160954619,-884
21.76870022,2358,-302.5092318,-32768,64704,3974.609375,-8.05017243,-872
21.74100467,2355,-302.5092318,-32768,64832,3978.515625,-8.05017243,-872
21.80562761,2362,-302.5092318,-32768,64960,3982.421875,-7.994781335,-866
21.78716391,2360,-302.5092318,-32768,65088,3986.328125,-8.004013184,-867
21.75946837,2357,-302.5092318,-32768,65216,3990.234375,-8.077867977,-875
21.73177282,2354,-302.5092318,-32768,65344,3994.140625,-8.096331675,-877
21.72254097,2353,-302.5092318,-32768,65472,3998.046875,-8.059404279,-873
21.82409131,2364,-302.5092318,-32768,64,4001.953125,-7.957853938,-862
21.77793207,2359,-302.5092318,-32768,192,4005.859375,-8.031708731,-870
21.74100467,2355,-302.5092318,-32768,320,4009.765625,-8.096331675,-877
21.72254097,2353,-302.5092318,-32768,448,4013.671875,-8.068636128,-874
21.76870022,2358,-302.5092318,-32768,576,4017.578125,-8.05017243,-872
21.84255501,2366,-302.5092318,-32768,704,4021.484375,-7.920926542,-858
21.75946837,2357,-302.5092318,-32768,832,4025.390625,-8.05017243,-872
21.77793207,2359,-302.5092318,-32768,960,4029.296875,-8.05017243,-872
21.74100467,2355,-302.5092318,-32768,1088,4033.203125,-8.068636128,-874
21.76870022,2358,-302.5092318,-32768,1216,4037.109375,-8.04094058,-871
21.83332316,2365,-302.5092318,-32768,1344,4041.015625,-7.911694693,-857
21.75946837,2357,-302.5092318,-32768,1472,4044.921875,-8.031708731,-870
21.73177282,2354,-302.5092318,-32768,1600,4048.828125,-8.059404279,-873
21.73177282,2354,-302.5092318,-32768,1728,4052.734375,-8.087099826,-876
21.83332316,2365,-302.5092318,-32768,1856,4056.640625,-7.985549486,-865
21.87948241,2370,-302.5092318,-32768,1984,4060.546875,-7.847071749,-850
21.84255501,2366,-302.5092318,-32768,2112,4064.453125,-7.948622089,-861
21.84255501,2366,-302.5092318,-32768,2240,4068.359375,-7.957853938,-862
21.76870022,2358,-302.5092318,-32768,2368,4072.265625,-8.04094058,-871
21.84255501,2366,-302.5092318,-32768,2496,4076.171875,-7.920926542,-858
21.85178686,2367,-302.5092318,-32768,2624,4080.078125,-7.911694693,-857
21.76870022,2358,-302.5092318,-32768,2752,4083.984375,-7.957853938,-862
21.83332316,2365,-302.5092318,-32768,2880,4087.890625,-7.976317637,-864
21.75023652,2356,-302.5092318,-32768,3008,4091.796875,-8.077867977,-875
21.87025056,2369,-302.5092318,-32768,3136,4095.703125,-7.957853938,-862
21.88871426,2371,-302.5092318,-32768,3264,4099.609375,-7.874767296,-853
21.87948241,2370,-302.5092318,-32768,3392,4103.515625,-7.883999145,-854
21.87948241,2370,-302.5092318,-32768,3520,4107.421875,-7.902462844,-856
21.78716391,2360,-302.5092318,-32768,3648,4111.328125,-8.04094058,-871
21.87025056,2369,-302.5092318,-32768,3776,4115.234375,-7.920926542,-858
21.94410535,2377,-302.5092318,-32768,3904,4119.140625,-7.865535447,-852
21.87948241,2370,-302.5092318,-32768,4032,4123.046875,-7.856303598,-851
21.8979461,2372,-302.5092318,-32768,4160,4126.953125,-7.883999145,-854
21.85178686,2367,-302.5092318,-32768,4288,4130.859375,-7.976317637,-864
21.88871426,2371,-302.5092318,-32768,4416,4134.765625,-7.911694693,-857
21.94410535,2377,-302.5092318,-32768,4544,4138.671875,-7.856303598,-851
21.98103275,2381,-302.5092318,-32768,4672,4142.578125,-7.782448805,-843
21.98103275,2381,-302.5092318,-32768,4800,4146.484375,-7.828608051,-848
21.8979461,2372,-302.5092318,-32768,4928,4150.390625,-7.93939024,-860
21.9164098,2374,-302.5092318,-32768,5056,4154.296875,-7.911694693,-857
21.9348735,2376,-302.5092318,-32768,5184,4158.203125,-7.902462844,-856
22.00872829,2384,-302.5092318,-32768,5312,4162.109375,-7.800912503,-845
21.94410535,2377,-302.5092318,-32768,5440,4166.015625,-7.883999145,-854
21.92564165,2375,-302.5092318,-32768,5568,4169.921875,-7.957853938,-862
21.92564165,2375,-302.5092318,-32768,5696,4173.828125,-7.920926542,-858
21.9348735,2376,-302.5092318,-32768,5824,4177.734375,-7.967085788,-863
21.9533372,2378,-302.5092318,-32768,5952,4181.640625,-7.856303598,-851
21.9348735,2376,-302.5092318,-32768,6080,4185.546875,-7.902462844,-856
21.8979461,2372,-302.5092318,-32768,6208,4189.453125,-7.957853938,-862
21.83332316,2365,-302.5092318,-32768,6336,4193.359375,-7.994781335,-866
21.85178686,2367,-302.5092318,-32768,6464,4197.265625,-8.004013184,-867
21.8979461,2372,-302.5092318,-32768,6592,4201.171875,-7.893230995,-855
21.84255501,2366,-302.5092318,-32768,6720,4205.078125,-7.976317637,-864
21.85178686,2367,-302.5092318,-32768,6848,4208.984375,-7.994781335,-866
21.78716391,2360,-302.5092318,-32768,6976,4212.890625,-8.059404279,-873
21.67638173,2348,-302.5092318,-32768,7104,4216.796875,-8.124027223,-880
21.79639576,2361,-302.5092318,-32768,7232,4220.703125,-7.985549486,-865
21.83332316,2365,-302.5092318,-32768,7360,4224.609375,-7.985549486,-865
21.81485946,2363,-302.5092318,-32768,7488,4228.515625,-8.031708731,-870
21.63945433,2344,-302.5092318,-32768,7616,4232.421875,-8.179418317,-886
21.75023652,2356,-302.5092318,-32768,7744,4236.328125,-8.105563524,-878
21.81485946,2363,-302.5092318,-32768,7872,4240.234375,-7.994781335,-866
21.76870022,2358,-302.5092318,-32768,8000,4244.140625,-8.04094058,-871
21.75946837,2357,-302.5092318,-32768,8128,4248.046875,-8.031708731,-870
21.68561357,2349,-302.5092318,-32768,8256,4251.953125,-8.160954619,-884
21.79639576,2361,-302.5092318,-32768,8384,4255.859375,-8.022476882,-869
21.79639576,2361,-302.5092318,-32768,8512,4259.765625,-8.004013184,-867
21.79639576,2361,-302.5092318,-32768,8640,4263.671875,-8.022476882,-869
21.73177282,2354,-302.5092318,-32768,8768,4267.578125,-8.105563524,-878
21.66714988,2347,-302.5092318,-32768,8896,4271.484375,-8.188650166,-887
21.70407727,2351,-302.5092318,-32768,9024,4275.390625,-8.096331675,-877
21.74100467,2355,-302.5092318,-32768,9152,4279.296875,-8.087099826,-876
21.71330912,2352,-302.5092318,-32768,9280,4283.203125,-8.059404279,-873
21.78716391,2360,-302.5092318,-32768,9408,4287.109375,-8.04094058,-871
21.70407727,2351,-302.5092318,-32768,9536,4291.015625,-8.160954619,-884
21.74100467,2355,-302.5092318,-32768,9664,4294.921875,-8.077867977,-875
21.74100467,2355,-302.5092318,-32768,9792,4298.828125,-8.068636128,-874
21.87948241,2370,-302.5092318,-32768,9920,4302.734375,-7.911694693,-857
21.79639576,2361,-302.5092318,-32768,10048,4306.640625,-8.022476882,-869
21.69484542,2350,-302.5092318,-32768,10176,4310.546875,-8.124027223,-880
21.69484542,2350,-302.5092318,-32768,10304,4314.453125,-8.124027223,-880
21.70407727,2351,-302.5092318,-32768,10432,4318.359375,-8.133259072,-881
21.75946837,2357,-302.5092318,-32768,10560,4322.265625,-8.022476882,-869
21.72254097,2353,-302.5092318,-32768,10688,4326.171875,-8.077867977,-875
21.68561357,2349,-302.5092318,-32768,10816,4330.078125,-8.142490921,-882
21.72254097,2353,-302.5092318,-32768,10944,4333.984375,-8.105563524,-878
21.75023652,2356,-302.5092318,-32768,11072,4337.890625,-8.068636128,-874
21.77793207,2359,-302.5092318,-32768,11200,4341.796875,-7.948622089,-861
21.79639576,2361,-302.5092318,-32768,11328,4345.703125,-8.031708731,-870
21.79639576,2361,-302.5092318,-32768,11456,4349.609375,-8.031708731,-870
21.68561357,2349,-302.5092318,-32768,11584,4353.515625,-8.179418317,-886
21.69484542,2350,-302.5092318,-32768,11712,4357.421875,-8.124027223,-880
21.75946837,2357,-302.5092318,-32768,11840,4361.328125,-8.031708731,-870
21.70407727,2351,-302.5092318,-32768,11968,4365.234375,-8.087099826,-876
21.64868618,2345,-302.5092318,-32768,12096,4369.140625,-8.197882015,-888
21.67638173,2348,-302.5092318,-32768,12224,4373.046875,-8.197882015,-888
21.80562761,2362,-302.5092318,-32768,12352,4376.953125,-8.04094058,-871
21.78716391,2360,-302.5092318,-32768,12480,4380.859375,-8.013245033,-868
21.77793207,2359,-302.5092318,-32768,12608,4384.765625,-8.04094058,-871
21.75946837,2357,-302.5092318,-32768,12736,4388.671875,-8.059404279,-873
21.70407727,2351,-302.5092318,-32768,12864,4392.578125,-8.160954619,-884
21.74100467,2355,-302.5092318,-32768,12992,4396.484375,-8.096331675,-877
21.75023652,2356,-302.5092318,-32768,13120,4400.390625,-8.05017243,-872
21.77793207,2359,-302.5092318,-32768,13248,4404.296875,-8.059404279,-873
21.71330912,2352,-302.5092318,-32768,13376,4408.203125,-8.114795373,-879
21.67638173,2348,-302.5092318,-32768,13504,4412.109375,-8.207113865,-889
21.70407727,2351,-302.5092318,-32768,13632,4416.015625,-8.124027223,-880
21.73177282,2354,-302.5092318,-32768,13760,4419.921875,-8.096331675,-877
21.81485946,2363,-302.5092318,-32768,13888,4423.828125,-8.004013184,-867
21.78716391,2360,-302.5092318,-32768,14016,4427.734375,-8.031708731,-870
21.71330912,2352,-302.5092318,-32768,14144,4431.640625,-8.142490921,-882
21.75023652,2356,-302.5092318,-32768,14272,4435.546875,-8.068636128,-874
21.67638173,2348,-302.5092318,-32768,14400,4439.453125,-8.124027223,-880
21.75946837,2357,-302.5092318,-32768,14528,4443.359375,-8.068636128,-874
21.70407727,2351,-302.5092318,-32768,14656,4447.265625,-8.096331675,-877
21.70407727,2351,-302.5092318,-32768,14784,4451.171875,-8.15172277,-883
21.72254097,2353,-302.5092318,-32768,14912,4455.078125,-8.133259072,-881
21.74100467,2355,-302.5092318,-32768,15040,4458.984375,-8.114795373,-879
21.77793207,2359,-302.5092318,-32768,15168,4462.890625,-8.013245033,-868
21.77793207,2359,-302.5092318,-32768,15296,4466.796875,-8.096331675,-877
21.71330912,2352,-302.5092318,-32768,15424,4470.703125,-8.133259072,-881
21.74100467,2355,-302.5092318,-32768,15552,4474.609375,-8.105563524,-878
21.73177282,2354,-302.5092318,-32768,15680,4478.515625,-8.114795373,-879
21.80562761,2362,-302.5092318,-32768,15808,4482.421875,-7.976317637,-864
21.75946837,2357,-302.5092318,-32768,15936,4486.328125,-8.114795373,-879
21.67638173,2348,-302.5092318,-32768,16064,4490.234375,-8.124027223,-880
21.67638173,2348,-302.5092318,-32768,16192,4494.140625,-8.160954619,-884
21.71330912,2352,-302.5092318,-32768,16320,4498.046875,-8.133259072,-881
21.78716391,2360,-302.5092318,-32768,16448,4501.953125,-8.013245033,-868
21.76870022,2358,-302.5092318,-32768,16576,4505.859375,-8.077867977,-875
21.75946837,2357,-302.5092318,-32768,16704,4509.765625,-8.077867977,-875
21.68561357,2349,-302.5092318,-32768,16832,4513.671875,-8.207113865,-889
21.68561357,2349,-302.5092318,-32768,16960,4517.578125,-8.142490921,-882
21.77793207,2359,-302.5092318,-32768,17088,4521.484375,-8.04094058,-871
21.71330912,2352,-302.5092318,-32768,17216,4525.390625,-8.124027223,-880
21.74100467,2355,-302.5092318,-32768,17344,4529.296875,-8.087099826,-876
21.68561357,2349,-302.5092318,-32768,17472,4533.203125,-8.188650166,-887
21.75023652,2356,-302.5092318,-32768,17600,4537.109375,-8.077867977,-875
21.76870022,2358,-302.5092318,-32768,17728,4541.015625,-8.068636128,-874
21.73177282,2354,-302.5092318,-32768,17856,4544.921875,-8.096331675,-877
21.72254097,2353,-302.5092318,-32768,17984,4548.828125,-8.124027223,-880
21.66714988,2347,-302.5092318,-32768,18112,4552.734375,-8.207113865,-889
21.75023652,2356,-302.5092318,-32768,18240,4556.640625,-8.087099826,-876
21.79639576,2361,-302.5092318,-32768,18368,4560.546875,-8.04094058,-871
21.80562761,2362,-302.5092318,-32768,18496,4564.453125,-8.05017243,-872
21.75946837,2357,-302.5092318,-32768,18624,4568.359375,-8.096331675,-877
21.69484542,2350,-302.5092318,-32768,18752,4572.265625,-8.160954619,-884
21.78716391,2360,-302.5092318,-32768,18880,4576.171875,-8.077867977,-875
21.75023652,2356,-302.5092318,-32768,19008,4580.078125,-8.068636128,-874
21.80562761,2362,-302.5092318,-32768,19136,4583.984375,-8.04094058,-871
21.74100467,2355,-302.5092318,-32768,19264,4587.890625,-8.15172277,-883
21.70407727,2351,-302.5092318,-32768,19392,4591.796875,-8.216345714,-890
21.76870022,2358,-302.5092318,-32768,19520,4595.703125,-8.096331675,-877
21.85178686,2367,-302.5092318,-32768,19648,4599.609375,-8.059404279,-873
21.86101871,2368,-302.5092318,-32768,19776,4603.515625,-8.004013184,-867
21.84255501,2366,-302.5092318,-32768,19904,4607.421875,-8.022476882,-869
21.87025056,2369,-302.5092318,-32768,20032,4611.328125,-8.068636128,-874
21.84255501,2366,-302.5092318,-32768,20160,4615.234375,-8.087099826,-876
21.81485946,2363,-302.5092318,-32768,20288,4619.140625,-8.114795373,-879
21.85178686,2367,-302.5092318,-32768,20416,4623.046875,-7.994781335,-866
21.78716391,2360,-302.5092318,-32768,20544,4626.953125,-8.142490921,-882
21.81485946,2363,-302.5092318,-32768,20672,4630.859375,-8.124027223,-880
21.86101871,2368,-302.5092318,-32768,20800,4634.765625,-8.05017243,-872
21.86101871,2368,-302.5092318,-32768,20928,4638.671875,-8.022476882,-869
21.85178686,2367,-302.5092318,-32768,21056,4642.578125,-7.957853938,-862
21.81485946,2363,-302.5092318,-32768,21184,4646.484375,-8.031708731,-870
21.76870022,2358,-302.5092318,-32768,21312,4650.390625,-8.077867977,-875
21.71330912,2352,-302.5092318,-32768,21440,4654.296875,-8.124027223,-880
21.75946837,2357,-302.5092318,-32768,21568,4658.203125,-8.077867977,-875
21.84255501,2366,-302.5092318,-32768,21696,4662.109375,-7.985549486,-865
21.75946837,2357,-302.5092318,-32768,21824,4666.015625,-8.077867977,-875
21.75946837,2357,-302.5092318,-32768,21952,4669.921875,-8.087099826,-876
21.69484542,2350,-302.5092318,-32768,22080,4673.828125,-8.133259072,-881
21.71330912,2352,-302.5092318,-32768,22208,4677.734375,-8.087099826,-876
21.76870022,2358,-302.5092318,-32768,22336,4681.640625,-8.022476882,-869
21.75946837,2357,-302.5092318,-32768,22464,4685.546875,-8.031708731,-870
21.71330912,2352,-302.5092318,-32768,22592,4689.453125,-8.077867977,-875
21.65791803,2346,-302.5092318,-32768,22720,4693.359375,-8.160954619,-884
21.79639576,2361,-302.5092318,-32768,22848,4697.265625,-8.096331675,-877
21.71330912,2352,-302.5092318,-32768,22976,4701.171875,-8.031708731,-870
21.75946837,2357,-302.5092318,-32768,23104,4705.078125,-8.068636128,-874
21.70407727,2351,-302.5092318,-32768,23232,4708.984375,-8.105563524,-878
21.58406323,2338,-302.5092318,-32768,23360,4712.890625,-8.25327311,-894
21.68561357,2349,-302.5092318,-32768,23488,4716.796875,-8.133259072,-881
21.72254097,2353,-302.5092318,-32768,23616,4720.703125,-8.096331675,-877
21.76870022,2358,-302.5092318,-32768,23744,4724.609375,-8.004013184,-867
21.66714988,2347,-302.5092318,-32768,23872,4728.515625,-8.124027223,-880
21.66714988,2347,-302.5092318,-32768,24000,4732.421875,-8.197882015,-888
21.70407727,2351,-302.5092318,-32768,24128,4736.328125,-8.087099826,-876
21.67638173,2348,-302.5092318,-32768,24256,4740.234375,-8.15172277,-883
21.69484542,2350,-302.5092318,-32768,24384,4744.140625,-8.124027223,-880
21.61175878,2341,-302.5092318,-32768,24512,4748.046875,-8.216345714,-890
21.60252693,2340,-302.5092318,-32768,24640,4751.953125,-8.290200507,-898
21.55636769,2335,-302.5092318,-32768,24768,4755.859375,-8.197882015,-888
21.51020844,2330,-302.5092318,-32768,24896,4759.765625,-8.087099826,-876
21.68561357,2349,-302.5092318,-32768,25024,4763.671875,-7.708594012,-835
21.76870022,2358,-302.5092318,-32768,25152,4767.578125,-7.542420728,-817
22.12874233,2397,-302.5092318,-32768,25280,4771.484375,-7.440870388,-806
21.9902646,2382,-302.5092318,-32768,25408,4775.390625,-7.403942991,-802
22.15643788,2400,-302.5092318,-32768,25536,4779.296875,-7.579348125,-821
22.35030671,2421,-302.5092318,-32768,25664,4783.203125,-7.62550737,-826
22.14720603,2399,-302.5092318,-32768,25792,4787.109375,-7.948622089,-861
21.9718009,2380,-302.5092318,-32768,25920,4791.015625,-8.410214545,-911
21.81485946,2363,-302.5092318,-32768,26048,4794.921875,-8.539460433,-925
21.69484542,2350,-302.5092318,-32768,26176,4798.828125,-8.56715598,-928
21.58406323,2338,-302.5092318,-32768,26304,4802.734375,-8.447141942,-915
21.62099063,2342,-302.5092318,-32768,26432,4806.640625,-8.3640553,-906
21.73177282,2354,-302.5092318,-32768,26560,4810.546875,-8.216345714,-890
21.75946837,2357,-302.5092318,-32768,26688,4814.453125,-8.188650166,-887
21.73177282,2354,-302.5092318,-32768,26816,4818.359375,-8.15172277,-883
21.80562761,2362,-302.5092318,-32768,26944,4822.265625,-8.013245033,-868
21.80562761,2362,-302.5092318,-32768,27072,4826.171875,-8.04094058,-871
21.75023652,2356,-302.5092318,-32768,27200,4830.078125,-8.031708731,-870
21.67638173,2348,-302.5092318,-32768,27328,4833.984375,-8.124027223,-880
21.68561357,2349,-302.5092318,-32768,27456,4837.890625,-8.096331675,-877
21.76870022,2358,-302.5092318,-32768,27584,4841.796875,-8.031708731,-870
21.79639576,2361,-302.5092318,-32768,27712,4845.703125,-7.985549486,-865
21.73177282,2354,-302.5092318,-32768,27840,4849.609375,-8.031708731,-870
21.62099063,2342,-302.5092318,-32768,27968,4853.515625,-8.197882015,-888
21.65791803,2346,-302.5092318,-32768,28096,4857.421875,-8.105563524,-878
21.73177282,2354,-302.5092318,-32768,28224,4861.328125,-8.013245033,-868
21.67638173,2348,-302.5092318,-32768,28352,4865.234375,-8.059404279,-873
21.76870022,2358,-302.5092318,-32768,28480,4869.140625,-7.994781335,-866
21.67638173,2348,-302.5092318,-32768,28608,4873.046875,-8.114795373,-879
21.75946837,2357,-302.5092318,-32768,28736,4876.953125,-8.04094058,-871
21.75023652,2356,-302.5092318,-32768,28864,4880.859375,-8.031708731,-870
21.77793207,2359,-302.5092318,-32768,28992,4884.765625,-7.967085788,-863
21.72254097,2353,-302.5092318,-32768,29120,4888.671875,-8.04094058,-871
21.72254097,2353,-302.5092318,-32768,29248,4892.578125,-8.077867977,-875
21.70407727,2351,-302.5092318,-32768,29376,4896.484375,-8.022476882,-869
21.72254097,2353,-302.5092318,-32768,29504,4900.390625,-8.059404279,-873
21.66714988,2347,-302.5092318,-32768,29632,4904.296875,-8.013245033,-868
21.77793207,2359,-302.5092318,-32768,29760,4908.203125,-8.031708731,-870
21.67638173,2348,-302.5092318,-32768,29888,4912.109375,-8.05017243,-872
21.71330912,2352,-302.5092318,-32768,30016,4916.015625,-8.013245033,-868
21.75946837,2357,-302.5092318,-32768,30144,4919.921875,-8.004013184,-867
21.80562761,2362,-302.5092318,-32768,30272,4923.828125,-7.865535447,-852
21.74100467,2355,-302.5092318,-32768,30400,4927.734375,-8.004013184,-867
21.76870022,2358,-302.5092318,-32768,30528,4931.640625,-8.068636128,-874
21.73177282,2354,-302.5092318,-32768,30656,4935.546875,-8.022476882,-869
21.75023652,2356,-302.5092318,-32768,30784,4939.453125,-7.994781335,-866
21.82409131,2364,-302.5092318,-32768,30912,4943.359375,-7.883999145,-854
21.74100467,2355,-302.5092318,-32768,31040,4947.265625,-7.976317637,-864
21.75023652,2356,-302.5092318,-32768,31168,4951.171875,-7.976317637,-864
21.74100467,2355,-302.5092318,-32768,31296,4955.078125,-8.022476882,-869
21.77793207,2359,-302.5092318,-32768,31424,4958.984375,-7.948622089,-861
21.87025056,2369,-302.5092318,-32768,31552,4962.890625,-7.856303598,-851
21.83332316,2365,-302.5092318,-32768,31680,4966.796875,-7.930158391,-859
21.86101871,2368,-302.5092318,-32768,31808,4970.703125,-7.856303598,-851
21.72254097,2353,-302.5092318,-32768,31936,4974.609375,-8.004013184,-867
21.67638173,2348,-302.5092318,-32768,32064,4978.515625,-8.04094058,-871
21.74100467,2355,-302.5092318,-32768,32192,4982.421875,-7.920926542,-858
21.81485946,2363,-302.5092318,-32768,32320,4986.328125,-7.874767296,-853
21.80562761,2362,-302.5092318,-32768,32448,4990.234375,-7.902462844,-856
21.73177282,2354,-302.5092318,-32768,32576,4994.140625,-8.031708731,-870
21.80562761,2362,-302.5092318,-32768,32704,4998.046875,-7.911694693,-857
21.79639576,2361,-302.5092318,-32768,32832,5001.953125,-7.902462844,-856
21.85178686,2367,-302.5092318,-32768,32960,5005.859375,-7.856303598,-851
21.83332316,2365,-302.5092318,-32768,33088,5009.765625,-7.8378399,-849
21.73177282,2354,-302.5092318,-32768,33216,5013.671875,-8.013245033,-868
21.85178686,2367,-302.5092318,-32768,33344,5017.578125,-7.865535447,-852
21.9164098,2374,-302.5092318,-32768,33472,5021.484375,-7.782448805,-843
21.9164098,2374,-302.5092318,-32768,33600,5025.390625,-7.800912503,-845
21.88871426,2371,-302.5092318,-32768,33728,5029.296875,-7.847071749,-850
21.86101871,2368,-302.5092318,-32768,33856,5033.203125,-7.920926542,-858
21.87025056,2369,-302.5092318,-32768,33984,5037.109375,-7.893230995,-855
21.87948241,2370,-302.5092318,-32768,34112,5041.015625,-7.865535447,-852
21.92564165,2375,-302.5092318,-32768,34240,5044.921875,-7.754753258,-840
21.9164098,2374,-302.5092318,-32768,34368,5048.828125,-7.874767296,-853
21.9718009,2380,-302.5092318,-32768,34496,5052.734375,-7.93939024,-860
21.87025056,2369,-302.5092318,-32768,34624,5056.640625,-7.967085788,-863
21.87948241,2370,-302.5092318,-32768,34752,5060.546875,-7.865535447,-852
21.9902646,2382,-302.5092318,-32768,34880,5064.453125,-7.763985107,-841
21.9348735,2376,-302.5092318,-32768,35008,5068.359375,-7.856303598,-851
21.83332316,2365,-302.5092318,-32768,35136,5072.265625,-7.920926542,-858
21.81485946,2363,-302.5092318,-32768,35264,5076.171875,-7.985549486,-865
21.81485946,2363,-302.5092318,-32768,35392,5080.078125,-7.976317637,-864
21.87948241,2370,-302.5092318,-32768,35520,5083.984375,-7.883999145,-854
21.72254097,2353,-302.5092318,-32768,35648,5087.890625,-7.994781335,-866
21.73177282,2354,-302.5092318,-32768,35776,5091.796875,-8.031708731,-870
21.75023652,2356,-302.5092318,-32768,35904,5095.703125,-8.031708731,-870
21.75023652,2356,-302.5092318,-32768,36032,5099.609375,-8.031708731,-870
21.84255501,2366,-302.5092318,-32768,36160,5103.515625,-7.893230995,-855
21.77793207,2359,-302.5092318,-32768,36288,5107.421875,-8.013245033,-868
21.75023652,2356,-302.5092318,-32768,36416,5111.328125,-8.031708731,-870
21.72254097,2353,-302.5092318,-32768,36544,5115.234375,-8.096331675,-877
21.78716391,2360,-302.5092318,-32768,36672,5119.140625,-8.013245033,-868
21.78716391,2360,-302.5092318,-32768,36800,5123.046875,-7.957853938,-862
21.71330912,2352,-302.5092318,-32768,36928,5126.953125,-8.059404279,-873
21.75946837,2357,-302.5092318,-32768,37056,5130.859375,-8.004013184,-867
21.71330912,2352,-302.5092318,-32768,37184,5134.765625,-8.077867977,-875
21.73177282,2354,-302.5092318,-32768,37312,5138.671875,-8.059404279,-873
21.71330912,2352,-302.5092318,-32768,37440,5142.578125,-8.087099826,-876
21.71330912,2352,-302.5092318,-32768,37568,5146.484375,-8.059404279,-873
21.71330912,2352,-302.5092318,-32768,37696,5150.390625,-8.04094058,-871
21.62099063,2342,-302.5092318,-32768,37824,5154.296875,-8.207113865,-889
21.90717795,2373,-302.5092318,-32768,37952,5158.203125,-7.920926542,-858
21.90717795,2373,-302.5092318,-32768,38080,5162.109375,-7.893230995,-855
21.86101871,2368,-302.5092318,-32768,38208,5166.015625,-7.893230995,-855
21.75946837,2357,-302.5092318,-32768,38336,5169.921875,-8.004013184,-867
21.63945433,2344,-302.5092318,-32768,38464,5173.828125,-8.188650166,-887
21.72254097,2353,-302.5092318,-32768,38592,5177.734375,-8.068636128,-874
21.76870022,2358,-302.5092318,-32768,38720,5181.640625,-8.068636128,-874
21.78716391,2360,-302.5092318,-32768,38848,5185.546875,-7.967085788,-863
21.75023652,2356,-302.5092318,-32768,38976,5189.453125,-7.994781335,-866
21.69484542,2350,-302.5092318,-32768,39104,5193.359375,-8.105563524,-878
21.78716391,2360,-302.5092318,-32768,39232,5197.265625,-8.05017243,-872
21.74100467,2355,-302.5092318,-32768,39360,5201.171875,-8.031708731,-870
21.85178686,2367,-302.5092318,-32768,39488,5205.078125,-7.976317637,-864
21.76870022,2358,-302.5092318,-32768,39616,5208.984375,-8.031708731,-870
21.75946837,2357,-302.5092318,-32768,39744,5212.890625,-8.077867977,-875
21.75023652,2356,-302.5092318,-32768,39872,5216.796875,-8.114795373,-879
21.70407727,2351,-302.5092318,-32768,40000,5220.703125,-8.077867977,-875
21.85178686,2367,-302.5092318,-32768,40128,5224.609375,-7.902462844,-856
21.73177282,2354,-302.5092318,-32768,40256,5228.515625,-8.04094058,-871
21.70407727,2351,-302.5092318,-32768,40384,5232.421875,-8.096331675,-877
21.64868618,2345,-302.5092318,-32768,40512,5236.328125,-8.142490921,-882
21.75023652,2356,-302.5092318,-32768,40640,5240.234375,-8.04094058,-871
21.86101871,2368,-302.5092318,-32768,40768,5244.140625,-7.911694693,-857
21.75023652,2356,-302.5092318,-32768,40896,5248.046875,-8.05017243,-872
21.66714988,2347,-302.5092318,-32768,41024,5251.953125,-8.133259072,-881
21.71330912,2352,-302.5092318,-32768,41152,5255.859375,-8.105563524,-878
21.82409131,2364,-302.5092318,-32768,41280,5259.765625,-7.976317637,-864
21.87025056,2369,-302.5092318,-32768,41408,5263.671875,-7.902462844,-856
21.80562761,2362,-302.5092318,-32768,41536,5267.578125,-7.957853938,-862
21.78716391,2360,-302.5092318,-32768,41664,5271.484375,-8.004013184,-867
21.67638173,2348,-302.5092318,-32768,41792,5275.390625,-8.124027223,-880
21.75946837,2357,-302.5092318,-32768,41920,5279.296875,-8.05017243,-872
21.77793207,2359,-302.5092318,-32768,42048,5283.203125,-7.967085788,-863
21.76870022,2358,-302.5092318,-32768,42176,5287.109375,-8.004013184,-867
21.75023652,2356,-302.5092318,-32768,42304,5291.015625,-8.031708731,-870
21.72254097,2353,-302.5092318,-32768,42432,5294.921875,-8.124027223,-880
21.75023652,2356,-302.5092318,-32768,42560,5298.828125,-8.04094058,-871
21.75023652,2356,-302.5092318,-32768,42688,5302.734375,-8.022476882,-869
21.80562761,2362,-302.5092318,-32768,42816,5306.640625,-7.994781335,-866
21.70407727,2351,-302.5092318,-32768,42944,5310.546875,-8.059404279,-873
21.71330912,2352,-302.5092318,-32768,43072,5314.453125,-8.124027223,-880
21.79639576,2361,-302.5092318,-32768,43200,5318.359375,-8.022476882,-869
21.72254097,2353,-302.5092318,-32768,43328,5322.265625,-8.05017243,-872
21.73177282,2354,-302.5092318,-32768,43456,5326.171875,-8.05017243,-872
21.71330912,2352,-302.5092318,-32768,43584,5330.078125,-8.087099826,-876
21.63022248,2343,-302.5092318,-32768,43712,5333.984375,-8.197882015,-888
21.73177282,2354,-302.5092318,-32768,43840,5337.890625,-8.059404279,-873
21.74100467,2355,-302.5092318,-32768,43968,5341.796875,-8.068636128,-874
21.77793207,2359,-302.5092318,-32768,44096,5345.703125,-7.967085788,-863
21.73177282,2354,-302.5092318,-32768,44224,5349.609375,-8.04094058,-871
21.68561357,2349,-302.5092318,-32768,44352,5353.515625,-8.142490921,-882
21.74100467,2355,-302.5092318,-32768,44480,5357.421875,-8.105563524,-878
21.67638173,2348,-302.5092318,-32768,44608,5361.328125,-8.105563524,-878
21.8979461,2372,-302.5092318,-32768,44736,5365.234375,-7.902462844,-856
21.70407727,2351,-302.5092318,-32768,44864,5369.140625,-8.05017243,-872
21.75946837,2357,-302.5092318,-32768,44992,5373.046875,-8.059404279,-873
21.75023652,2356,-302.5092318,-32768,45120,5376.953125,-8.059404279,-873
21.75946837,2357,-302.5092318,-32768,45248,5380.859375,-8.05017243,-872
21.79639576,2361,-302.5092318,-32768,45376,5384.765625,-7.967085788,-863
21.75023652,2356,-302.5092318,-32768,45504,5388.671875,-8.077867977,-875
21.73177282,2354,-302.5092318,-32768,45632,5392.578125,-8.096331675,-877
21.68561357,2349,-302.5092318,-32768,45760,5396.484375,-8.133259072,-881
21.72254097,2353,-302.5092318,-32768,45888,5400.390625,-8.096331675,-877
21.80562761,2362,-302.5092318,-32768,46016,5404.296875,-7.976317637,-864
21.75023652,2356,-302.5092318,-32768,46144,5408.203125,-8.068636128,-874
21.78716391,2360,-302.5092318,-32768,46272,5412.109375,-8.031708731,-870
21.75023652,2356,-302.5092318,-32768,46400,5416.015625,-8.142490921,-882
21.79639576,2361,-302.5092318,-32768,46528,5419.921875,-8.068636128,-874
21.86101871,2368,-302.5092318,-32768,46656,5423.828125,-7.967085788,-863
21.79639576,2361,-302.5092318,-32768,46784,5427.734375,-8.031708731,-870
21.81485946,2363,-302.5092318,-32768,46912,5431.640625,-8.059404279,-873
21.74100467,2355,-302.5092318,-32768,47040,5435.546875,-8.15172277,-883
21.78716391,2360,-302.5092318,-32768,47168,5439.453125,-8.059404279,-873
21.83332316,2365,-302.5092318,-32768,47296,5443.359375,-7.976317637,-864
21.78716391,2360,-302.5092318,-32768,47424,5447.265625,-8.077867977,-875
21.87948241,2370,-302.5092318,-32768,47552,5451.171875,-7.985549486,-865
21.84255501,2366,-302.5092318,-32768,47680,5455.078125,-8.124027223,-880
21.88871426,2371,-302.5092318,-32768,47808,5458.984375,-7.994781335,-866
21.92564165,2375,-302.5092318,-32768,47936,5462.890625,-7.948622089,-861
21.84255501,2366,-302.5092318,-32768,48064,5466.796875,-7.994781335,-866
21.88871426,2371,-302.5092318,-32768,48192,5470.703125,-7.985549486,-865
21.77793207,2359,-302.5092318,-32768,48320,5474.609375,-8.05017243,-872
21.81485946,2363,-302.5092318,-32768,48448,5478.515625,-7.985549486,-865
21.81485946,2363,-302.5092318,-32768,48576,5482.421875,-8.004013184,-867
21.74100467,2355,-302.5092318,-32768,48704,5486.328125,-8.05017243,-872
21.69484542,2350,-302.5092318,-32768,48832,5490.234375,-8.087099826,-876
21.66714988,2347,-302.5092318,-32768,48960,5494.140625,-8.160954619,-884
21.71330912,2352,-302.5092318,-32768,49088,5498.046875,-8.05017243,-872
21.77793207,2359,-302.5092318,-32768,49216,5501.953125,-8.059404279,-873
21.80562761,2362,-302.5092318,-32768,49344,5505.859375,-8.004013184,-867
21.70407727,2351,-302.5092318,-32768,49472,5509.765625,-8.031708731,-870
21.70407727,2351,-302.5092318,-32768,49600,5513.671875,-8.114795373,-879
21.69484542,2350,-302.5092318,-32768,49728,5517.578125,-8.096331675,-877
21.75023652,2356,-302.5092318,-32768,49856,5521.484375,-8.022476882,-869
21.78716391,2360,-302.5092318,-32768,49984,5525.390625,-7.957853938,-862
21.69484542,2350,-302.5092318,-32768,50112,5529.296875,-8.096331675,-877
21.67638173,2348,-302.5092318,-32768,50240,5533.203125,-8.124027223,-880
21.61175878,2341,-302.5092318,-32768,50368,5537.109375,-8.15172277,-883
21.63945433,2344,-302.5092318,-32768,50496,5541.015625,-8.096331675,-877
21.75023652,2356,-302.5092318,-32768,50624,5544.921875,-7.948622089,-861
21.70407727,2351,-302.5092318,-32768,50752,5548.828125,-8.05017243,-872
21.70407727,2351,-302.5092318,-32768,50880,5552.734375,-8.077867977,-875
21.63022248,2343,-302.5092318,-32768,51008,5556.640625,-8.142490921,-882
21.69484542,2350,-302.5092318,-32768,51136,5560.546875,-8.105563524,-878
21.77793207,2359,-302.5092318,-32768,51264,5564.453125,-7.985549486,-865
21.74100467,2355,-302.5092318,-32768,51392,5568.359375,-8.013245033,-868
21.75023652,2356,-302.5092318,-32768,51520,5572.265625,-7.994781335,-866
21.70407727,2351,-302.5092318,-32768,51648,5576.171875,-8.105563524,-878
21.71330912,2352,-302.5092318,-32768,51776,5580.078125,-8.105563524,-878
21.66714988,2347,-302.5092318,-32768,51904,5583.984375,-8.059404279,-873
21.52867214,2332,-302.5092318,-32768,52032,5587.890625,-8.160954619,-884
21.4455855,2323,-302.5092318,-32768,52160,5591.796875,-8.133259072,-881
21.41788995,2320,-302.5092318,-32768,52288,5595.703125,-8.068636128,-874
21.64868618,2345,-302.5092318,-32768,52416,5599.609375,-7.643971068,-828
21.8979461,2372,-302.5092318,-32768,52544,5603.515625,-7.431638539,-805
22.22106082,2407,-302.5092318,-32768,52672,5607.421875,-7.42240669,-804
22.02719199,2386,-302.5092318,-32768,52800,5611.328125,-7.514725181,-814
22.12874233,2397,-302.5092318,-32768,52928,5615.234375,-7.883999145,-854
22.09181494,2393,-302.5092318,-32768,53056,5619.140625,-7.847071749,-850
21.99949644,2383,-302.5092318,-32768,53184,5623.046875,-8.114795373,-879
21.9348735,2376,-302.5092318,-32768,53312,5626.953125,-8.373287149,-907
21.79639576,2361,-302.5092318,-32768,53440,5630.859375,-8.46560564,-917
21.55636769,2335,-302.5092318,-32768,53568,5634.765625,-8.604083377,-932
21.65791803,2346,-302.5092318,-32768,53696,5638.671875,-8.35482345,-905
21.72254097,2353,-302.5092318,-32768,53824,5642.578125,-8.25327311,-894
21.78716391,2360,-302.5092318,-32768,53952,5646.484375,-8.04094058,-871
21.74100467,2355,-302.5092318,-32768,54080,5650.390625,-8.105563524,-878
21.69484542,2350,-302.5092318,-32768,54208,5654.296875,-8.133259072,-881
21.73177282,2354,-302.5092318,-32768,54336,5658.203125,-8.105563524,-878
21.66714988,2347,-302.5092318,-32768,54464,5662.109375,-8.124027223,-880
21.80562761,2362,-302.5092318,-32768,54592,5666.015625,-7.957853938,-862
21.69484542,2350,-302.5092318,-32768,54720,5669.921875,-8.068636128,-874
21.70407727,2351,-302.5092318,-32768,54848,5673.828125,-8.068636128,-874
21.73177282,2354,-302.5092318,-32768,54976,5677.734375,-8.087099826,-876
21.77793207,2359,-302.5092318,-32768,55104,5681.640625,-7.985549486,-865
21.84255501,2366,-302.5092318,-32768,55232,5685.546875,-7.902462844,-856
21.73177282,2354,-302.5092318,-32768,55360,5689.453125,-8.004013184,-867
21.72254097,2353,-302.5092318,-32768,55488,5693.359375,-8.068636128,-874
21.71330912,2352,-302.5092318,-32768,55616,5697.265625,-8.087099826,-876
21.75023652,2356,-302.5092318,-32768,55744,5701.171875,-8.031708731,-870
21.75946837,2357,-302.5092318,-32768,55872,5705.078125,-7.93939024,-860
21.75946837,2357,-302.5092318,-32768,56000,5708.984375,-8.013245033,-868
21.75946837,2357,-302.5092318,-32768,56128,5712.890625,-8.004013184,-867
21.72254097,2353,-302.5092318,-32768,56256,5716.796875,-8.05017243,-872
21.76870022,2358,-302.5092318,-32768,56384,5720.703125,-7.957853938,-862
21.78716391,2360,-302.5092318,-32768,56512,5724.609375,-7.93939024,-860
21.75946837,2357,-302.5092318,-32768,56640,5728.515625,-8.004013184,-867
21.72254097,2353,-302.5092318,-32768,56768,5732.421875,-7.967085788,-863
21.67638173,2348,-302.5092318,-32768,56896,5736.328125,-8.114795373,-879
21.74100467,2355,-302.5092318,-32768,57024,5740.234375,-7.985549486,-865
21.75023652,2356,-302.5092318,-32768,57152,5744.140625,-7.948622089,-861
21.77793207,2359,-302.5092318,-32768,57280,5748.046875,-7.93939024,-860
21.86101871,2368,-302.5092318,-32768,57408,5751.953125,-7.957853938,-862
21.82409131,2364,-302.5092318,-32768,57536,5755.859375,-7.985549486,-865
21.83332316,2365,-302.5092318,-32768,57664,5759.765625,-7.893230995,-855
21.76870022,2358,-302.5092318,-32768,57792,5763.671875,-7.948622089,-861
21.73177282,2354,-302.5092318,-32768,57920,5767.578125,-8.004013184,-867
21.78716391,2360,-302.5092318,-32768,58048,5771.484375,-7.948622089,-861
21.72254097,2353,-302.5092318,-32768,58176,5775.390625,-8.059404279,-873
21.75023652,2356,-302.5092318,-32768,58304,5779.296875,-7.994781335,-866
21.75946837,2357,-302.5092318,-32768,58432,5783.203125,-7.948622089,-861
21.78716391,2360,-302.5092318,-32768,58560,5787.109375,-7.893230995,-855
21.77793207,2359,-302.5092318,-32768,58688,5791.015625,-7.930158391,-859
21.72254097,2353,-302.5092318,-32768,58816,5794.921875,-7.994781335,-866
21.79639576,2361,-302.5092318,-32768,58944,5798.828125,-7.93939024,-860
21.75023652,2356,-302.5092318,-32768,59072,5802.734375,-7.930158391,-859
21.8979461,2372,-302.5092318,-32768,59200,5806.640625,-7.810144353,-846
21.79639576,2361,-302.5092318,-32768,59328,5810.546875,-7.911694693,-857
21.83332316,2365,-302.5092318,-32768,59456,5814.453125,-7.948622089,-861
21.77793207,2359,-302.5092318,-32768,59584,5818.359375,-7.911694693,-857
21.86101871,2368,-302.5092318,-32768,59712,5822.265625,-7.874767296,-853
21.90717795,2373,-302.5092318,-32768,59840,5826.171875,-7.763985107,-841
21.83332316,2365,-302.5092318,-32768,59968,5830.078125,-7.865535447,-852
21.81485946,2363,-302.5092318,-32768,60096,5833.984375,-7.930158391,-859
21.84255501,2366,-302.5092318,-32768,60224,5837.890625,-7.883999145,-854
21.85178686,2367,-302.5092318,-32768,60352,5841.796875,-7.874767296,-853
21.87948241,2370,-302.5092318,-32768,60480,5845.703125,-7.763985107,-841
21.87025056,2369,-302.5092318,-32768,60608,5849.609375,-7.865535447,-852
21.83332316,2365,-302.5092318,-32768,60736,5853.515625,-7.874767296,-853
21.87025056,2369,-302.5092318,-32768,60864,5857.421875,-7.856303598,-851
21.8979461,2372,-302.5092318,-32768,60992,5861.328125,-7.828608051,-848
21.9533372,2378,-302.5092318,-32768,61120,5865.234375,-7.745521409,-839
21.9533372,2378,-302.5092318,-32768,61248,5869.140625,-7.763985107,-841
21.9533372,2378,-302.5092318,-32768,61376,5873.046875,-7.800912503,-845
21.85178686,2367,-302.5092318,-32768,61504,5876.953125,-7.967085788,-863
21.87025056,2369,-302.5092318,-32768,61632,5880.859375,-7.920926542,-858
21.94410535,2377,-302.5092318,-32768,61760,5884.765625,-7.847071749,-850
22.00872829,2384,-302.5092318,-32768,61888,5888.671875,-7.828608051,-848
21.9533372,2378,-302.5092318,-32768,62016,5892.578125,-7.828608051,-848
21.88871426,2371,-302.5092318,-32768,62144,5896.484375,-7.948622089,-861
21.87025056,2369,-302.5092318,-32768,62272,5900.390625,-7.920926542,-858
21.85178686,2367,-302.5092318,-32768,62400,5904.296875,-7.920926542,-858
21.88871426,2371,-302.5092318,-32768,62528,5908.203125,-7.893230995,-855
21.8979461,2372,-302.5092318,-32768,62656,5912.109375,-7.902462844,-856
21.83332316,2365,-302.5092318,-32768,62784,5916.015625,-7.994781335,-866
21.82409131,2364,-302.5092318,-32768,62912,5919.921875,-7.93939024,-860
21.82409131,2364,-302.5092318,-32768,63040,5923.828125,-7.957853938,-862
21.83332316,2365,-302.5092318,-32768,63168,5927.734375,-7.93939024,-860
21.77793207,2359,-302.5092318,-32768,63296,5931.640625,-8.004013184,-867
21.75023652,2356,-302.5092318,-32768,63424,5935.546875,-8.068636128,-874
21.80562761,2362,-302.5092318,-32768,63552,5939.453125,-8.013245033,-868
21.82409131,2364,-302.5092318,-32768,63680,5943.359375,-7.967085788,-863
21.83332316,2365,-302.5092318,-32768,63808,5947.265625,-7.902462844,-856
21.75946837,2357,-302.5092318,-32768,63936,5951.171875,-8.004013184,-867
21.71330912,2352,-302.5092318,-32768,64064,5955.078125,-8.068636128,-874
21.76870022,2358,-302.5092318,-32768,64192,5958.984375,-8.022476882,-869
21.77793207,2359,-302.5092318,-32768,64320,5962.890625,-8.05017243,-872
21.82409131,2364,-302.5092318,-32768,64448,5966.796875,-7.911694693,-857
21.81485946,2363,-302.5092318,-32768,64576,5970.703125,-8.022476882,-869
21.77793207,2359,-302.5092318,-32768,64704,5974.609375,-8.05017243,-872
21.76870022,2358,-302.5092318,-32768,64832,5978.515625,-8.031708731,-870
21.77793207,2359,-302.5092318,-32768,64960,5982.421875,-8.022476882,-869
21.80562761,2362,-302.5092318,-32768,65088,5986.328125,-7.957853938,-862
21.77793207,2359,-302.5092318,-32768,65216,5990.234375,-8.059404279,-873
21.66714988,2347,-302.5092318,-32768,65344,5994.140625,-8.096331675,-877
21.74100467,2355,-302.5092318,-32768,65472,5998.046875,-8.068636128,-874
21.81485946,2363,-302.5092318,-32768,64,6001.953125,-7.976317637,-864
21.87948241,2370,-302.5092318,-32768,192,6005.859375,-7.893230995,-855
21.82409131,2364,-302.5092318,-32768,320,6009.765625,-7.967085788,-863
21.78716391,2360,-302.5092318,-32768,448,6013.671875,-8.022476882,-869
21.76870022,2358,-302.5092318,-32768,576,6017.578125,-8.05017243,-872
21.80562761,2362,-302.5092318,-32768,704,6021.484375,-7.967085788,-863
21.87025056,2369,-302.5092318,-32768,832,6025.390625,-7.911694693,-857
21.79639576,2361,-302.5092318,-32768,960,6029.296875,-7.985549486,-865
21.83332316,2365,-302.5092318,-32768,1088,6033.203125,-7.985549486,-865
21.71330912,2352,-302.5092318,-32768,1216,6037.109375,-8.105563524,-878
21.81485946,2363,-302.5092318,-32768,1344,6041.015625,-8.004013184,-867
21.79639576,2361,-302.5092318,-32768,1472,6044.921875,-7.976317637,-864
21.81485946,2363,-302.5092318,-32768,1600,6048.828125,-8.013245033,-868
21.80562761,2362,-302.5092318,-32768,1728,6052.734375,-7.976317637,-864
21.75023652,2356,-302.5092318,-32768,1856,6056.640625,-8.105563524,-878
21.83332316,2365,-302.5092318,-32768,1984,6060.546875,-7.985549486,-865
21.83332316,2365,-302.5092318,-32768,2112,6064.453125,-7.93939024,-860
21.77793207,2359,-302.5092318,-32768,2240,6068.359375,-8.004013184,-867
21.76870022,2358,-302.5092318,-32768,2368,6072.265625,-8.022476882,-869
21.78716391,2360,-302.5092318,-32768,2496,6076.171875,-8.068636128,-874
21.81485946,2363,-302.5092318,-32768,2624,6080.078125,-8.013245033,-868
21.77793207,2359,-302.5092318,-32768,2752,6083.984375,-8.013245033,-868
21.76870022,2358,-302.5092318,-32768,2880,6087.890625,-8.013245033,-868
21.80562761,2362,-302.5092318,-32768,3008,6091.796875,-7.985549486,-865
21.73177282,2354,-302.5092318,-32768,3136,6095.703125,-8.114795373,-879
21.79639576,2361,-302.5092318,-32768,3264,6099.609375,-8.013245033,-868
21.79639576,2361,-302.5092318,-32768,3392,6103.515625,-8.022476882,-869
21.87025056,2369,-302.5092318,-32768,3520,6107.421875,-7.930158391,-859
21.81485946,2363,-302.5092318,-32768,3648,6111.328125,-8.004013184,-867
21.77793207,2359,-302.5092318,-32768,3776,6115.234375,-8.077867977,-875
21.78716391,2360,-302.5092318,-32768,3904,6119.140625,-8.04094058,-871
21.87948241,2370,-302.5092318,-32768,4032,6123.046875,-7.985549486,-865
21.94410535,2377,-302.5092318,-32768,4160,6126.953125,-7.893230995,-855
21.77793207,2359,-302.5092318,-32768,4288,6130.859375,-8.022476882,-869
21.73177282,2354,-302.5092318,-32768,4416,6134.765625,-8.096331675,-877
21.75023652,2356,-302.5092318,-32768,4544,6138.671875,-8.087099826,-876
21.75946837,2357,-302.5092318,-32768,4672,6142.578125,-8.04094058,-871
21.81485946,2363,-302.5092318,-32768,4800,6146.484375,-7.893230995,-855
21.88871426,2371,-302.5092318,-32768,4928,6150.390625,-7.985549486,-865
21.82409131,2364,-302.5092318,-32768,5056,6154.296875,-7.976317637,-864
21.75946837,2357,-302.5092318,-32768,5184,6158.203125,-8.096331675,-877
21.72254097,2353,-302.5092318,-32768,5312,6162.109375,-8.077867977,-875
21.80562761,2362,-302.5092318,-32768,5440,6166.015625,-7.994781335,-866
21.79639576,2361,-302.5092318,-32768,5568,6169.921875,-8.04094058,-871
21.83332316,2365,-302.5092318,-32768,5696,6173.828125,-8.031708731,-870
21.73177282,2354,-302.5092318,-32768,5824,6177.734375,-8.105563524,-878
21.75023652,2356,-302.5092318,-32768,5952,6181.640625,-8.031708731,-870
21.82409131,2364,-302.5092318,-32768,6080,6185.546875,-7.976317637,-864
21.78716391,2360,-302.5092318,-32768,6208,6189.453125,-8.031708731,-870
21.82409131,2364,-302.5092318,-32768,6336,6193.359375,-8.004013184,-867
21.77793207,2359,-302.5092318,-32768,6464,6197.265625,-8.105563524,-878
21.9533372,2378,-302.5092318,-32768,6592,6201.171875,-7.985549486,-865
21.83332316,2365,-302.5092318,-32768,6720,6205.078125,-7.994781335,-866
21.83332316,2365,-302.5092318,-32768,6848,6208.984375,-8.031708731,-870
21.78716391,2360,-302.5092318,-32768,6976,6212.890625,-8.068636128,-874
21.77793207,2359,-302.5092318,-32768,7104,6216.796875,-8.133259072,-881
21.90717795,2373,-302.5092318,-32768,7232,6220.703125,-7.967085788,-863
21.94410535,2377,-302.5092318,-32768,7360,6224.609375,-7.957853938,-862
21.92564165,2375,-302.5092318,-32768,7488,6228.515625,-7.920926542,-858
21.86101871,2368,-302.5092318,-32768,7616,6232.421875,-7.985549486,-865
21.81485946,2363,-302.5092318,-32768,7744,6236.328125,-8.124027223,-880
21.83332316,2365,-302.5092318,-32768,7872,6240.234375,-8.096331675,-877
21.8979461,2372,-302.5092318,-32768,8000,6244.140625,-8.022476882,-869
21.9533372,2378,-302.5092318,-32768,8128,6248.046875,-7.948622089,-861
21.8979461,2372,-302.5092318,-32768,8256,6251.953125,-7.985549486,-865
21.87948241,2370,-302.5092318,-32768,8384,6255.859375,-8.031708731,-870
21.9164098,2374,-302.5092318,-32768,8512,6259.765625,-8.004013184,-867
21.80562761,2362,-302.5092318,-32768,8640,6263.671875,-7.985549486,-865
21.87948241,2370,-302.5092318,-32768,8768,6267.578125,-7.920926542,-858
21.79639576,2361,-302.5092318,-32768,8896,6271.484375,-8.022476882,-869
21.77793207,2359,-302.5092318,-32768,9024,6275.390625,-8.059404279,-873
21.75946837,2357,-302.5092318,-32768,9152,6279.296875,-8.031708731,-870
21.79639576,2361,-302.5092318,-32768,9280,6283.203125,-8.04094058,-871
21.85178686,2367,-302.5092318,-32768,9408,6287.109375,-7.93939024,-860
21.80562761,2362,-302.5092318,-32768,9536,6291.015625,-8.05017243,-872
21.74100467,2355,-302.5092318,-32768,9664,6294.921875,-8.087099826,-876
21.73177282,2354,-302.5092318,-32768,9792,6298.828125,-8.114795373,-879
21.79639576,2361,-302.5092318,-32768,9920,6302.734375,-8.04094058,-871
21.81485946,2363,-302.5092318,-32768,10048,6306.640625,-7.948622089,-861
21.79639576,2361,-302.5092318,-32768,10176,6310.546875,-8.022476882,-869
21.77793207,2359,-302.5092318,-32768,10304,6314.453125,-8.022476882,-869
21.68561357,2349,-302.5092318,-32768,10432,6318.359375,-8.105563524,-878
21.79639576,2361,-302.5092318,-32768,10560,6322.265625,-8.022476882,-869
21.78716391,2360,-302.5092318,-32768,10688,6326.171875,-7.957853938,-862
21.75946837,2357,-302.5092318,-32768,10816,6330.078125,-8.031708731,-870
21.70407727,2351,-302.5092318,-32768,10944,6333.984375,-8.077867977,-875
21.66714988,2347,-302.5092318,-32768,11072,6337.890625,-8.188650166,-887
21.69484542,2350,-302.5092318,-32768,11200,6341.796875,-8.059404279,-873
21.78716391,2360,-302.5092318,-32768,11328,6345.703125,-8.004013184,-867
21.77793207,2359,-302.5092318,-32768,11456,6349.609375,-7.976317637,-864
21.79639576,2361,-302.5092318,-32768,11584,6353.515625,-7.976317637,-864
21.67638173,2348,-302.5092318,-32768,11712,6357.421875,-8.142490921,-882
21.77793207,2359,-302.5092318,-32768,11840,6361.328125,-7.994781335,-866
21.75023652,2356,-302.5092318,-32768,11968,6365.234375,-8.031708731,-870
21.73177282,2354,-302.5092318,-32768,12096,6369.140625,-8.124027223,-880
21.67638173,2348,-302.5092318,-32768,12224,6373.046875,-8.133259072,-881
