Device,Device,Device,Device,Device,Device,Device,Device
ECG LL-RA,ECG LL-RA,ECG Vx-RL,ECG Vx-RL,Timestamp,Timestamp,ECG LA-RA,ECG LA-RA
RAW,CAL,CAL,RAW,CAL,RAW,RAW,CAL
No Units,mV,mV,No Units,mSecs,No Units,No Units,mV
-1,-0.009231849,-302.5092318,-32768,1.953125,64,0,0
-1728,-15.95263527,-302.5092318,-32768,5.859375,192,-1177,-10.86588641
-1700,-15.6941435,-1.209372234,-131,9.765625,320,-1175,-10.84742271
-1662,-15.34333323,-1.338618122,-145,13.671875,448,-1171,-10.81049532
-1600,-14.77095859,-0.147709586,-16,17.578125,576,-1151,-10.62585833
-1383,-12.76764733,-4.726706748,-512,37.109375,1216,-1150,-10.61662648
-1480,-13.66313669,-1.117053743,-121,44.921875,1472,-1148,-10.59816279
-1565,-14.44784387,-1.172444838,-127,48.828125,1600,-1149,-10.60739463
-1601,-14.78019044,-1.181676687,-128,52.734375,1728,-1141,-10.53353984
-1608,-14.84481338,-0.895489364,-97,56.640625,1856,-1129,-10.42275765
-1602,-14.78942228,-1.117053743,-121,60.546875,1984,-1108,-10.22888882
-1606,-14.82634968,-1.04319895,-113,64.453125,2112,-1112,-10.26581622
-1599,-14.76172674,-0.849330119,-92,68.359375,2240,-1105,-10.20119327
-1598,-14.75249489,-1.181676687,-128,72.265625,2368,-1119,-10.33043916
-1587,-14.65094455,-1.033967101,-112,76.171875,2496,-1100,-10.15503403
-1581,-14.59555345,-1.024735252,-111,80.078125,2624,-1094,-10.09964293
-1590,-14.6786401,-0.960112308,-104,83.984375,2752,-1101,-10.16426588
-1583,-14.61401715,-1.033967101,-112,87.890625,2880,-1104,-10.19196142
-1583,-14.61401715,-1.024735252,-111,91.796875,3008,-1098,-10.13657033
-1580,-14.5863216,-1.04319895,-113,95.703125,3136,-1098,-10.13657033
-1569,-14.48477126,-0.895489364,-97,99.609375,3264,-1083,-9.998092593
-1576,-14.54939421,-0.636997589,-69,103.515625,3392,-1091,-10.07194739
-1586,-14.6417127,-1.033967101,-112,107.421875,3520,-1103,-10.18272958
-1585,-14.63248085,-0.009231849,-1,111.328125,3648,-1107,-10.21965697
-1574,-14.53093051,-1.181676687,-128,115.234375,3776,-1096,-10.11810663
-1575,-14.54016236,-0.960112308,-104,119.140625,3904,-1090,-10.06271554
-1576,-14.54939421,-0.590838343,-64,123.046875,4032,-1096,-10.11810663
-1580,-14.5863216,-0.895489364,-97,126.953125,4160,-1091,-10.07194739
-1575,-14.54016236,-1.04319895,-113,130.859375,4288,-1095,-10.10887478
-1570,-14.49400311,-0.563142796,-61,134.765625,4416,-1082,-9.988860744
-1566,-14.45707572,-0.267723624,-29,138.671875,4544,-1079,-9.961165197
-1568,-14.47553941,-0.230796228,-25,142.578125,4672,-1082,-9.988860744
-1568,-14.47553941,-0.895489364,-97,146.484375,4800,-1089,-10.05348369
-1576,-14.54939421,-0.895489364,-97,150.390625,4928,-1098,-10.13657033
-1556,-14.36475723,-0.452360607,-49,154.296875,5056,-1078,-9.951933348
-1564,-14.43861202,-0.286187323,-31,158.203125,5184,-1075,-9.9242378
-1558,-14.38322092,-0.046159246,-5,162.109375,5312,-1068,-9.859614856
-1559,-14.39245277,-0.009231849,-1,166.015625,5440,-1076,-9.933469649
-1572,-14.51246681,-0.581606494,-63,169.921875,5568,-1094,-10.09964293
-1556,-14.36475723,-0.369273965,-40,173.828125,5696,-1067,-9.850383007
-1548,-14.29090243,-0.249259926,-27,177.734375,5824,-1072,-9.896542253
-1529,-14.1154973,-0.036927396,-4,181.640625,5952,-1051,-9.702673421
-1547,-14.28167058,-0.073854793,-8,185.546875,6080,-1071,-9.887310404
-1545,-14.26320688,-0.009231849,-1,189.453125,6208,-1067,-9.850383007
-1542,-14.23551134,-0.083086642,-9,193.359375,6336,-1063,-9.813455611
-1545,-14.26320688,-0.295419172,-32,197.265625,6464,-1058,-9.767296365
-1521,-14.04164251,-0.221564379,-24,201.171875,6592,-1041,-9.61035493
-1536,-14.18012024,-0.590838343,-64,205.078125,6720,-1066,-9.841151158
-1537,-14.18935209,-0.295419172,-32,208.984375,6848,-1062,-9.804223762
-1530,-14.12472915,-0.147709586,-16,212.890625,6976,-1052,-9.711905271
-1531,-14.133961,-0.009231849,-1,216.796875,7104,-1052,-9.711905271
-1515,-13.98625141,-0.018463698,-2,220.703125,7232,-1046,-9.656514176
-1527,-14.0970336,-0.295419172,-32,224.609375,7360,-1056,-9.748832667
-1533,-14.1524247,-0.581606494,-63,228.515625,7488,-1065,-9.831919309
-1526,-14.08780175,-0.046159246,-5,232.421875,7616,-1056,-9.748832667
-1524,-14.06933805,-0.286187323,-31,236.328125,7744,-1055,-9.739600818
-1517,-14.00471511,-0.156941435,-17,240.234375,7872,-1040,-9.601123081
-1523,-14.0601062,-0.120014039,-13,244.140625,8000,-1053,-9.72113712
-1526,-14.08780175,-0.295419172,-32,248.046875,8128,-1058,-9.767296365
-1521,-14.04164251,-0.073854793,-8,251.953125,8256,-1055,-9.739600818
-1519,-14.02317881,-0.156941435,-17,255.859375,8384,-1051,-9.702673421
-1520,-14.03241066,-0.175405133,-19,259.765625,8512,-1043,-9.628818628
-1531,-14.133961,-0.31388287,-34,263.671875,8640,-1058,-9.767296365
-1543,-14.24474319,-0.563142796,-61,267.578125,8768,-1066,-9.841151158
-1552,-14.32782983,-0.147709586,-16,271.484375,8896,-1077,-9.942701498
-1547,-14.28167058,-0.590838343,-64,275.390625,9024,-1069,-9.868846706
-1545,-14.26320688,-0.480056154,-52,279.296875,9152,-1059,-9.776528214
-1548,-14.29090243,-0.5262154,-57,283.203125,9280,-1069,-9.868846706
-1545,-14.26320688,-0.009231849,-1,287.109375,9408,-1061,-9.794991913
-1561,-14.41091647,-0.018463698,-2,291.015625,9536,-1073,-9.905774102
-1557,-14.37398907,-0.064622944,-7,294.921875,9664,-1066,-9.841151158
-1564,-14.43861202,-0.009231849,-1,298.828125,9792,-1065,-9.831919309
-1568,-14.47553941,-0.563142796,-61,302.734375,9920,-1069,-9.868846706
-1564,-14.43861202,-0.009231849,-1,306.640625,10048,-1066,-9.841151158
-1573,-14.52169866,-0.286187323,-31,310.546875,10176,-1077,-9.942701498
-1565,-14.44784387,-0.036927396,-4,314.453125,10304,-1070,-9.878078555
-1563,-14.42938017,-0.009231849,-1,318.359375,10432,-1067,-9.850383007
-1567,-14.46630757,-0.073854793,-8,322.265625,10560,-1069,-9.868846706
-1571,-14.50323496,-0.027695547,-3,326.171875,10688,-1073,-9.905774102
-1573,-14.52169866,-0.221564379,-24,330.078125,10816,-1082,-9.988860744
-1562,-14.42014832,-0.452360607,-49,333.984375,10944,-1083,-9.998092593
-1565,-14.44784387,-0.064622944,-7,337.890625,11072,-1079,-9.961165197
-1575,-14.54016236,-0.609302042,-66,341.796875,11200,-1090,-10.06271554
-1560,-14.40168462,-0.258491775,-28,345.703125,11328,-1083,-9.998092593
-1579,-14.57708975,-0.775475326,-84,349.609375,11456,-1107,-10.21965697
-1567,-14.46630757,-0.923184912,-100,353.515625,11584,-1095,-10.10887478
-1572,-14.51246681,-0.664693136,-72,357.421875,11712,-1093,-10.09041108
-1570,-14.49400311,-0.036927396,-4,361.328125,11840,-1091,-10.07194739
-1570,-14.49400311,-0.600070193,-65,365.234375,11968,-1090,-10.06271554
-1571,-14.50323496,-0.904721213,-98,369.140625,12096,-1099,-10.14580218
-1568,-14.47553941,-0.895489364,-97,373.046875,12224,-1088,-10.04425184
-1568,-14.47553941,-0.120014039,-13,376.953125,12352,-1085,-10.01655629
-1579,-14.57708975,-0.009231849,-1,380.859375,12480,-1081,-9.979628895
-1569,-14.48477126,-0.009231849,-1,384.765625,12608,-1083,-9.998092593
-1582,-14.6047853,-0.895489364,-97,388.671875,12736,-1091,-10.07194739
-1562,-14.42014832,-0.590838343,-64,392.578125,12864,-1075,-9.9242378
-1568,-14.47553941,-0.064622944,-7,396.484375,12992,-1074,-9.915005951
-1564,-14.43861202,-0.147709586,-16,400.390625,13120,-1070,-9.878078555
-1569,-14.48477126,-0.590838343,-64,404.296875,13248,-1073,-9.905774102
-1577,-14.55862606,-0.073854793,-8,408.203125,13376,-1084,-10.00732444
-1575,-14.54016236,-0.046159246,-5,412.109375,13504,-1068,-9.859614856
-1579,-14.57708975,-0.018463698,-2,416.015625,13632,-1074,-9.915005951
-1557,-14.37398907,-0.258491775,-28,419.921875,13760,-1052,-9.711905271
-1567,-14.46630757,-0.009231849,-1,423.828125,13888,-1063,-9.813455611
-1575,-14.54016236,-0.018463698,-2,427.734375,14016,-1068,-9.859614856
-1576,-14.54939421,-0.138477737,-15,431.640625,14144,-1069,-9.868846706
-1569,-14.48477126,-0.009231849,-1,435.546875,14272,-1059,-9.776528214
-1572,-14.51246681,-0.110782189,-12,439.453125,14400,-1060,-9.785760063
-1570,-14.49400311,-0.563142796,-61,443.359375,14528,-1061,-9.794991913
-1574,-14.53093051,-0.055391095,-6,447.265625,14656,-1067,-9.850383007
-1571,-14.50323496,-0.064622944,-7,451.171875,14784,-1060,-9.785760063
-1573,-14.52169866,-0.036927396,-4,455.078125,14912,-1060,-9.785760063
-1569,-14.48477126,-0.276955473,-30,458.984375,15040,-1050,-9.693441572
-1565,-14.44784387,-0.147709586,-16,462.890625,15168,-1052,-9.711905271
-1582,-14.6047853,-0.009231849,-1,466.796875,15296,-1058,-9.767296365
-1567,-14.46630757,-0.009231849,-1,470.703125,15424,-1054,-9.730368969
-1574,-14.53093051,-0.009231849,-1,474.609375,15552,-1064,-9.82268746
-1559,-14.39245277,-0.147709586,-16,478.515625,15680,-1045,-9.647282327
-1577,-14.55862606,-0.452360607,-49,482.421875,15808,-1061,-9.794991913
-1579,-14.57708975,-0.009231849,-1,486.328125,15936,-1064,-9.82268746
-1581,-14.59555345,-0.073854793,-8,490.234375,16064,-1062,-9.804223762
-1568,-14.47553941,-0.064622944,-7,494.140625,16192,-1061,-9.794991913
-1571,-14.50323496,-0.295419172,-32,498.046875,16320,-1051,-9.702673421
-1570,-14.49400311,-0.147709586,-16,501.953125,16448,-1056,-9.748832667
-1577,-14.55862606,-0.064622944,-7,505.859375,16576,-1061,-9.794991913
-1578,-14.56785791,-0.147709586,-16,509.765625,16704,-1068,-9.859614856
-1565,-14.44784387,-0.018463698,-2,513.671875,16832,-1056,-9.748832667
-1558,-14.38322092,-0.129245888,-14,517.578125,16960,-1045,-9.647282327
-1559,-14.39245277,-0.452360607,-49,521.484375,17088,-1061,-9.794991913
-1564,-14.43861202,-0.138477737,-15,525.390625,17216,-1057,-9.758064516
-1576,-14.54939421,-0.009231849,-1,529.296875,17344,-1066,-9.841151158
-1573,-14.52169866,-0.5262154,-57,533.203125,17472,-1068,-9.859614856
-1554,-14.34629353,-0.221564379,-24,537.109375,17600,-1047,-9.665746025
-1562,-14.42014832,-0.31388287,-34,541.015625,17728,-1060,-9.785760063
-1552,-14.32782983,-0.009231849,-1,544.921875,17856,-1049,-9.684209723
-1566,-14.45707572,-0.009231849,-1,548.828125,17984,-1060,-9.785760063
-1567,-14.46630757,-0.120014039,-13,552.734375,18112,-1054,-9.730368969
-1571,-14.50323496,-0.009231849,-1,556.640625,18240,-1055,-9.739600818
-1569,-14.48477126,-0.147709586,-16,560.546875,18368,-1057,-9.758064516
-1575,-14.54016236,-0.147709586,-16,564.453125,18496,-1061,-9.794991913
-1575,-14.54016236,-0.009231849,-1,568.359375,18624,-1073,-9.905774102
-1572,-14.51246681,-0.073854793,-8,572.265625,18752,-1061,-9.794991913
-1571,-14.50323496,-0.480056154,-52,576.171875,18880,-1060,-9.785760063
-1573,-14.52169866,-0.563142796,-61,580.078125,19008,-1061,-9.794991913
-1579,-14.57708975,-0.5262154,-57,583.984375,19136,-1066,-9.841151158
-1590,-14.6786401,-0.156941435,-17,587.890625,19264,-1078,-9.951933348
-1582,-14.6047853,-0.009231849,-1,591.796875,19392,-1066,-9.841151158
-1571,-14.50323496,-0.590838343,-64,595.703125,19520,-1060,-9.785760063
-1576,-14.54939421,-0.120014039,-13,599.609375,19648,-1059,-9.776528214
-1576,-14.54939421,-0.083086642,-9,603.515625,19776,-1063,-9.813455611
-1584,-14.623249,-0.009231849,-1,607.421875,19904,-1067,-9.850383007
-1575,-14.54016236,-0.009231849,-1,611.328125,20032,-1057,-9.758064516
-1574,-14.53093051,-0.5262154,-57,615.234375,20160,-1059,-9.776528214
-1575,-14.54016236,-0.073854793,-8,619.140625,20288,-1047,-9.665746025
-1577,-14.55862606,-0.295419172,-32,623.046875,20416,-1056,-9.748832667
-1589,-14.66940825,-0.120014039,-13,626.953125,20544,-1069,-9.868846706
-1575,-14.54016236,-0.295419172,-32,630.859375,20672,-1056,-9.748832667
-1589,-14.66940825,-0.286187323,-31,634.765625,20800,-1051,-9.702673421
-1585,-14.63248085,-0.027695547,-3,638.671875,20928,-1031,-9.518036439
-1606,-14.82634968,-0.036927396,-4,642.578125,21056,-1036,-9.564195685
-1606,-14.82634968,-0.147709586,-16,646.484375,21184,-1040,-9.601123081
-1585,-14.63248085,-4.726706748,-512,650.390625,21312,-1024,-9.453413495
-1561,-14.41091647,-0.092318491,-10,654.296875,21440,-1034,-9.545731986
-1531,-14.133961,-4.726706748,-512,658.203125,21568,-1023,-9.444181646
-1506,-13.90316477,-0.147709586,-16,662.109375,21696,-1040,-9.601123081
-1468,-13.5523545,-0.304651021,-33,666.015625,21824,-1057,-9.758064516
-1398,-12.90612506,-0.009231849,-1,669.921875,21952,-1052,-9.711905271
-1348,-12.44453261,-0.470824305,-51,673.828125,22080,-1079,-9.961165197
-1324,-12.22296823,-0.009231849,-1,677.734375,22208,-1060,-9.785760063
-1367,-12.61993774,-0.138477737,-15,681.640625,22336,-1052,-9.711905271
-1408,-12.99844356,-0.295419172,-32,685.546875,22464,-1054,-9.730368969
-1479,-13.65390484,-0.5262154,-57,689.453125,22592,-1075,-9.9242378
-1526,-14.08780175,-0.295419172,-32,693.359375,22720,-1055,-9.739600818
-1553,-14.33706168,-0.027695547,-3,697.265625,22848,-1047,-9.665746025
-1582,-14.6047853,-0.230796228,-25,701.171875,22976,-1050,-9.693441572
-1578,-14.56785791,-0.009231849,-1,705.078125,23104,-1044,-9.638050478
-1560,-14.40168462,-0.073854793,-8,708.984375,23232,-1029,-9.499572741
-1569,-14.48477126,-0.018463698,-2,712.890625,23360,-1038,-9.582659383
-1553,-14.33706168,-4.726706748,-512,716.796875,23488,-1017,-9.388790551
-1566,-14.45707572,-0.009231849,-1,720.703125,23616,-1033,-9.536500137
-1564,-14.43861202,-4.662083804,-505,724.609375,23744,-1020,-9.416486099
-1580,-14.5863216,-0.156941435,-17,728.515625,23872,-1045,-9.647282327
-1574,-14.53093051,-0.110782189,-12,732.421875,24000,-1036,-9.564195685
-1566,-14.45707572,-4.726706748,-512,736.328125,24128,-1021,-9.425717948
-1579,-14.57708975,-0.009231849,-1,740.234375,24256,-1035,-9.554963836
-1574,-14.53093051,-0.009231849,-1,744.140625,24384,-1025,-9.462645344
-1574,-14.53093051,-0.009231849,-1,748.046875,24512,-1030,-9.50880459
-1566,-14.45707572,-0.009231849,-1,751.953125,24640,-1025,-9.462645344
-1567,-14.46630757,-4.662083804,-505,755.859375,24768,-1020,-9.416486099
-1567,-14.46630757,-4.726706748,-512,759.765625,24896,-1024,-9.453413495
-1574,-14.53093051,-4.726706748,-512,763.671875,25024,-1023,-9.444181646
-1571,-14.50323496,-0.083086642,-9,767.578125,25152,-1033,-9.536500137
-1564,-14.43861202,-4.717474899,-511,771.484375,25280,-1019,-9.40725425
-1569,-14.48477126,-4.652851955,-504,775.390625,25408,-1016,-9.379558702
-1560,-14.40168462,-4.726706748,-512,779.296875,25536,-1012,-9.342631306
-1560,-14.40168462,-4.689779351,-508,783.203125,25664,-1012,-9.342631306
-1568,-14.47553941,-4.6990112,-509,787.109375,25792,-1021,-9.425717948
-1564,-14.43861202,-4.606692709,-499,791.015625,25920,-1011,-9.333399457
-1564,-14.43861202,-4.726706748,-512,794.921875,26048,-1010,-9.324167608
-1557,-14.37398907,-4.588229011,-497,798.828125,26176,-1012,-9.342631306
-1553,-14.33706168,-4.726706748,-512,802.734375,26304,-1008,-9.305703909
-1569,-14.48477126,-4.717474899,-511,806.640625,26432,-1023,-9.444181646
-1562,-14.42014832,-4.59746086,-498,810.546875,26560,-1012,-9.342631306
-1548,-14.29090243,-4.662083804,-505,814.453125,26688,-1003,-9.259544664
-1554,-14.34629353,-4.458983123,-483,818.359375,26816,-1003,-9.259544664
-1554,-14.34629353,-4.542069765,-492,822.265625,26944,-1004,-9.268776513
-1556,-14.36475723,-4.717474899,-511,826.171875,27072,-1019,-9.40725425
-1552,-14.32782983,-4.726706748,-512,830.078125,27200,-1008,-9.305703909
-1544,-14.25397504,-4.569765313,-495,833.984375,27328,-996,-9.19492172
-1541,-14.22627949,-4.662083804,-505,837.890625,27456,-991,-9.148762474
-1540,-14.21704764,-4.209723197,-456,841.796875,27584,-992,-9.157994324
-1547,-14.28167058,-4.560533464,-494,845.703125,27712,-1006,-9.287240211
-1530,-14.12472915,-4.440519425,-481,849.609375,27840,-993,-9.167226173
-1534,-14.16165654,-4.440519425,-481,853.515625,27968,-997,-9.204153569
-1527,-14.0970336,-4.28357799,-464,857.421875,28096,-992,-9.157994324
505,4.662083804,-0.018463698,-2,861.328125,28224,13820,127.5841548
-989,-9.130298776,-4.726706748,-512,873.046875,28608,-32768,-302.5092318
-10244,-94.57106235,-3.840449232,-416,876.953125,28736,25472,235.1536607
-1523,-14.0601062,-2.363353374,-256,880.859375,28864,-996,-9.19492172
-1520,-14.03241066,-4.689779351,-508,884.765625,28992,-1010,-9.324167608
-1517,-14.00471511,-4.49591052,-487,888.671875,29120,-1002,-9.250312815
-1527,-14.0970336,-4.726706748,-512,892.578125,29248,-1009,-9.314935759
-1520,-14.03241066,-4.578997162,-496,896.484375,29376,-1003,-9.259544664
-1531,-14.133961,-4.689779351,-508,900.390625,29504,-1015,-9.370326853
-1544,-14.25397504,-4.726706748,-512,904.296875,29632,-1028,-9.490340892
-1532,-14.14319285,-4.726706748,-512,908.203125,29760,-1022,-9.434949797
-1543,-14.24474319,-0.018463698,-2,912.109375,29888,-1033,-9.536500137
-1538,-14.19858394,-4.726706748,-512,916.015625,30016,-1023,-9.444181646
-1547,-14.28167058,-0.018463698,-2,919.921875,30144,-1036,-9.564195685
-1542,-14.23551134,-0.120014039,-13,923.828125,30272,-1032,-9.527268288
-1554,-14.34629353,-0.295419172,-32,927.734375,30400,-1048,-9.674977874
-1555,-14.35552538,-0.009231849,-1,931.640625,30528,-1038,-9.582659383
-1568,-14.47553941,-0.009231849,-1,935.546875,30656,-1039,-9.591891232
-1571,-14.50323496,-0.036927396,-4,939.453125,30784,-1047,-9.665746025
-1573,-14.52169866,-0.073854793,-8,943.359375,30912,-1053,-9.72113712
-1574,-14.53093051,-0.286187323,-31,947.265625,31040,-1055,-9.739600818
-1569,-14.48477126,-0.286187323,-31,951.171875,31168,-1044,-9.638050478
-1573,-14.52169866,-0.027695547,-3,955.078125,31296,-1043,-9.628818628
-1568,-14.47553941,-0.009231849,-1,958.984375,31424,-1047,-9.665746025
-1565,-14.44784387,-0.138477737,-15,962.890625,31552,-1042,-9.619586779
-1575,-14.54016236,-0.036927396,-4,966.796875,31680,-1061,-9.794991913
-1568,-14.47553941,-0.267723624,-29,970.703125,31808,-1054,-9.730368969
-1571,-14.50323496,-0.147709586,-16,974.609375,31936,-1048,-9.674977874
-1575,-14.54016236,-0.009231849,-1,978.515625,32064,-1053,-9.72113712
-1579,-14.57708975,-0.295419172,-32,982.421875,32192,-1057,-9.758064516
-1576,-14.54939421,-0.018463698,-2,986.328125,32320,-1061,-9.794991913
-1564,-14.43861202,-0.286187323,-31,990.234375,32448,-1047,-9.665746025
-1580,-14.5863216,-0.138477737,-15,994.140625,32576,-1053,-9.72113712
-1567,-14.46630757,-0.036927396,-4,998.046875,32704,-1060,-9.785760063
-1568,-14.47553941,-0.092318491,-10,1001.953125,32832,-1048,-9.674977874
-1589,-14.66940825,-0.009231849,-1,1005.859375,32960,-1078,-9.951933348
-1570,-14.49400311,-0.073854793,-8,1009.765625,33088,-1056,-9.748832667
-1568,-14.47553941,-0.147709586,-16,1013.671875,33216,-1053,-9.72113712
-1579,-14.57708975,-0.147709586,-16,1017.578125,33344,-1062,-9.804223762
-1579,-14.57708975,-0.295419172,-32,1021.484375,33472,-1058,-9.767296365
-1580,-14.5863216,-0.590838343,-64,1025.390625,33600,-1069,-9.868846706
-1572,-14.51246681,-0.295419172,-32,1029.296875,33728,-1056,-9.748832667
-1575,-14.54016236,-0.553910947,-60,1033.203125,33856,-1059,-9.776528214
-1571,-14.50323496,-0.304651021,-33,1037.109375,33984,-1057,-9.758064516
-1568,-14.47553941,-0.073854793,-8,1041.015625,34112,-1054,-9.730368969
-1584,-14.623249,-0.563142796,-61,1044.921875,34240,-1075,-9.9242378
-1580,-14.5863216,-0.009231849,-1,1048.828125,34368,-1064,-9.82268746
-1573,-14.52169866,-0.267723624,-29,1052.734375,34496,-1053,-9.72113712
-1572,-14.51246681,-0.046159246,-5,1056.640625,34624,-1047,-9.665746025
-1577,-14.55862606,-0.129245888,-14,1060.546875,34752,-1051,-9.702673421
-1584,-14.623249,-0.018463698,-2,1064.453125,34880,-1067,-9.850383007
-1572,-14.51246681,-0.295419172,-32,1068.359375,35008,-1055,-9.739600818
-1577,-14.55862606,-0.295419172,-32,1072.265625,35136,-1056,-9.748832667
-1573,-14.52169866,-0.120014039,-13,1076.171875,35264,-1054,-9.730368969
-1577,-14.55862606,-0.147709586,-16,1080.078125,35392,-1056,-9.748832667
-1579,-14.57708975,-0.5262154,-57,1083.984375,35520,-1066,-9.841151158
-1571,-14.50323496,-0.295419172,-32,1087.890625,35648,-1051,-9.702673421
-1571,-14.50323496,-0.295419172,-32,1091.796875,35776,-1051,-9.702673421
-1567,-14.46630757,-0.073854793,-8,1095.703125,35904,-1046,-9.656514176
-1581,-14.59555345,-0.304651021,-33,1099.609375,36032,-1058,-9.767296365
-1576,-14.54939421,-0.240028077,-26,1103.515625,36160,-1056,-9.748832667
-1573,-14.52169866,-0.018463698,-2,1107.421875,36288,-1056,-9.748832667
-1584,-14.623249,-0.452360607,-49,1111.328125,36416,-1058,-9.767296365
-1569,-14.48477126,-0.009231849,-1,1115.234375,36544,-1039,-9.591891232
-1595,-14.72479934,-0.489288003,-53,1119.140625,36672,-1065,-9.831919309
-1580,-14.5863216,-0.553910947,-60,1123.046875,36800,-1060,-9.785760063
-1576,-14.54939421,-0.018463698,-2,1126.953125,36928,-1052,-9.711905271
-1572,-14.51246681,-0.286187323,-31,1130.859375,37056,-1049,-9.684209723
-1570,-14.49400311,-0.073854793,-8,1134.765625,37184,-1046,-9.656514176
-1577,-14.55862606,-0.258491775,-28,1138.671875,37312,-1055,-9.739600818
-1571,-14.50323496,-0.138477737,-15,1142.578125,37440,-1047,-9.665746025
-1588,-14.6601764,-0.083086642,-9,1146.484375,37568,-1066,-9.841151158
-1571,-14.50323496,-0.221564379,-24,1150.390625,37696,-1046,-9.656514176
-1579,-14.57708975,-0.009231849,-1,1154.296875,37824,-1039,-9.591891232
-1575,-14.54016236,-0.240028077,-26,1158.203125,37952,-1050,-9.693441572
-1582,-14.6047853,-0.221564379,-24,1162.109375,38080,-1055,-9.739600818
-1587,-14.65094455,-0.452360607,-49,1166.015625,38208,-1059,-9.776528214
-1578,-14.56785791,-0.276955473,-30,1169.921875,38336,-1048,-9.674977874
-1575,-14.54016236,-0.027695547,-3,1173.828125,38464,-1039,-9.591891232
-1571,-14.50323496,-0.018463698,-2,1177.734375,38592,-1045,-9.647282327
-1574,-14.53093051,-0.073854793,-8,1181.640625,38720,-1046,-9.656514176
-1586,-14.6417127,-0.5262154,-57,1185.546875,38848,-1057,-9.758064516
-1580,-14.5863216,-0.470824305,-51,1189.453125,38976,-1063,-9.813455611
-1565,-14.44784387,-0.036927396,-4,1193.359375,39104,-1031,-9.518036439
-1576,-14.54939421,-0.009231849,-1,1197.265625,39232,-1053,-9.72113712
-1577,-14.55862606,-0.230796228,-25,1201.171875,39360,-1050,-9.693441572
-1577,-14.55862606,-0.452360607,-49,1205.078125,39488,-1057,-9.758064516
-1575,-14.54016236,-0.230796228,-25,1208.984375,39616,-1049,-9.684209723
-1566,-14.45707572,-0.10155034,-11,1212.890625,39744,-1041,-9.61035493
-1572,-14.51246681,-0.286187323,-31,1216.796875,39872,-1051,-9.702673421
-1578,-14.56785791,-0.138477737,-15,1220.703125,40000,-1056,-9.748832667
-1581,-14.59555345,-0.516983551,-56,1224.609375,40128,-1063,-9.813455611
-1567,-14.46630757,-0.221564379,-24,1228.515625,40256,-1048,-9.674977874
-1561,-14.41091647,-0.009231849,-1,1232.421875,40384,-1045,-9.647282327
-1575,-14.54016236,-0.073854793,-8,1236.328125,40512,-1055,-9.739600818
-1562,-14.42014832,-0.009231849,-1,1240.234375,40640,-1042,-9.619586779
-1571,-14.50323496,-0.267723624,-29,1244.140625,40768,-1055,-9.739600818
-1566,-14.45707572,-0.120014039,-13,1248.046875,40896,-1044,-9.638050478
-1559,-14.39245277,-0.092318491,-10,1251.953125,41024,-1046,-9.656514176
-1563,-14.42938017,-0.018463698,-2,1255.859375,41152,-1046,-9.656514176
-1577,-14.55862606,-0.009231849,-1,1259.765625,41280,-1051,-9.702673421
-1575,-14.54016236,-0.452360607,-49,1263.671875,41408,-1057,-9.758064516
-1569,-14.48477126,-0.018463698,-2,1267.578125,41536,-1042,-9.619586779
-1571,-14.50323496,-0.147709586,-16,1271.484375,41664,-1040,-9.601123081
-1582,-14.6047853,-0.295419172,-32,1275.390625,41792,-1046,-9.656514176
-1576,-14.54939421,-0.018463698,-2,1279.296875,41920,-1042,-9.619586779
-1586,-14.6417127,-0.295419172,-32,1283.203125,42048,-1057,-9.758064516
-1577,-14.55862606,-0.184636982,-20,1287.109375,42176,-1047,-9.665746025
-1579,-14.57708975,-0.286187323,-31,1291.015625,42304,-1046,-9.656514176
-1580,-14.5863216,-0.147709586,-16,1294.921875,42432,-1041,-9.61035493
-1583,-14.61401715,-0.073854793,-8,1298.828125,42560,-1046,-9.656514176
-1591,-14.68787194,-0.009231849,-1,1302.734375,42688,-1057,-9.758064516
-1585,-14.63248085,-0.046159246,-5,1306.640625,42816,-1045,-9.647282327
-1581,-14.59555345,-0.009231849,-1,1310.546875,42944,-1045,-9.647282327
-1576,-14.54939421,-0.147709586,-16,1314.453125,43072,-1036,-9.564195685
-1579,-14.57708975,-0.073854793,-8,1318.359375,43200,-1046,-9.656514176
-1588,-14.6601764,-0.046159246,-5,1322.265625,43328,-1055,-9.739600818
-1576,-14.54939421,-0.286187323,-31,1326.171875,43456,-1040,-9.601123081
-1576,-14.54939421,-0.295419172,-32,1330.078125,43584,-1039,-9.591891232
-1575,-14.54016236,-0.009231849,-1,1333.984375,43712,-1037,-9.573427534
-1574,-14.53093051,-0.147709586,-16,1337.890625,43840,-1036,-9.564195685
-1580,-14.5863216,-0.147709586,-16,1341.796875,43968,-1038,-9.582659383
-1588,-14.6601764,-0.083086642,-9,1345.703125,44096,-1034,-9.545731986
-1598,-14.75249489,-0.018463698,-2,1349.609375,44224,-1026,-9.471877194
-1595,-14.72479934,-4.726706748,-512,1353.515625,44352,-1010,-9.324167608
-1596,-14.73403119,-0.009231849,-1,1357.421875,44480,-1025,-9.462645344
-1578,-14.56785791,-4.726706748,-512,1361.328125,44608,-1032,-9.527268288
-1554,-14.34629353,-0.046159246,-5,1365.234375,44736,-1040,-9.601123081
-1521,-14.04164251,-0.009231849,-1,1369.140625,44864,-1035,-9.554963836
-1473,-13.59851375,-0.036927396,-4,1373.046875,44992,-1024,-9.453413495
-1443,-13.32155828,-0.258491775,-28,1376.953125,45120,-1044,-9.638050478
-1382,-12.75841548,-0.018463698,-2,1380.859375,45248,-1062,-9.804223762
-1348,-12.44453261,-0.295419172,-32,1384.765625,45376,-1080,-9.970397046
-1338,-12.35221412,-0.027695547,-3,1388.671875,45504,-1063,-9.813455611
-1372,-12.66609699,-0.156941435,-17,1392.578125,45632,-1045,-9.647282327
-1445,-13.34002197,-0.572374645,-62,1396.484375,45760,-1066,-9.841151158
-1516,-13.99548326,-0.073854793,-8,1400.390625,45888,-1064,-9.82268746
-1557,-14.37398907,-0.009231849,-1,1404.296875,46016,-1054,-9.730368969
-1576,-14.54939421,-0.120014039,-13,1408.203125,46144,-1053,-9.72113712
-1577,-14.55862606,-0.009231849,-1,1412.109375,46272,-1038,-9.582659383
-1572,-14.51246681,-0.046159246,-5,1416.015625,46400,-1030,-9.50880459
-1570,-14.49400311,-0.009231849,-1,1419.921875,46528,-1031,-9.518036439
-1567,-14.46630757,-0.009231849,-1,1423.828125,46656,-1033,-9.536500137
-1577,-14.55862606,-0.184636982,-20,1427.734375,46784,-1044,-9.638050478
-1559,-14.39245277,-4.726706748,-512,1431.640625,46912,-1022,-9.434949797
-1575,-14.54016236,-0.156941435,-17,1435.546875,47040,-1042,-9.619586779
-1573,-14.52169866,-0.147709586,-16,1439.453125,47168,-1036,-9.564195685
-1578,-14.56785791,-0.009231849,-1,1443.359375,47296,-1040,-9.601123081
-1575,-14.54016236,-0.018463698,-2,1447.265625,47424,-1038,-9.582659383
-1565,-14.44784387,-0.018463698,-2,1451.171875,47552,-1027,-9.481109043
-1567,-14.46630757,-4.726706748,-512,1455.078125,47680,-1024,-9.453413495
-1577,-14.55862606,-0.018463698,-2,1458.984375,47808,-1036,-9.564195685
-1572,-14.51246681,-0.073854793,-8,1462.890625,47936,-1040,-9.601123081
-1571,-14.50323496,-0.064622944,-7,1466.796875,48064,-1031,-9.518036439
-1556,-14.36475723,-4.726706748,-512,1470.703125,48192,-1014,-9.361095004
-1571,-14.50323496,-0.138477737,-15,1474.609375,48320,-1033,-9.536500137
-1567,-14.46630757,-0.009231849,-1,1478.515625,48448,-1026,-9.471877194
-1579,-14.57708975,-0.009231849,-1,1482.421875,48576,-1039,-9.591891232
-1556,-14.36475723,-4.726706748,-512,1486.328125,48704,-1019,-9.40725425
-1559,-14.39245277,-4.708243049,-510,1490.234375,48832,-1019,-9.40725425
-1563,-14.42938017,-0.018463698,-2,1494.140625,48960,-1026,-9.471877194
-1558,-14.38322092,-4.726706748,-512,1498.046875,49088,-1022,-9.434949797
-1566,-14.45707572,-0.083086642,-9,1501.953125,49216,-1034,-9.545731986
-1569,-14.48477126,-0.009231849,-1,1505.859375,49344,-1025,-9.462645344
-1556,-14.36475723,-4.726706748,-512,1509.765625,49472,-1024,-9.453413495
-1555,-14.35552538,-4.6990112,-509,1513.671875,49600,-1022,-9.434949797
-1558,-14.38322092,-4.726706748,-512,1517.578125,49728,-1016,-9.379558702
-1563,-14.42938017,-0.009231849,-1,1521.484375,49856,-1029,-9.499572741
-1560,-14.40168462,-4.708243049,-510,1525.390625,49984,-1018,-9.398022401
-1550,-14.30936613,-4.717474899,-511,1529.296875,50112,-1020,-9.416486099
-1548,-14.29090243,-4.717474899,-511,1533.203125,50240,-1015,-9.370326853
-1549,-14.30013428,-4.726706748,-512,1537.109375,50368,-1016,-9.379558702
-1545,-14.26320688,-4.588229011,-497,1541.015625,50496,-1013,-9.351863155
-1548,-14.29090243,-4.717474899,-511,1544.921875,50624,-1023,-9.444181646
-1540,-14.21704764,-4.662083804,-505,1548.828125,50752,-1010,-9.324167608
-1537,-14.18935209,-2.335657826,-253,1552.734375,50880,-1005,-9.278008362
-1542,-14.23551134,-2.363353374,-256,1556.640625,51008,-1015,-9.370326853
-1541,-14.22627949,-4.726706748,-512,1560.546875,51136,-1024,-9.453413495
-1535,-14.17088839,-4.726706748,-512,1564.453125,51264,-1015,-9.370326853
-1535,-14.17088839,-4.726706748,-512,1568.359375,51392,-1017,-9.388790551
-1520,-14.03241066,-4.440519425,-481,1572.265625,51520,-1001,-9.241080966
-1527,-14.0970336,-4.662083804,-505,1576.171875,51648,-1017,-9.388790551
-1520,-14.03241066,-4.662083804,-505,1580.078125,51776,-1010,-9.324167608
-1529,-14.1154973,-4.726706748,-512,1583.984375,51904,-1024,-9.453413495
-1524,-14.06933805,-4.652851955,-504,1587.890625,52032,-1016,-9.379558702
-1511,-13.94932402,-4.49591052,-487,1591.796875,52160,-1005,-9.278008362
-1524,-14.06933805,-0.009231849,-1,1595.703125,52288,-1026,-9.471877194
-1528,-14.10626545,-0.009231849,-1,1599.609375,52416,-1025,-9.462645344
-1520,-14.03241066,-0.027695547,-3,1603.515625,52544,-1023,-9.444181646
-1524,-14.06933805,-0.073854793,-8,1607.421875,52672,-1030,-9.50880459
-1526,-14.08780175,-0.036927396,-4,1611.328125,52800,-1032,-9.527268288
-1534,-14.16165654,-0.009231849,-1,1615.234375,52928,-1050,-9.693441572
-1527,-14.0970336,-0.138477737,-15,1619.140625,53056,-1039,-9.591891232
-1541,-14.22627949,-0.018463698,-2,1623.046875,53184,-1044,-9.638050478
-1538,-14.19858394,-0.156941435,-17,1626.953125,53312,-1045,-9.647282327
-1531,-14.133961,-0.036927396,-4,1630.859375,53440,-1028,-9.490340892
-1548,-14.29090243,-0.009231849,-1,1634.765625,53568,-1041,-9.61035493
-1554,-14.34629353,-0.295419172,-32,1638.671875,53696,-1052,-9.711905271
-1556,-14.36475723,-0.295419172,-32,1642.578125,53824,-1048,-9.674977874
-1569,-14.48477126,-0.064622944,-7,1646.484375,53952,-1053,-9.72113712
-1558,-14.38322092,-0.286187323,-31,1650.390625,54080,-1045,-9.647282327
-1561,-14.41091647,-0.018463698,-2,1654.296875,54208,-1050,-9.693441572
-1569,-14.48477126,-0.036927396,-4,1658.203125,54336,-1052,-9.711905271
-1570,-14.49400311,-0.018463698,-2,1662.109375,54464,-1058,-9.767296365
-1572,-14.51246681,-0.286187323,-31,1666.015625,54592,-1057,-9.758064516
-1566,-14.45707572,-0.295419172,-32,1669.921875,54720,-1044,-9.638050478
-1571,-14.50323496,-0.267723624,-29,1673.828125,54848,-1053,-9.72113712
-1565,-14.44784387,-0.009231849,-1,1677.734375,54976,-1053,-9.72113712
-1572,-14.51246681,-0.461592456,-50,1681.640625,55104,-1060,-9.785760063
-1571,-14.50323496,-0.240028077,-26,1685.546875,55232,-1050,-9.693441572
-1553,-14.33706168,-0.009231849,-1,1689.453125,55360,-1038,-9.582659383
-1569,-14.48477126,-0.036927396,-4,1693.359375,55488,-1052,-9.711905271
-1569,-14.48477126,302.3984497,32756,1697.265625,55616,-1048,-9.674977874
1,0.009231849,-0.304651021,-33,1701.171875,55744,-9897,-91.36761071
-1046,-9.656514176,37.54593036,4067,1705.078125,55872,-32768,-302.5092318
-4269,-39.41076388,0.009231849,1,1708.984375,56000,1,0.009231849
-5693,-52.55691702,-4.726706748,-512,1712.890625,56128,-4117,-38.00752281
-8531,-78.75690481,-4.726706748,-512,1716.796875,56256,-8055,-74.36254463
-1568,-14.47553941,-0.156941435,-17,1720.703125,56384,-1058,-9.767296365
-1573,-14.52169866,-0.018463698,-2,1724.609375,56512,-1061,-9.794991913
-1567,-14.46630757,-0.544679098,-59,1728.515625,56640,-1061,-9.794991913
-1566,-14.45707572,-0.083086642,-9,1732.421875,56768,-1056,-9.748832667
-1561,-14.41091647,-0.369273965,-40,1736.328125,56896,-1061,-9.794991913
-1575,-14.54016236,-0.009231849,-1,1740.234375,57024,-1081,-9.979628895
-1566,-14.45707572,-0.027695547,-3,1744.140625,57152,-1066,-9.841151158
-1570,-14.49400311,-0.572374645,-62,1748.046875,57280,-1065,-9.831919309
-1571,-14.50323496,-0.046159246,-5,1751.953125,57408,-1066,-9.841151158
-1571,-14.50323496,-0.443128758,-48,1755.859375,57536,-1070,-9.878078555
-1580,-14.5863216,-0.516983551,-56,1759.765625,57664,-1079,-9.961165197
-1572,-14.51246681,-0.083086642,-9,1763.671875,57792,-1067,-9.850383007
-1572,-14.51246681,-0.009231849,-1,1767.578125,57920,-1069,-9.868846706
-1568,-14.47553941,-0.073854793,-8,1771.484375,58048,-1056,-9.748832667
-1573,-14.52169866,-0.369273965,-40,1775.390625,58176,-1070,-9.878078555
-1571,-14.50323496,-0.535447249,-58,1779.296875,58304,-1070,-9.878078555
-1573,-14.52169866,-0.590838343,-64,1783.203125,58432,-1071,-9.887310404
-1576,-14.54939421,-0.470824305,-51,1787.109375,58560,-1073,-9.905774102
-1567,-14.46630757,-0.036927396,-4,1791.015625,58688,-1058,-9.767296365
-1566,-14.45707572,-0.332346568,-36,1794.921875,58816,-1060,-9.785760063
-1581,-14.59555345,-0.590838343,-64,1798.828125,58944,-1090,-10.06271554
-1573,-14.52169866,-0.018463698,-2,1802.734375,59072,-1078,-9.951933348
-1574,-14.53093051,-0.009231849,-1,1806.640625,59200,-1072,-9.896542253
-1562,-14.42014832,-0.304651021,-33,1810.546875,59328,-1062,-9.804223762
-1576,-14.54939421,-0.452360607,-49,1814.453125,59456,-1074,-9.915005951
-1587,-14.65094455,-0.480056154,-52,1818.359375,59584,-1082,-9.988860744
-1576,-14.54939421,-0.581606494,-63,1822.265625,59712,-1070,-9.878078555
-1574,-14.53093051,-0.009231849,-1,1826.171875,59840,-1074,-9.915005951
-1566,-14.45707572,-0.036927396,-4,1830.078125,59968,-1059,-9.776528214
-1579,-14.57708975,-0.452360607,-49,1833.984375,60096,-1073,-9.905774102
-1577,-14.55862606,-0.452360607,-49,1837.890625,60224,-1073,-9.905774102
-1579,-14.57708975,-0.009231849,-1,1841.796875,60352,-1076,-9.933469649
-1573,-14.52169866,-0.452360607,-49,1845.703125,60480,-1065,-9.831919309
-1566,-14.45707572,-0.5262154,-57,1849.609375,60608,-1059,-9.776528214
-1572,-14.51246681,-0.147709586,-16,1853.515625,60736,-1074,-9.915005951
-1572,-14.51246681,-0.563142796,-61,1857.421875,60864,-1069,-9.868846706
-1572,-14.51246681,-0.092318491,-10,1861.328125,60992,-1072,-9.896542253
-1576,-14.54939421,-0.563142796,-61,1865.234375,61120,-1075,-9.9242378
-1569,-14.48477126,-0.424665059,-46,1869.140625,61248,-1065,-9.831919309
-1566,-14.45707572,-0.073854793,-8,1873.046875,61376,-1073,-9.905774102
-1571,-14.50323496,-0.461592456,-50,1876.953125,61504,-1074,-9.915005951
-1566,-14.45707572,-0.581606494,-63,1880.859375,61632,-1085,-10.01655629
-1555,-14.35552538,-0.036927396,-4,1884.765625,61760,-1068,-9.859614856
-1556,-14.36475723,-0.516983551,-56,1888.671875,61888,-1068,-9.859614856
-1564,-14.43861202,-0.295419172,-32,1892.578125,62016,-1085,-10.01655629
-1566,-14.45707572,-0.590838343,-64,1896.484375,62144,-1086,-10.02578814
-1557,-14.37398907,-0.609302042,-66,1900.390625,62272,-1074,-9.915005951
-1561,-14.41091647,-0.009231849,-1,1904.296875,62400,-1082,-9.988860744
-1555,-14.35552538,-0.507751701,-55,1908.203125,62528,-1075,-9.9242378
-1573,-14.52169866,-0.590838343,-64,1912.109375,62656,-1088,-10.04425184
-1568,-14.47553941,-0.590838343,-64,1916.015625,62784,-1084,-10.00732444
-1576,-14.54939421,-0.655461287,-71,1919.921875,62912,-1093,-10.09041108
-1569,-14.48477126,-0.036927396,-4,1923.828125,63040,-1088,-10.04425184
-1571,-14.50323496,-0.62776574,-68,1927.734375,63168,-1093,-10.09041108
-1573,-14.52169866,-0.073854793,-8,1931.640625,63296,-1092,-10.08117924
-1582,-14.6047853,-0.120014039,-13,1935.546875,63424,-1103,-10.18272958
-1584,-14.623249,-0.821634571,-89,1939.453125,63552,-1111,-10.25658437
-1576,-14.54939421,-0.738547929,-80,1943.359375,63680,-1103,-10.18272958
-1578,-14.56785791,-0.609302042,-66,1947.265625,63808,-1106,-10.21042512
-1581,-14.59555345,-0.138477737,-15,1951.171875,63936,-1108,-10.22888882
-1563,-14.42938017,-0.092318491,-10,1955.078125,64064,-1098,-10.13657033
-1586,-14.6417127,-0.904721213,-98,1958.984375,64192,-1122,-10.35813471
-1575,-14.54016236,-0.609302042,-66,1962.890625,64320,-1104,-10.19196142
-1574,-14.53093051,-0.618533891,-67,1966.796875,64448,-1111,-10.25658437
-1579,-14.57708975,-0.193868831,-21,1970.703125,64576,-1116,-10.30274361
-1583,-14.61401715,-0.895489364,-97,1974.609375,64704,-1121,-10.34890286
-1581,-14.59555345,-1.080126347,-117,1978.515625,64832,-1126,-10.39506211
-1586,-14.6417127,-0.932416761,-101,1982.421875,64960,-1126,-10.39506211
-1575,-14.54016236,-0.978576006,-106,1986.328125,65088,-1123,-10.36736656
-1576,-14.54939421,-0.267723624,-29,1990.234375,65216,-1115,-10.29351176
-1587,-14.65094455,-0.5262154,-57,1994.140625,65344,-1129,-10.42275765
-1591,-14.68787194,-1.061662648,-115,1998.046875,65472,-1123,-10.36736656
-1599,-14.76172674,-0.821634571,-89,2001.953125,64,-1113,-10.27504807
-1603,-14.79865413,-0.821634571,-89,2005.859375,192,-1113,-10.27504807
-1587,-14.65094455,-0.009231849,-1,2009.765625,320,-1100,-10.15503403
-1576,-14.54939421,-0.295419172,-32,2013.671875,448,-1120,-10.33967101
-1544,-14.25397504,-0.895489364,-97,2017.578125,576,-1126,-10.39506211
-1525,-14.0785699,-1.181676687,-128,2021.484375,704,-1131,-10.44122135
-1485,-13.70929594,-1.04319895,-113,2025.390625,832,-1144,-10.56123539
-1408,-12.99844356,-0.572374645,-62,2029.296875,960,-1137,-10.49661245
-1376,-12.70302438,-0.009231849,-1,2033.203125,1088,-1155,-10.66278573
-1343,-12.39837336,-0.129245888,-14,2037.109375,1216,-1166,-10.76433607
-1339,-12.36144597,-0.009231849,-1,2041.015625,1344,-1153,-10.64432203
-1379,-12.73071993,-0.009231849,-1,2044.921875,1472,-1153,-10.64432203
-1437,-13.26616718,-0.147709586,-16,2048.828125,1600,-1145,-10.57046724
-1514,-13.97701956,-0.018463698,-2,2052.734375,1728,-1155,-10.66278573
-1560,-14.40168462,-0.581606494,-63,2056.640625,1856,-1155,-10.66278573
-1575,-14.54016236,-0.018463698,-2,2060.546875,1984,-1147,-10.58893094
-1595,-14.72479934,-0.563142796,-61,2064.453125,2112,-1159,-10.69971313
-1561,-14.41091647,-0.304651021,-33,2068.359375,2240,-1115,-10.29351176
-1568,-14.47553941,-0.443128758,-48,2072.265625,2368,-1132,-10.4504532
-1570,-14.49400311,-0.590838343,-64,2076.171875,2496,-1135,-10.47814875
-1570,-14.49400311,-1.181676687,-128,2080.078125,2624,-1140,-10.52430799
-1577,-14.55862606,-1.181676687,-128,2083.984375,2752,-1139,-10.51507614
-1569,-14.48477126,-0.489288003,-53,2087.890625,2880,-1125,-10.38583026
-1573,-14.52169866,-0.590838343,-64,2091.796875,3008,-1138,-10.50584429
-1575,-14.54016236,-0.452360607,-49,2095.703125,3136,-1142,-10.54277169
-1571,-14.50323496,-1.04319895,-113,2099.609375,3264,-1135,-10.47814875
-1562,-14.42014832,-0.923184912,-100,2103.515625,3392,-1125,-10.38583026
-1565,-14.44784387,-0.590838343,-64,2107.421875,3520,-1119,-10.33043916
-1568,-14.47553941,-0.590838343,-64,2111.328125,3648,-1135,-10.47814875
-1572,-14.51246681,-0.516983551,-56,2115.234375,3776,-1126,-10.39506211
-1574,-14.53093051,-0.997039705,-108,2119.140625,3904,-1132,-10.4504532
-1568,-14.47553941,-0.904721213,-98,2123.046875,4032,-1128,-10.4135258
-1571,-14.50323496,-0.600070193,-65,2126.953125,4160,-1119,-10.33043916
-1561,-14.41091647,-0.286187323,-31,2130.859375,4288,-1116,-10.30274361
-1566,-14.45707572,-0.286187323,-31,2134.765625,4416,-1116,-10.30274361
-1578,-14.56785791,-0.904721213,-98,2138.671875,4544,-1125,-10.38583026
-1566,-14.45707572,-0.83086642,-90,2142.578125,4672,-1122,-10.35813471
-1559,-14.39245277,-0.62776574,-68,2146.484375,4800,-1107,-10.21965697
-1564,-14.43861202,-0.295419172,-32,2150.390625,4928,-1118,-10.32120731
-1558,-14.38322092,-0.036927396,-4,2154.296875,5056,-1100,-10.15503403
-1575,-14.54016236,-0.895489364,-97,2158.203125,5184,-1125,-10.38583026
-1556,-14.36475723,-0.600070193,-65,2162.109375,5312,-1107,-10.21965697
-1555,-14.35552538,-0.129245888,-14,2166.015625,5440,-1102,-10.17349773
-1558,-14.38322092,-0.073854793,-8,2169.921875,5568,-1101,-10.16426588
-1562,-14.42014832,-0.230796228,-25,2173.828125,5696,-1105,-10.20119327
-1562,-14.42014832,-0.295419172,-32,2177.734375,5824,-1111,-10.25658437
-1554,-14.34629353,-0.747779778,-81,2181.640625,5952,-1105,-10.20119327
-1558,-14.38322092,-0.129245888,-14,2185.546875,6080,-1102,-10.17349773
-1537,-14.18935209,-0.286187323,-31,2189.453125,6208,-1087,-10.03501999
-1549,-14.30013428,-0.073854793,-8,2193.359375,6336,-1095,-10.10887478
-1551,-14.31859798,-0.036927396,-4,2197.265625,6464,-1100,-10.15503403
-1542,-14.23551134,-0.009231849,-1,2201.171875,6592,-1101,-10.16426588
-1534,-14.16165654,-0.009231849,-1,2205.078125,6720,-1094,-10.09964293
-1542,-14.23551134,-0.5262154,-57,2208.984375,6848,-1093,-10.09041108
-1528,-14.10626545,-0.590838343,-64,2212.890625,6976,-1088,-10.04425184
-1537,-14.18935209,-0.083086642,-9,2216.796875,7104,-1105,-10.20119327
-1526,-14.08780175,-0.563142796,-61,2220.703125,7232,-1084,-10.00732444
-1523,-14.0601062,-0.276955473,-30,2224.609375,7360,-1086,-10.02578814
-1515,-13.98625141,-0.295419172,-32,2228.515625,7488,-1078,-9.951933348
-1521,-14.04164251,-0.018463698,-2,2232.421875,7616,-1090,-10.06271554
-1524,-14.06933805,-0.138477737,-15,2236.328125,7744,-1099,-10.14580218
-1521,-14.04164251,-0.036927396,-4,2240.234375,7872,-1092,-10.08117924
-1524,-14.06933805,-0.036927396,-4,2244.140625,8000,-1091,-10.07194739
-1517,-14.00471511,-0.036927396,-4,2248.046875,8128,-1092,-10.08117924
-1523,-14.0601062,-0.009231849,-1,2251.953125,8256,-1102,-10.17349773
-1536,-14.18012024,-0.147709586,-16,2255.859375,8384,-1121,-10.34890286
-1531,-14.133961,-1.04319895,-113,2259.765625,8512,-1119,-10.33043916
-1531,-14.133961,-0.600070193,-65,2263.671875,8640,-1114,-10.28427992
-1524,-14.06933805,-0.046159246,-5,2267.578125,8768,-1109,-10.23812067
-1540,-14.21704764,-0.360042116,-39,2271.484375,8896,-1127,-10.40429395
-1547,-14.28167058,-0.913953063,-99,2275.390625,9024,-1127,-10.40429395
-1546,-14.27243873,-1.181676687,-128,2279.296875,9152,-1135,-10.47814875
-1549,-14.30013428,-0.969344157,-105,2283.203125,9280,-1132,-10.4504532
-1549,-14.30013428,-0.304651021,-33,2287.109375,9408,-1125,-10.38583026
-1568,-14.47553941,-0.563142796,-61,2291.015625,9536,-1148,-10.59816279
-1560,-14.40168462,-0.563142796,-61,2294.921875,9664,-1147,-10.58893094
-1565,-14.44784387,-0.046159246,-5,2298.828125,9792,-1151,-10.62585833
-1565,-14.44784387,-0.009231849,-1,2302.734375,9920,-1154,-10.65355388
-1551,-14.31859798,-0.590838343,-64,2306.640625,10048,-1139,-10.51507614
-1579,-14.57708975,-0.156941435,-17,2310.546875,10176,-1169,-10.79203162
-1564,-14.43861202,-0.064622944,-7,2314.453125,10304,-1159,-10.69971313
-1567,-14.46630757,-0.046159246,-5,2318.359375,10432,-1173,-10.82895901
-1561,-14.41091647,-0.064622944,-7,2322.265625,10560,-1159,-10.69971313
-1564,-14.43861202,-0.018463698,-2,2326.171875,10688,-1158,-10.69048128
-1568,-14.47553941,-0.156941435,-17,2330.078125,10816,-1176,-10.85665456
-1573,-14.52169866,-0.175405133,-19,2333.984375,10944,-1180,-10.89358196
-1575,-14.54016236,-0.563142796,-61,2337.890625,11072,-1187,-10.9582049
-1568,-14.47553941,-0.120014039,-13,2341.796875,11200,-1181,-10.90281381
-1566,-14.45707572,-0.138477737,-15,2345.703125,11328,-1177,-10.86588641
-1575,-14.54016236,-0.009231849,-1,2349.609375,11456,-1193,-11.013596
-1569,-14.48477126,-0.036927396,-4,2353.515625,11584,-1188,-10.96743675
-1580,-14.5863216,-0.581606494,-63,2357.421875,11712,-1207,-11.14284188
-1574,-14.53093051,-0.461592456,-50,2361.328125,11840,-1202,-11.09668264
-1574,-14.53093051,-0.295419172,-32,2365.234375,11968,-1204,-11.11514634
-1563,-14.42938017,-0.009231849,-1,2369.140625,12096,-1199,-11.06898709
-1568,-14.47553941,-0.590838343,-64,2373.046875,12224,-1201,-11.08745079
-1585,-14.63248085,-0.590838343,-64,2376.953125,12352,-1216,-11.22592853
-1577,-14.55862606,-0.590838343,-64,2380.859375,12480,-1210,-11.17053743
-1569,-14.48477126,-0.5262154,-57,2384.765625,12608,-1209,-11.16130558
-1569,-14.48477126,-0.295419172,-32,2388.671875,12736,-1211,-11.17976928
-1570,-14.49400311,-0.286187323,-31,2392.578125,12864,-1215,-11.21669668
-1568,-14.47553941,-1.04319895,-113,2396.484375,12992,-1217,-11.23516037
-1578,-14.56785791,-1.015503403,-110,2400.390625,13120,-1230,-11.35517441
-1570,-14.49400311,-0.600070193,-65,2404.296875,13248,-1221,-11.27208777
-1573,-14.52169866,-0.895489364,-97,2408.203125,13376,-1225,-11.30901517
-1572,-14.51246681,-0.969344157,-105,2412.109375,13504,-1228,-11.33671072
-1576,-14.54939421,-1.070894498,-116,2416.015625,13632,-1236,-11.41056551
-1567,-14.46630757,-1.15398114,-125,2419.921875,13760,-1230,-11.35517441
-1570,-14.49400311,-1.181676687,-128,2423.828125,13888,-1230,-11.35517441
-1579,-14.57708975,-1.181676687,-128,2427.734375,14016,-1234,-11.39210181
-1567,-14.46630757,-1.15398114,-125,2431.640625,14144,-1245,-11.49365215
-1576,-14.54939421,-1.052430799,-114,2435.546875,14272,-1256,-11.59520249
-1571,-14.50323496,-1.855601672,-201,2439.453125,14400,-1242,-11.4659566
-1569,-14.48477126,-1.181676687,-128,2443.359375,14528,-1247,-11.51211585
-1577,-14.55862606,-1.04319895,-113,2447.265625,14656,-1249,-11.53057955
-1571,-14.50323496,-0.923184912,-100,2451.171875,14784,-1250,-11.5398114
-1576,-14.54939421,-1.126285592,-122,2455.078125,14912,-1258,-11.61366619
-1577,-14.55862606,-2.252571184,-244,2458.984375,15040,-1251,-11.54904324
-1575,-14.54016236,-1.033967101,-112,2462.890625,15168,-1259,-11.62289804
-1574,-14.53093051,-1.04319895,-113,2466.796875,15296,-1251,-11.54904324
-1578,-14.56785791,-1.061662648,-115,2470.703125,15424,-1267,-11.69675283
-1576,-14.54939421,-2.224875637,-241,2474.609375,15552,-1270,-11.72444838
-1582,-14.6047853,-2.29873043,-249,2478.515625,15680,-1274,-11.76137577
-1576,-14.54939421,-1.181676687,-128,2482.421875,15808,-1272,-11.74291208
-1568,-14.47553941,-1.181676687,-128,2486.328125,15936,-1263,-11.65982543
-1576,-14.54939421,-2.307962279,-250,2490.234375,16064,-1276,-11.77983947
-1578,-14.56785791,-2.381817072,-258,2494.140625,16192,-1282,-11.83523057
-1577,-14.55862606,-2.354121525,-255,2498.046875,16320,-1279,-11.80753502
-1577,-14.55862606,-3.618884854,-392,2501.953125,16448,-1290,-11.90908536
-1567,-14.46630757,-1.04319895,-113,2505.859375,16576,-1271,-11.73368023
-1572,-14.51246681,-3.55426191,-385,2509.765625,16704,-1283,-11.84446242
-1590,-14.6786401,-3.692739647,-400,2513.671875,16832,-1296,-11.96447645
-1578,-14.56785791,-3.609653005,-391,2517.578125,16960,-1294,-11.94601276
-1582,-14.6047853,-3.55426191,-385,2521.484375,17088,-1301,-12.0106357
-1570,-14.49400311,-2.437208167,-264,2525.390625,17216,-1288,-11.89062166
-1573,-14.52169866,-3.55426191,-385,2529.296875,17344,-1297,-11.9737083
-1572,-14.51246681,-3.665044099,-397,2533.203125,17472,-1293,-11.93678091
505,4.662083804,302.5,32767,2537.109375,17600,24570,226.8265328
1,0.009231849,-1.560182501,-169,2541.015625,17728,-10247,-94.5987579
-6799,-62.76734214,0.009231849,1,2548.828125,17984,1,0.009231849
-10637,-98.19917905,0,0,2556.640625,18240,-12351,-114.0225684
-1574,-14.53093051,-4.135868404,-448,2560.546875,18368,-1336,-12.33375042
-1561,-14.41091647,-3.692739647,-400,2564.453125,18496,-1323,-12.21373638
-1577,-14.55862606,-3.55426191,-385,2568.359375,18624,-1341,-12.37990967
-1572,-14.51246681,-3.997390667,-433,2572.265625,18752,-1333,-12.30605487
-1575,-14.54016236,-4.440519425,-481,2576.171875,18880,-1350,-12.46299631
-1558,-14.38322092,-3.831217383,-415,2580.078125,19008,-1335,-12.32451857
-1564,-14.43861202,-4.126636555,-447,2583.984375,19136,-1337,-12.34298227
-1564,-14.43861202,-4.145100253,-449,2587.890625,19264,-1347,-12.43530076
-1568,-14.47553941,-4.145100253,-449,2591.796875,19392,-1350,-12.46299631
-1577,-14.55862606,-4.6990112,-509,2595.703125,19520,-1363,-12.58301035
-1572,-14.51246681,-4.468214972,-484,2599.609375,19648,-1353,-12.49069185
-1548,-14.29090243,-4.172795801,-452,2603.515625,19776,-1338,-12.35221412
-1569,-14.48477126,-4.145100253,-449,2607.421875,19904,-1354,-12.4999237
-1576,-14.54939421,-4.145100253,-449,2611.328125,20032,-1361,-12.56454665
-1563,-14.42938017,-4.209723197,-456,2615.234375,20160,-1359,-12.54608295
-1572,-14.51246681,-4.588229011,-497,2619.140625,20288,-1359,-12.54608295
-1583,-14.61401715,-4.726706748,-512,2623.046875,20416,-1371,-12.65686514
-1584,-14.623249,-4.311273537,-467,2626.953125,20544,-1368,-12.62916959
-1581,-14.59555345,-4.440519425,-481,2630.859375,20672,-1378,-12.72148808
-1594,-14.71556749,-4.689779351,-508,2634.765625,20800,-1395,-12.87842952
-1580,-14.5863216,-4.726706748,-512,2638.671875,20928,-1384,-12.77687918
-1579,-14.57708975,-4.440519425,-481,2642.578125,21056,-1381,-12.74918363
-1573,-14.52169866,-4.431287576,-480,2646.484375,21184,-1377,-12.71225623
-1590,-14.6786401,-4.726706748,-512,2650.390625,21312,-1400,-12.92458876
-1573,-14.52169866,-4.662083804,-505,2654.296875,21440,-1391,-12.84150212
-1572,-14.51246681,-4.717474899,-511,2658.203125,21568,-1396,-12.88766137
-1579,-14.57708975,-4.615924558,-500,2662.109375,21696,-1396,-12.88766137
-1580,-14.5863216,-4.726706748,-512,2666.015625,21824,-1389,-12.82303842
-1579,-14.57708975,-4.588229011,-497,2669.921875,21952,-1395,-12.87842952
-1591,-14.68787194,-3.563493759,-386,2673.828125,22080,-1415,-13.0630665
-1580,-14.5863216,-4.726706748,-512,2677.734375,22208,-1403,-12.95228431
-1576,-14.54939421,-4.717474899,-511,2681.640625,22336,-1399,-12.91535691
-1577,-14.55862606,-4.717474899,-511,2685.546875,22464,-1399,-12.91535691
-1586,-14.6417127,-3.55426191,-385,2689.453125,22592,-1409,-13.00767541
-1597,-14.74326304,-4.6990112,-509,2693.359375,22720,-1404,-12.96151616
-1593,-14.70633564,-4.662083804,-505,2697.265625,22848,-1390,-12.83227027
-1604,-14.80788598,-4.588229011,-497,2701.171875,22976,-1391,-12.84150212
-1592,-14.69710379,-4.449751274,-482,2705.078125,23104,-1388,-12.81380657
-1586,-14.6417127,-4.726706748,-512,2708.984375,23232,-1416,-13.07229835
-1557,-14.37398907,-3.572725608,-387,2712.890625,23360,-1426,-13.16461684
-1514,-13.97701956,-3.76659444,-408,2716.796875,23488,-1424,-13.14615314
-1483,-13.69083224,-4.163563952,-451,2720.703125,23616,-1433,-13.22923978
-1429,-13.19231239,-3.692739647,-400,2724.609375,23744,-1424,-13.14615314
-1377,-12.71225623,-3.55426191,-385,2728.515625,23872,-1449,-13.37694937
-1340,-12.37067782,-4.135868404,-448,2732.421875,24000,-1466,-13.5338908
-1341,-12.37990967,-3.831217383,-415,2736.328125,24128,-1462,-13.49696341
-1379,-12.73071993,-3.785058138,-410,2740.234375,24256,-1459,-13.46926786
-1445,-13.34002197,-3.618884854,-392,2744.140625,24384,-1451,-13.39541307
-1517,-14.00471511,-3.609653005,-391,2748.046875,24512,-1467,-13.54312265
-1555,-14.35552538,-3.997390667,-433,2751.953125,24640,-1465,-13.52465896
-1577,-14.55862606,-4.135868404,-448,2755.859375,24768,-1462,-13.49696341
-1583,-14.61401715,-4.126636555,-447,2759.765625,24896,-1459,-13.46926786
-1575,-14.54016236,-3.840449232,-416,2763.671875,25024,-1440,-13.29386273
-1574,-14.53093051,-3.849681082,-417,2767.578125,25152,-1454,-13.42310862
-1576,-14.54939421,-4.135868404,-448,2771.484375,25280,-1456,-13.44157231
-1571,-14.50323496,-4.588229011,-497,2775.390625,25408,-1461,-13.48773156
-1569,-14.48477126,-4.578997162,-496,2779.296875,25536,-1456,-13.44157231
-1564,-14.43861202,-4.07124546,-441,2783.203125,25664,-1445,-13.34002197
-1577,-14.55862606,-4.108172857,-445,2787.109375,25792,-1456,-13.44157231
-1577,-14.55862606,-4.726706748,-512,2791.015625,25920,-1463,-13.50619526
-1572,-14.51246681,-4.717474899,-511,2794.921875,26048,-1464,-13.51542711
-1569,-14.48477126,-4.135868404,-448,2798.828125,26176,-1465,-13.52465896
-1568,-14.47553941,-4.07124546,-441,2802.734375,26304,-1465,-13.52465896
-1562,-14.42014832,-3.997390667,-433,2806.640625,26432,-1457,-13.45080416
-1582,-14.6047853,-4.154332102,-450,2810.546875,26560,-1474,-13.6077456
-1572,-14.51246681,-4.726706748,-512,2814.453125,26688,-1472,-13.5892819
-1573,-14.52169866,-4.717474899,-511,2818.359375,26816,-1472,-13.5892819
-1566,-14.45707572,-4.717474899,-511,2822.265625,26944,-1469,-13.56158635
-1567,-14.46630757,-4.717474899,-511,2826.171875,27072,-1473,-13.59851375
-1574,-14.53093051,-4.726706748,-512,2830.078125,27200,-1474,-13.6077456
-1573,-14.52169866,-4.302041688,-466,2833.984375,27328,-1489,-13.74622333
-1564,-14.43861202,-4.200491348,-455,2837.890625,27456,-1476,-13.6262093
-1566,-14.45707572,-4.154332102,-450,2841.796875,27584,-1474,-13.6077456
-1569,-14.48477126,-4.274346141,-463,2845.703125,27712,-1485,-13.70929594
-1555,-14.35552538,-4.145100253,-449,2849.609375,27840,-1475,-13.61697745
-1568,-14.47553941,-4.394360179,-476,2853.515625,27968,-1500,-13.84777367
-1560,-14.40168462,-4.209723197,-456,2857.421875,28096,-1480,-13.66313669
-1557,-14.37398907,-4.18202765,-453,2861.328125,28224,-1483,-13.69083224
-1561,-14.41091647,-4.145100253,-449,2865.234375,28352,-1493,-13.78315073
-1557,-14.37398907,-4.588229011,-497,2869.140625,28480,-1491,-13.76468703
-1566,-14.45707572,-4.440519425,-481,2873.046875,28608,-1502,-13.86623737
-1542,-14.23551134,-4.440519425,-481,2876.953125,28736,-1485,-13.70929594
-1557,-14.37398907,-4.28357799,-464,2880.859375,28864,-1500,-13.84777367
-1547,-14.28167058,-4.163563952,-451,2884.765625,28992,-1491,-13.76468703
-1547,-14.28167058,-4.255882443,-461,2888.671875,29120,-1501,-13.85700552
-1545,-14.26320688,-4.422055727,-479,2892.578125,29248,-1503,-13.87546922
-1533,-14.1524247,-4.265114292,-462,2896.484375,29376,-1490,-13.75545518
-1545,-14.26320688,-4.726706748,-512,2900.390625,29504,-1500,-13.84777367
-1539,-14.20781579,-4.726706748,-512,2904.296875,29632,-1494,-13.79238258
-1535,-14.17088839,-4.458983123,-483,2908.203125,29760,-1501,-13.85700552
-1543,-14.24474319,-4.59746086,-498,2912.109375,29888,-1514,-13.97701956
-1525,-14.0785699,-4.440519425,-481,2916.015625,30016,-1500,-13.84777367
-1526,-14.08780175,-4.440519425,-481,2919.921875,30144,-1505,-13.89393292
-1522,-14.05087436,-4.662083804,-505,2923.828125,30272,-1497,-13.82007813
-1529,-14.1154973,-4.726706748,-512,2927.734375,30400,-1514,-13.97701956
-1531,-14.133961,-4.59746086,-498,2931.640625,30528,-1522,-14.05087436
-1518,-14.01394696,-4.717474899,-511,2935.546875,30656,-1517,-14.00471511
-1522,-14.05087436,-4.726706748,-512,2939.453125,30784,-1516,-13.99548326
-1520,-14.03241066,-4.726706748,-512,2943.359375,30912,-1512,-13.95855586
-1524,-14.06933805,-4.6990112,-509,2947.265625,31040,-1527,-14.0970336
-1523,-14.0601062,-4.662083804,-505,2951.171875,31168,-1537,-14.18935209
-1527,-14.0970336,-0.009231849,-1,2955.078125,31296,-1533,-14.1524247
-1531,-14.133961,-0.027695547,-3,2958.984375,31424,-1539,-14.20781579
-1522,-14.05087436,-4.588229011,-497,2962.890625,31552,-1527,-14.0970336
-1529,-14.1154973,-0.083086642,-9,2966.796875,31680,-1545,-14.26320688
-1547,-14.28167058,-0.156941435,-17,2970.703125,31808,-1559,-14.39245277
-1548,-14.29090243,-0.009231849,-1,2974.609375,31936,-1561,-14.41091647
-1547,-14.28167058,-0.295419172,-32,2978.515625,32064,-1555,-14.35552538
-1541,-14.22627949,-0.138477737,-15,2982.421875,32192,-1553,-14.33706168
-1558,-14.38322092,-0.018463698,-2,2986.328125,32320,-1574,-14.53093051
-1557,-14.37398907,-0.046159246,-5,2990.234375,32448,-1569,-14.48477126
-1577,-14.55862606,-0.563142796,-61,2994.140625,32576,-1589,-14.66940825
-1581,-14.59555345,-0.563142796,-61,2998.046875,32704,-1589,-14.66940825
-1560,-14.40168462,-0.295419172,-32,3001.953125,32832,-1567,-14.46630757
-1562,-14.42014832,-0.304651021,-33,3005.859375,32960,-1581,-14.59555345
-1575,-14.54016236,-0.5262154,-57,3009.765625,33088,-1586,-14.6417127
-1576,-14.54939421,-0.590838343,-64,3013.671875,33216,-1598,-14.75249489
-1559,-14.39245277,-0.5262154,-57,3017.578125,33344,-1583,-14.61401715
-1569,-14.48477126,-0.590838343,-64,3021.484375,33472,-1587,-14.65094455
-1580,-14.5863216,-0.516983551,-56,3025.390625,33600,-1596,-14.73403119
-1584,-14.623249,-0.581606494,-63,3029.296875,33728,-1608,-14.84481338
-1569,-14.48477126,-4.735938597,-513,3033.203125,33856,-1604,-14.80788598
-1568,-14.47553941,-4.846720786,-525,3037.109375,33984,-1597,-14.74326304
-1572,-14.51246681,-0.572374645,-62,3041.015625,34112,-1598,-14.75249489
-1565,-14.44784387,-0.895489364,-97,3044.921875,34240,-1603,-14.79865413
-1570,-14.49400311,-1.015503403,-110,3048.828125,34368,-1610,-14.86327708
-1574,-14.53093051,-4.735938597,-513,3052.734375,34496,-1614,-14.90020447
-1575,-14.54016236,-1.172444838,-127,3056.640625,34624,-1615,-14.90943632
-1561,-14.41091647,-0.960112308,-104,3060.546875,34752,-1609,-14.85404523
-1570,-14.49400311,-1.033967101,-112,3064.453125,34880,-1618,-14.93713187
-1562,-14.42014832,-1.181676687,-128,3068.359375,35008,-1610,-14.86327708
-1577,-14.55862606,-4.745170446,-514,3072.265625,35136,-1634,-15.08484146
-1561,-14.41091647,-4.791329691,-519,3076.171875,35264,-1613,-14.89097262
-1567,-14.46630757,-4.763634144,-516,3080.078125,35392,-1616,-14.91866817
-1572,-14.51246681,-1.098590045,-119,3083.984375,35520,-1623,-14.98329112
-1573,-14.52169866,-1.181676687,-128,3087.890625,35648,-1630,-15.04791406
-1582,-14.6047853,-4.735938597,-513,3091.796875,35776,-1646,-15.19562365
-1570,-14.49400311,-4.772865993,-517,3095.703125,35904,-1637,-15.112537
-1567,-14.46630757,-4.735938597,-513,3099.609375,36032,-1630,-15.04791406
-1565,-14.44784387,-1.163212989,-126,3103.515625,36160,-1635,-15.09407331
-1574,-14.53093051,-1.181676687,-128,3107.421875,36288,-1639,-15.1310007
-1574,-14.53093051,-4.91134373,-532,3111.328125,36416,-1652,-15.25101474
-1577,-14.55862606,-4.874416334,-528,3115.234375,36544,-1648,-15.21408734
-1581,-14.59555345,-5.022125919,-544,3119.140625,36672,-1656,-15.28794214
-1567,-14.46630757,-0.960112308,-104,3123.046875,36800,-1638,-15.12176885
-1576,-14.54939421,-1.181676687,-128,3126.953125,36928,-1653,-15.26024659
-1582,-14.6047853,-4.735938597,-513,3130.859375,37056,-1665,-15.37102878
-1562,-14.42014832,-4.883648183,-529,3134.765625,37184,-1649,-15.22331919
-1579,-14.57708975,-5.317545091,-576,3138.671875,37312,-1660,-15.32486953
-1566,-14.45707572,-1.14474929,-124,3142.578125,37440,-1649,-15.22331919
-1577,-14.55862606,-4.800561541,-520,3146.484375,37568,-1663,-15.35256508
-1571,-14.50323496,-4.735938597,-513,3150.390625,37696,-1665,-15.37102878
-1581,-14.59555345,-4.772865993,-517,3154.296875,37824,-1669,-15.40795618
-1574,-14.53093051,-4.791329691,-519,3158.203125,37952,-1669,-15.40795618
-1564,-14.43861202,-1.181676687,-128,3162.109375,38080,-1656,-15.28794214
-1581,-14.59555345,-2.363353374,-256,3166.015625,38208,-1676,-15.47257912
-1579,-14.57708975,-4.754402295,-515,3169.921875,38336,-1683,-15.53720206
-1570,-14.49400311,-4.763634144,-516,3173.828125,38464,-1676,-15.47257912
-1572,-14.51246681,-4.883648183,-529,3177.734375,38592,-1681,-15.51873836
-1576,-14.54939421,-4.865184484,-527,3181.640625,38720,-1672,-15.43565172
-1573,-14.52169866,-4.735938597,-513,3185.546875,38848,-1682,-15.52797021
-1569,-14.48477126,-4.874416334,-528,3189.453125,38976,-1692,-15.62028871
-1579,-14.57708975,-4.763634144,-516,3193.359375,39104,-1692,-15.62028871
-1581,-14.59555345,-4.874416334,-528,3197.265625,39232,-1691,-15.61105686
-1578,-14.56785791,-5.022125919,-544,3201.171875,39360,-1688,-15.58336131
-1570,-14.49400311,-4.874416334,-528,3205.078125,39488,-1692,-15.62028871
-1576,-14.54939421,-4.819025239,-522,3208.984375,39616,-1706,-15.74953459
-1583,-14.61401715,-5.262153996,-570,3212.890625,39744,-1716,-15.84185308
-1576,-14.54939421,-5.095980712,-552,3216.796875,39872,-1711,-15.79569384
-1564,-14.43861202,-4.874416334,-528,3220.703125,40000,-1693,-15.62952055
-1578,-14.56785791,-4.745170446,-514,3224.609375,40128,-1718,-15.86031678
-1574,-14.53093051,-5.031357768,-545,3228.515625,40256,-1712,-15.80492569
-1587,-14.65094455,-4.735938597,-513,3232.421875,40384,-1729,-15.96186712
-1576,-14.54939421,-5.308313242,-575,3236.328125,40512,-1717,-15.85108493
-1564,-14.43861202,-5.040589618,-546,3240.234375,40640,-1708,-15.76799829
-1573,-14.52169866,-5.234458449,-567,3244.140625,40768,-1719,-15.86954863
-1580,-14.5863216,-4.735938597,-513,3248.046875,40896,-1730,-15.97109897
-1589,-14.66940825,-4.874416334,-528,3251.953125,41024,-1739,-16.05418561
-1573,-14.52169866,-4.782097842,-518,3255.859375,41152,-1734,-16.00802637
-1575,-14.54016236,-4.800561541,-520,3259.765625,41280,-1730,-15.97109897
-1581,-14.59555345,-4.80979339,-521,3263.671875,41408,-1738,-16.04495376
-1573,-14.52169866,-4.846720786,-525,3267.578125,41536,-1741,-16.07264931
-1589,-14.66940825,-5.465254677,-592,3271.484375,41664,-1756,-16.21112705
-1586,-14.6417127,-5.363704337,-581,3275.390625,41792,-1750,-16.15573595
-1567,-14.46630757,-4.735938597,-513,3279.296875,41920,-1742,-16.08188116
-1571,-14.50323496,-4.948271126,-536,3283.203125,42048,-1749,-16.1465041
-1580,-14.5863216,-5.022125919,-544,3287.109375,42176,-1756,-16.21112705
-1584,-14.623249,-5.649891659,-612,3291.015625,42304,-1772,-16.35883663
-1574,-14.53093051,-5.456022828,-591,3294.921875,42432,-1759,-16.2388226
-1561,-14.41091647,-4.819025239,-522,3298.828125,42560,-1754,-16.19266335
-1577,-14.55862606,-5.262153996,-570,3302.734375,42688,-1770,-16.34037294
-1574,-14.53093051,-5.252922147,-569,3306.640625,42816,-1769,-16.33114109
-1585,-14.63248085,-5.2252266,-566,3310.546875,42944,-1782,-16.45115513
-1569,-14.48477126,-5.880687887,-637,3314.453125,43072,-1774,-16.37730033
-1572,-14.51246681,-5.686819056,-616,3318.359375,43200,-1774,-16.37730033
-1558,-14.38322092,-4.754402295,-515,3322.265625,43328,-1767,-16.31267739
-1568,-14.47553941,-5.769905698,-625,3326.171875,43456,-1781,-16.44192328
-1574,-14.53093051,-7.173146764,-777,3330.078125,43584,-1801,-16.62656026
-1564,-14.43861202,-5.908383435,-640,3333.984375,43712,-1792,-16.54347362
-1567,-14.46630757,-5.908383435,-640,3337.890625,43840,-1791,-16.53424177
-1567,-14.46630757,-7.099291971,-769,3341.796875,43968,-1792,-16.54347362
-1566,-14.45707572,-7.099291971,-769,3345.703125,44096,-1805,-16.66348766
-1573,-14.52169866,-7.163914914,-776,3349.609375,44224,-1813,-16.73734245
-1576,-14.54939421,-7.237769707,-784,3353.515625,44352,-1806,-16.6727195
-1581,-14.59555345,-7.237769707,-784,3357.421875,44480,-1804,-16.65425581
-1571,-14.50323496,-7.099291971,-769,3361.328125,44608,-1809,-16.70041505
-1573,-14.52169866,-7.237769707,-784,3365.234375,44736,-1824,-16.83889279
-1586,-14.6417127,-7.653202918,-829,3369.140625,44864,-1838,-16.96813868
1,0.009231849,-8.862575152,-960,3376.953125,45120,-10171,-93.89713736
-1828,-16.87582018,-9.453413495,-1024,3380.859375,45248,-32768,-302.5092318
-2688,-24.81521043,3.545030061,384,3384.765625,45376,505,4.662083804
-1586,-14.6417127,-9.453413495,-1024,3388.671875,45504,-1851,-17.08815271
-8,-0.073854793,3.545030061,384,3392.578125,45632,-640,-5.908383435
-1579,-14.57708975,-7.551652577,-818,3396.484375,45760,-1842,-17.00506607
-1569,-14.48477126,-7.173146764,-777,3400.390625,45888,-1837,-16.95890683
-1577,-14.55862606,-7.690130314,-833,3404.296875,46016,-1857,-17.14354381
-1581,-14.59555345,-8.05017243,-872,3408.203125,46144,-1870,-17.26355785
-1581,-14.59555345,-8.197882015,-888,3412.109375,46272,-1861,-17.18047121
-1585,-14.63248085,-8.013245033,-868,3416.015625,46400,-1868,-17.24509415
-1580,-14.5863216,-7.985549486,-865,3419.921875,46528,-1866,-17.22663045
-1585,-14.63248085,-7.976317637,-864,3423.828125,46656,-1883,-17.38357189
-1585,-14.63248085,-8.271736808,-896,3427.734375,46784,-1885,-17.40203558
-1582,-14.6047853,-8.262504959,-895,3431.640625,46912,-1882,-17.37434004
-1597,-14.74326304,-8.244041261,-893,3435.546875,47040,-1885,-17.40203558
-1584,-14.623249,-8.05017243,-872,3439.453125,47168,-1866,-17.22663045
-1607,-14.83558153,-8.170186468,-885,3443.359375,47296,-1881,-17.36510819
-1602,-14.78942228,-8.262504959,-895,3447.265625,47424,-1879,-17.34664449
-1600,-14.77095859,-8.271736808,-896,3451.171875,47552,-1894,-17.48512223
-1565,-14.44784387,-8.271736808,-896,3455.078125,47680,-1902,-17.55897702
-1536,-14.18012024,-7.985549486,-865,3458.984375,47808,-1900,-17.54051332
-1506,-13.90316477,-8.244041261,-893,3462.890625,47936,-1912,-17.65129551
-1463,-13.50619526,-8.207113865,-889,3466.796875,48064,-1915,-17.67899106
-1403,-12.95228431,-9.379558702,-1016,3470.703125,48192,-1942,-17.92825098
-1361,-12.56454665,-9.453413495,-1024,3474.609375,48320,-1962,-18.11288797
-1329,-12.26912748,-9.314935759,-1009,3478.515625,48448,-1958,-18.07596057
-1353,-12.49069185,-8.539460433,-925,3482.421875,48576,-1950,-18.00210578
-1412,-13.03537095,-9.010284738,-976,3486.328125,48704,-1955,-18.04826502
-1500,-13.84777367,-9.453413495,-1024,3490.234375,48832,-1978,-18.26059755
-1513,-13.96778771,-9.176458022,-994,3494.140625,48960,-1956,-18.05749687
-1559,-14.39245277,-9.425717948,-1021,3498.046875,49088,-1961,-18.10365612
-1587,-14.65094455,-9.167226173,-993,3501.953125,49216,-1970,-18.18674276
-1576,-14.54939421,-9.19492172,-996,3505.859375,49344,-1964,-18.13135166
-1584,-14.623249,-8.308664205,-900,3509.765625,49472,-1980,-18.27906125
-1571,-14.50323496,-9.453413495,-1024,3513.671875,49600,-1967,-18.15904721
-1565,-14.44784387,-9.388790551,-1017,3517.578125,49728,-1960,-18.09442427
-1567,-14.46630757,-9.453413495,-1024,3521.484375,49856,-1967,-18.15904721
-1563,-14.42938017,-8.280968657,-897,3525.390625,49984,-1971,-18.19597461
-1578,-14.56785791,-8.871807001,-961,3529.296875,50112,-1994,-18.40830714
-1574,-14.53093051,-8.557924131,-927,3533.203125,50240,-1981,-18.2882931
-1570,-14.49400311,-8.345591601,-904,3537.109375,50368,-1984,-18.31598865
-1573,-14.52169866,-9.388790551,-1017,3541.015625,50496,-1983,-18.3067568
-1577,-14.55862606,-8.871807001,-961,3544.921875,50624,-1992,-18.38984344
-1579,-14.57708975,-8.936429945,-968,3548.828125,50752,-2004,-18.50062563
-1577,-14.55862606,-8.973357341,-972,3552.734375,50880,-1999,-18.45446638
-1560,-14.40168462,-9.148762474,-991,3556.640625,51008,-1994,-18.40830714
-1575,-14.54016236,-9.010284738,-976,3560.546875,51136,-2000,-18.46369823
-1560,-14.40168462,-8.88103885,-962,3564.453125,51264,-1996,-18.42677084
-1574,-14.53093051,-9.157994324,-992,3568.359375,51392,-2020,-18.64833522
-1569,-14.48477126,-9.425717948,-1021,3572.265625,51520,-2014,-18.59294412
-1568,-14.47553941,-9.157994324,-992,3576.171875,51648,-2012,-18.57448042
-1565,-14.44784387,-9.010284738,-976,3580.078125,51776,-2012,-18.57448042
-1571,-14.50323496,-9.231849116,-1000,3583.984375,51904,-2024,-18.68526261
-1584,-14.623249,-9.241080966,-1001,3587.890625,52032,-2038,-18.8145085
-1562,-14.42014832,-9.388790551,-1017,3591.796875,52160,-2025,-18.69449446
-1569,-14.48477126,-9.305703909,-1008,3595.703125,52288,-2032,-18.7591174
-1550,-14.30936613,-9.09337138,-985,3599.609375,52416,-2016,-18.61140782
-1558,-14.38322092,-9.388790551,-1017,3603.515625,52544,-2030,-18.74065371
-1560,-14.40168462,-9.314935759,-1009,3607.421875,52672,-2034,-18.7775811
-1557,-14.37398907,-9.305703909,-1008,3611.328125,52800,-2030,-18.74065371
-1560,-14.40168462,-9.453413495,-1024,3615.234375,52928,-2043,-18.86066774
-1546,-14.27243873,-9.416486099,-1020,3619.140625,53056,-2028,-18.72219001
-1558,-14.38322092,-9.388790551,-1017,3623.046875,53184,-2037,-18.80527665
-1547,-14.28167058,-9.453413495,-1024,3626.953125,53312,-2046,-18.88836329
-1551,-14.31859798,-0.073854793,-8,3630.859375,53440,-2051,-18.93452254
-1549,-14.30013428,-9.453413495,-1024,3634.765625,53568,-2045,-18.87913144
-1534,-14.16165654,-9.241080966,-1001,3638.671875,53696,-2032,-18.7591174
-1550,-14.30936613,-0.009231849,-1,3642.578125,53824,-2058,-18.99914548
-1539,-14.20781579,-0.046159246,-5,3646.484375,53952,-2058,-18.99914548
-1541,-14.22627949,-0.138477737,-15,3650.390625,54080,-2059,-19.00837733
-1536,-14.18012024,-0.073854793,-8,3654.296875,54208,-2055,-18.97144993
-1529,-14.1154973,-9.453413495,-1024,3658.203125,54336,-2047,-18.89759514
-1537,-14.18935209,-0.064622944,-7,3662.109375,54464,-2065,-19.06376843
-1528,-14.10626545,-0.009231849,-1,3666.015625,54592,-2058,-18.99914548
-1530,-14.12472915,-0.083086642,-9,3669.921875,54720,-2072,-19.12839137
-1521,-14.04164251,-0.147709586,-16,3673.828125,54848,-2072,-19.12839137
-1512,-13.95855586,-0.295419172,-32,3677.734375,54976,-2068,-19.09146397
-1522,-14.05087436,-0.31388287,-34,3681.640625,55104,-2089,-19.2853328
-1522,-14.05087436,-0.369273965,-40,3685.546875,55232,-2091,-19.3037965
-1516,-13.99548326,-0.369273965,-40,3689.453125,55360,-2088,-19.27610096
-1526,-14.08780175,-0.590838343,-64,3693.359375,55488,-2098,-19.36841945
-1521,-14.04164251,-0.073854793,-8,3697.265625,55616,-2088,-19.27610096
-1529,-14.1154973,-0.230796228,-25,3701.171875,55744,-2107,-19.45150609
-1527,-14.0970336,-0.5262154,-57,3705.078125,55872,-2106,-19.44227424
-1527,-14.0970336,-0.590838343,-64,3708.984375,56000,-2106,-19.44227424
-1537,-14.18935209,-0.609302042,-66,3712.890625,56128,-2122,-19.58998383
-1534,-14.16165654,-0.009231849,-1,3716.796875,56256,-2120,-19.57152013
-1544,-14.25397504,-0.036927396,-4,3720.703125,56384,-2121,-19.58075198
-1547,-14.28167058,-0.036927396,-4,3724.609375,56512,-2125,-19.61767937
-1556,-14.36475723,-0.276955473,-30,3728.515625,56640,-2142,-19.77462081
-1551,-14.31859798,-0.886257515,-96,3732.421875,56768,-2135,-19.70999786
-1563,-14.42938017,-0.609302042,-66,3736.328125,56896,-2142,-19.77462081
-1557,-14.37398907,-0.073854793,-8,3740.234375,57024,-2142,-19.77462081
-1571,-14.50323496,-0.895489364,-97,3744.140625,57152,-2157,-19.91309854
-1569,-14.48477126,-1.14474929,-124,3748.046875,57280,-2163,-19.96848964
-1563,-14.42938017,-1.126285592,-122,3751.953125,57408,-2149,-19.83924375
-1564,-14.43861202,-1.117053743,-121,3755.859375,57536,-2147,-19.82078005
-1570,-14.49400311,-0.960112308,-104,3759.765625,57664,-2156,-19.9038667
-1569,-14.48477126,-1.033967101,-112,3763.671875,57792,-2158,-19.92233039
-1566,-14.45707572,-1.070894498,-116,3767.578125,57920,-2167,-20.00541704
-1563,-14.42938017,-1.117053743,-121,3771.484375,58048,-2161,-19.95002594
-1564,-14.43861202,-1.181676687,-128,3775.390625,58176,-2168,-20.01464888
-1567,-14.46630757,-1.04319895,-113,3779.296875,58304,-2165,-19.98695334
-1575,-14.54016236,-1.181676687,-128,3783.203125,58432,-2174,-20.07003998
-1578,-14.56785791,-1.181676687,-128,3787.109375,58560,-2178,-20.10696738
-1571,-14.50323496,-1.107821894,-120,3791.015625,58688,-2172,-20.05157628
-1569,-14.48477126,-1.15398114,-125,3794.921875,58816,-2168,-20.01464888
-1562,-14.42014832,-0.895489364,-97,3798.828125,58944,-2154,-19.885403
-1566,-14.45707572,-0.590838343,-64,3802.734375,59072,-2156,-19.9038667
-1585,-14.63248085,-1.117053743,-121,3806.640625,59200,-2169,-20.02388073
-1568,-14.47553941,-1.181676687,-128,3810.546875,59328,-2156,-19.9038667
-1564,-14.43861202,-1.024735252,-111,3814.453125,59456,-2159,-19.93156224
-1565,-14.44784387,-0.544679098,-59,3818.359375,59584,-2147,-19.82078005
-1571,-14.50323496,-0.590838343,-64,3822.265625,59712,-2155,-19.89463485
-1576,-14.54939421,-1.033967101,-112,3826.171875,59840,-2158,-19.92233039
-1563,-14.42938017,-1.172444838,-127,3830.078125,59968,-2150,-19.8484756
-1567,-14.46630757,-0.960112308,-104,3833.984375,60096,-2149,-19.83924375
-1556,-14.36475723,-0.295419172,-32,3837.890625,60224,-2133,-19.69153417
-1569,-14.48477126,-0.923184912,-100,3841.796875,60352,-2152,-19.8669393
-1575,-14.54016236,-1.04319895,-113,3845.703125,60480,-2147,-19.82078005
-1574,-14.53093051,-1.163212989,-126,3849.609375,60608,-2146,-19.8115482
-1581,-14.59555345,-1.172444838,-127,3853.515625,60736,-2157,-19.91309854
-1556,-14.36475723,-0.009231849,-1,3857.421875,60864,-2123,-19.59921567
-1571,-14.50323496,-0.073854793,-8,3861.328125,60992,-2135,-19.70999786
-1573,-14.52169866,-0.600070193,-65,3865.234375,61120,-2146,-19.8115482
-1573,-14.52169866,-1.04319895,-113,3869.140625,61248,-2145,-19.80231635
-1570,-14.49400311,-0.673924986,-73,3873.046875,61376,-2136,-19.71922971
-1559,-14.39245277,-0.009231849,-1,3876.953125,61504,-2125,-19.61767937
-1568,-14.47553941,-0.286187323,-31,3880.859375,61632,-2135,-19.70999786
-1580,-14.5863216,-0.821634571,-89,3884.765625,61760,-2138,-19.73769341
-1570,-14.49400311,-0.600070193,-65,3888.671875,61888,-2130,-19.66383862
-1548,-14.29090243,-0.036927396,-4,3892.578125,62016,-2124,-19.60844752
-1559,-14.39245277,-0.590838343,-64,3896.484375,62144,-2112,-19.49766533
-1570,-14.49400311,-0.156941435,-17,3900.390625,62272,-2130,-19.66383862
-1568,-14.47553941,-0.092318491,-10,3904.296875,62400,-2127,-19.63614307
-1577,-14.55862606,-0.858561968,-93,3908.203125,62528,-2135,-19.70999786
-1572,-14.51246681,-0.72931608,-79,3912.109375,62656,-2131,-19.67307047
-1553,-14.33706168,-0.009231849,-1,3916.015625,62784,-2110,-19.47920164
-1562,-14.42014832,-0.064622944,-7,3919.921875,62912,-2119,-19.56228828
-1573,-14.52169866,-0.009231849,-1,3923.828125,63040,-2124,-19.60844752
-1583,-14.61401715,-0.62776574,-68,3927.734375,63168,-2135,-19.70999786
-1569,-14.48477126,-0.064622944,-7,3931.640625,63296,-2119,-19.56228828
-1567,-14.46630757,-0.018463698,-2,3935.546875,63424,-2114,-19.51612903
-1574,-14.53093051,-0.147709586,-16,3939.453125,63552,-2121,-19.58075198
-1572,-14.51246681,-0.018463698,-2,3943.359375,63680,-2116,-19.53459273
-1577,-14.55862606,-0.738547929,-80,3947.265625,63808,-2122,-19.58998383
-1569,-14.48477126,-0.609302042,-66,3951.171875,63936,-2116,-19.53459273
-1567,-14.46630757,-0.590838343,-64,3955.078125,64064,-2105,-19.43304239
-1572,-14.51246681,-0.018463698,-2,3958.984375,64192,-2116,-19.53459273
-1561,-14.41091647,-0.553910947,-60,3962.890625,64320,-2108,-19.46073794
-1579,-14.57708975,-0.286187323,-31,3966.796875,64448,-2133,-19.69153417
-1566,-14.45707572,-0.572374645,-62,3970.703125,64576,-2110,-19.47920164
-1559,-14.39245277,-0.590838343,-64,3974.609375,64704,-2112,-19.49766533
-1571,-14.50323496,-0.590838343,-64,3978.515625,64832,-2112,-19.49766533
-1575,-14.54016236,-0.064622944,-7,3982.421875,64960,-2119,-19.56228828
-1576,-14.54939421,-0.166173284,-18,3986.328125,65088,-2128,-19.64537492
-1570,-14.49400311,-0.600070193,-65,3990.234375,65216,-2115,-19.52536088
-1570,-14.49400311,-0.590838343,-64,3994.140625,65344,-2115,-19.52536088
-1561,-14.41091647,-0.018463698,-2,3998.046875,65472,-2116,-19.53459273
-1566,-14.45707572,-0.036927396,-4,4001.953125,64,-2127,-19.63614307
-1571,-14.50323496,-0.276955473,-30,4005.859375,192,-2134,-19.70076601
-1563,-14.42938017,-0.600070193,-65,4009.765625,320,-2119,-19.56228828
-1562,-14.42014832,-0.009231849,-1,4013.671875,448,-2121,-19.58075198
-1558,-14.38322092,-0.009231849,-1,4017.578125,576,-2119,-19.56228828
-1561,-14.41091647,-0.600070193,-65,4021.484375,704,-2122,-19.58998383
-1564,-14.43861202,-0.156941435,-17,4025.390625,832,-2141,-19.76538896
-1565,-14.44784387,-0.230796228,-25,4029.296875,960,-2133,-19.69153417
-1563,-14.42938017,-0.267723624,-29,4033.203125,1088,-2129,-19.65460677
-1547,-14.28167058,-0.073854793,-8,4037.109375,1216,-2120,-19.57152013
-1559,-14.39245277,-0.138477737,-15,4041.015625,1344,-2127,-19.63614307
-1563,-14.42938017,-0.230796228,-25,4044.921875,1472,-2131,-19.67307047
-1568,-14.47553941,-0.295419172,-32,4048.828125,1600,-2132,-19.68230232
-1569,-14.48477126,-0.609302042,-66,4052.734375,1728,-2132,-19.68230232
-1557,-14.37398907,-0.009231849,-1,4056.640625,1856,-2117,-19.54382458
-1579,-14.57708975,-0.092318491,-10,4060.546875,1984,-2138,-19.73769341
-1573,-14.52169866,-0.738547929,-80,4064.453125,2112,-2144,-19.79308451
-1576,-14.54939421,-0.738547929,-80,4068.359375,2240,-2139,-19.74692526
-1568,-14.47553941,-0.147709586,-16,4072.265625,2368,-2128,-19.64537492
-1571,-14.50323496,-0.147709586,-16,4076.171875,2496,-2127,-19.63614307
-1578,-14.56785791,-0.073854793,-8,4080.078125,2624,-2143,-19.78385266
-1569,-14.48477126,-0.230796228,-25,4083.984375,2752,-2137,-19.72846156
-1577,-14.55862606,-0.849330119,-92,4087.890625,2880,-2140,-19.75615711
-1571,-14.50323496,-0.72931608,-79,4091.796875,3008,-2143,-19.78385266
-1570,-14.49400311,-0.221564379,-24,4095.703125,3136,-2136,-19.71922971
-1579,-14.57708975,-0.295419172,-32,4099.609375,3264,-2141,-19.76538896
-1578,-14.56785791,-0.664693136,-72,4103.515625,3392,-2135,-19.70999786
-1570,-14.49400311,-0.636997589,-69,4107.421875,3520,-2140,-19.75615711
-1572,-14.51246681,-0.452360607,-49,4111.328125,3648,-2145,-19.80231635
-1556,-14.36475723,-0.018463698,-2,4115.234375,3776,-2122,-19.58998383
-1564,-14.43861202,-0.286187323,-31,4119.140625,3904,-2135,-19.70999786
-1570,-14.49400311,-0.295419172,-32,4123.046875,4032,-2138,-19.73769341
-1585,-14.63248085,-0.886257515,-96,4126.953125,4160,-2144,-19.79308451
-1587,-14.65094455,-0.147709586,-16,4130.859375,4288,-2123,-19.59921567
-1588,-14.6601764,-0.009231849,-1,4134.765625,4416,-2114,-19.51612903
-1588,-14.6601764,-0.009231849,-1,4138.671875,4544,-2114,-19.51612903
-1597,-14.74326304,-0.027695547,-3,4142.578125,4672,-2127,-19.63614307
-1571,-14.50323496,-0.609302042,-66,4146.484375,4800,-2130,-19.66383862
-1548,-14.29090243,-0.138477737,-15,4150.390625,4928,-2123,-19.59921567
-1514,-13.97701956,-0.083086642,-9,4154.296875,5056,-2123,-19.59921567
-1477,-13.63544115,-0.009231849,-1,4158.203125,5184,-2131,-19.67307047
-1436,-13.25693533,-0.286187323,-31,4162.109375,5312,-2143,-19.78385266
-1375,-12.69379254,-0.590838343,-64,4166.015625,5440,-2166,-19.99618519
-1338,-12.35221412,-0.461592456,-50,4169.921875,5568,-2164,-19.97772149
-1319,-12.17680898,-0.009231849,-1,4173.828125,5696,-2159,-19.93156224
-1372,-12.66609699,-1.181676687,-128,4177.734375,5824,-2164,-19.97772149
-1441,-13.30309458,-0.083086642,-9,4181.640625,5952,-2161,-19.95002594
-1502,-13.86623737,-0.286187323,-31,4185.546875,6080,-2155,-19.89463485
-1536,-14.18012024,-0.452360607,-49,4189.453125,6208,-2151,-19.85770745
-1562,-14.42014832,-0.009231849,-1,4193.359375,6336,-2142,-19.77462081
-1573,-14.52169866,-0.230796228,-25,4197.265625,6464,-2139,-19.74692526
-1567,-14.46630757,-0.120014039,-13,4201.171875,6592,-2138,-19.73769341
-1563,-14.42938017,-0.286187323,-31,4205.078125,6720,-2139,-19.74692526
-1555,-14.35552538,-0.600070193,-65,4208.984375,6848,-2129,-19.65460677
505,4.662083804,-4.735938597,-513,4212.890625,6976,-10249,-94.61722159
505,4.662083804,-4.735938597,-513,4216.796875,7104,32247,297.6994385
-1576,-14.54939421,-9.453413495,-1024,4224.609375,7360,-2146,-19.8115482
-1572,-14.51246681,4.135868404,448,4228.515625,7488,-2136,-19.71922971
-1558,-14.38322092,-2.363353374,-256,4232.421875,7616,-2117,-19.54382458
-1561,-14.41091647,-0.009231849,-1,4236.328125,7744,-2126,-19.62691122
-1560,-14.40168462,-0.009231849,-1,4240.234375,7872,-2126,-19.62691122
-1566,-14.45707572,-0.673924986,-73,4244.140625,8000,-2138,-19.73769341
-1554,-14.34629353,-0.821634571,-89,4248.046875,8128,-2132,-19.68230232
-1563,-14.42938017,-0.240028077,-26,4251.953125,8256,-2127,-19.63614307
-1561,-14.41091647,-0.009231849,-1,4255.859375,8384,-2121,-19.58075198
-1567,-14.46630757,-0.138477737,-15,4259.765625,8512,-2137,-19.72846156
-1568,-14.47553941,-0.600070193,-65,4263.671875,8640,-2141,-19.76538896
-1560,-14.40168462,-0.600070193,-65,4267.578125,8768,-2124,-19.60844752
-1555,-14.35552538,-0.230796228,-25,4271.484375,8896,-2123,-19.59921567
-1548,-14.29090243,-0.009231849,-1,4275.390625,9024,-2116,-19.53459273
-1561,-14.41091647,-0.230796228,-25,4279.296875,9152,-2130,-19.66383862
-1563,-14.42938017,-0.286187323,-31,4283.203125,9280,-2134,-19.70076601
-1562,-14.42014832,-0.138477737,-15,4287.109375,9408,-2122,-19.58998383
-1543,-14.24474319,-0.138477737,-15,4291.015625,9536,-2117,-19.54382458
-1543,-14.24474319,-0.295419172,-32,4294.921875,9664,-2113,-19.50689718
-1556,-14.36475723,-0.147709586,-16,4298.828125,9792,-2121,-19.58075198
-1553,-14.33706168,-0.073854793,-8,4302.734375,9920,-2118,-19.55305643
-1555,-14.35552538,-0.147709586,-16,4306.640625,10048,-2124,-19.60844752
-1549,-14.30013428,-0.590838343,-64,4310.546875,10176,-2115,-19.52536088
-1545,-14.26320688,-0.276955473,-30,4314.453125,10304,-2103,-19.41457869
-1545,-14.26320688,-0.147709586,-16,4318.359375,10432,-2107,-19.45150609
-1547,-14.28167058,-0.535447249,-58,4322.265625,10560,-2105,-19.43304239
-1548,-14.29090243,-0.535447249,-58,4326.171875,10688,-2104,-19.42381054
-1526,-14.08780175,-0.073854793,-8,4330.078125,10816,-2079,-19.19301431
-1532,-14.14319285,-0.120014039,-13,4333.984375,10944,-2086,-19.25763726
-1531,-14.133961,-0.073854793,-8,4337.890625,11072,-2089,-19.2853328
-1528,-14.10626545,-0.304651021,-33,4341.796875,11200,-2084,-19.23917356
-1533,-14.1524247,-0.590838343,-64,4345.703125,11328,-2094,-19.33149205
-1525,-14.0785699,-0.286187323,-31,4349.609375,11456,-2080,-19.20224616
-1522,-14.05087436,-0.009231849,-1,4353.515625,11584,-2074,-19.14685507
-1520,-14.03241066,-0.184636982,-20,4357.421875,11712,-2065,-19.06376843
-1510,-13.94009217,-0.036927396,-4,4361.328125,11840,-2066,-19.07300027
-1525,-14.0785699,-0.064622944,-7,4365.234375,11968,-2079,-19.19301431
-1511,-13.94932402,-0.018463698,-2,4369.140625,12096,-2065,-19.06376843
-1507,-13.91239662,-0.018463698,-2,4373.046875,12224,-2060,-19.01760918
-1516,-13.99548326,-0.036927396,-4,4376.953125,12352,-2074,-19.14685507
-1514,-13.97701956,-0.036927396,-4,4380.859375,12480,-2072,-19.12839137
-1518,-14.01394696,-0.156941435,-17,4384.765625,12608,-2067,-19.08223212
-1515,-13.98625141,-0.036927396,-4,4388.671875,12736,-2058,-18.99914548
-1511,-13.94932402,-0.083086642,-9,4392.578125,12864,-2056,-18.98068178
-1526,-14.08780175,-0.083086642,-9,4396.484375,12992,-2070,-19.10992767
-1525,-14.0785699,-0.156941435,-17,4400.390625,13120,-2068,-19.09146397
-1539,-14.20781579,-0.009231849,-1,4404.296875,13248,-2079,-19.19301431
-1528,-14.10626545,-0.230796228,-25,4408.203125,13376,-2074,-19.14685507
-1530,-14.12472915,-0.018463698,-2,4412.109375,13504,-2077,-19.17455061
-1528,-14.10626545,-0.295419172,-32,4416.015625,13632,-2078,-19.18378246
-1539,-14.20781579,-0.036927396,-4,4419.921875,13760,-2083,-19.22994171
-1549,-14.30013428,-0.581606494,-63,4423.828125,13888,-2101,-19.39611499
-1551,-14.31859798,-0.120014039,-13,4427.734375,14016,-2093,-19.3222602
-1548,-14.29090243,-0.120014039,-13,4431.640625,14144,-2094,-19.33149205
-1546,-14.27243873,-0.147709586,-16,4435.546875,14272,-2102,-19.40534684
-1544,-14.25397504,-0.193868831,-21,4439.453125,14400,-2098,-19.36841945
-1565,-14.44784387,-0.055391095,-6,4443.359375,14528,-2119,-19.56228828
-1546,-14.27243873,-0.073854793,-8,4447.265625,14656,-2104,-19.42381054
-1550,-14.30936613,-0.064622944,-7,4451.171875,14784,-2110,-19.47920164
-1553,-14.33706168,-0.147709586,-16,4455.078125,14912,-2114,-19.51612903
-1562,-14.42014832,-0.138477737,-15,4458.984375,15040,-2123,-19.59921567
-1569,-14.48477126,-0.156941435,-17,4462.890625,15168,-2131,-19.67307047
-1556,-14.36475723,-0.009231849,-1,4466.796875,15296,-2116,-19.53459273
-1565,-14.44784387,-0.009231849,-1,4470.703125,15424,-2132,-19.68230232
-1548,-14.29090243,-0.036927396,-4,4474.609375,15552,-2123,-19.59921567
-1560,-14.40168462,-0.295419172,-32,4478.515625,15680,-2133,-19.69153417
-1561,-14.41091647,-0.147709586,-16,4482.421875,15808,-2141,-19.76538896
-1551,-14.31859798,-0.073854793,-8,4486.328125,15936,-2129,-19.65460677
-1554,-14.34629353,-0.018463698,-2,4490.234375,16064,-2138,-19.73769341
-1553,-14.33706168,-0.184636982,-20,4494.140625,16192,-2137,-19.72846156
-1547,-14.28167058,-0.295419172,-32,4498.046875,16320,-2142,-19.77462081
-1550,-14.30936613,-1.04319895,-113,4501.953125,16448,-2162,-19.95925779
-1554,-14.34629353,-1.117053743,-121,4505.859375,16576,-2161,-19.95002594
-1551,-14.31859798,-0.590838343,-64,4509.765625,16704,-2154,-19.885403
-1557,-14.37398907,-0.360042116,-39,4513.671875,16832,-2156,-19.9038667
-1551,-14.31859798,-0.480056154,-52,4517.578125,16960,-2167,-20.00541704
-1571,-14.50323496,-1.25553148,-136,4521.484375,17088,-2190,-20.21774957
-1561,-14.41091647,-1.818674276,-197,4525.390625,17216,-2182,-20.14389477
-1556,-14.36475723,-1.200140385,-130,4529.296875,17344,-2183,-20.15312662
-1547,-14.28167058,-0.553910947,-60,4533.203125,17472,-2172,-20.05157628
-1552,-14.32782983,-1.227835932,-133,4537.109375,17600,-2181,-20.13466292
-1559,-14.39245277,-2.040238655,-221,4541.015625,17728,-2205,-20.3562273
-1559,-14.39245277,-2.280266732,-247,4544.921875,17856,-2199,-20.30083621
-1562,-14.42014832,-1.910992767,-207,4548.828125,17984,-2203,-20.3377636
-1542,-14.23551134,-1.347849971,-146,4552.734375,18112,-2187,-20.19005402
-1538,-14.19858394,-1.227835932,-133,4556.640625,18240,-2190,-20.21774957
-1556,-14.36475723,-2.077166051,-225,4560.546875,18368,-2215,-20.44854579
-1559,-14.39245277,-2.215643788,-240,4564.453125,18496,-2223,-20.52240059
-1549,-14.30013428,-2.252571184,-244,4568.359375,18624,-2216,-20.45777764
-1538,-14.19858394,-1.781746879,-193,4572.265625,18752,-2202,-20.32853175
-1564,-14.43861202,-2.289498581,-248,4576.171875,18880,-2230,-20.58702353
-1555,-14.35552538,-2.224875637,-241,4580.078125,19008,-2227,-20.55932798
-1565,-14.44784387,-2.224875637,-241,4583.984375,19136,-2243,-20.70703757
-1564,-14.43861202,-2.335657826,-253,4587.890625,19264,-2237,-20.65164647
-1552,-14.32782983,-2.326425977,-252,4591.796875,19392,-2235,-20.63318278
-1550,-14.30936613,-1.781746879,-193,4595.703125,19520,-2242,-20.69780572
-1558,-14.38322092,-1.781746879,-193,4599.609375,19648,-2246,-20.73473312
-1566,-14.45707572,-2.289498581,-248,4603.515625,19776,-2261,-20.87321085
-1556,-14.36475723,-1.920224616,-208,4607.421875,19904,-2254,-20.80858791
-1556,-14.36475723,-1.809442427,-196,4611.328125,20032,-2252,-20.79012421
-1562,-14.42014832,-2.363353374,-256,4615.234375,20160,-2263,-20.89167455
-1562,-14.42014832,-1.800210578,-195,4619.140625,20288,-2259,-20.85474715
-1558,-14.38322092,-2.104861599,-228,4623.046875,20416,-2276,-21.01168859
-1545,-14.26320688,-2.132557146,-231,4626.953125,20544,-2255,-20.81781976
-1556,-14.36475723,-2.141788995,-232,4630.859375,20672,-2272,-20.97476119
-1559,-14.39245277,-2.077166051,-225,4634.765625,20800,-2278,-21.03015229
-1560,-14.40168462,-2.243339335,-243,4638.671875,20928,-2281,-21.05784783
-1567,-14.46630757,-2.363353374,-256,4642.578125,21056,-2290,-21.14093448
-1548,-14.29090243,-2.363353374,-256,4646.484375,21184,-2279,-21.03938414
-1558,-14.38322092,-2.363353374,-256,4650.390625,21312,-2289,-21.13170263
-1555,-14.35552538,-2.363353374,-256,4654.296875,21440,-2292,-21.15939817
-1549,-14.30013428,-2.224875637,-241,4658.203125,21568,-2293,-21.16863002
-1561,-14.41091647,-0.018463698,-2,4662.109375,21696,-2308,-21.30710776
-1561,-14.41091647,-0.018463698,-2,4666.015625,21824,-2306,-21.28864406
-1546,-14.27243873,-0.009231849,-1,4669.921875,21952,-2305,-21.27941221
-1554,-14.34629353,-0.064622944,-7,4673.828125,22080,-2317,-21.3901944
-1546,-14.27243873,-0.036927396,-4,4677.734375,22208,-2312,-21.34403516
-1557,-14.37398907,-2.372585223,-257,4681.640625,22336,-2328,-21.49174474
-1548,-14.29090243,-2.409512619,-261,4685.546875,22464,-2325,-21.4640492
-1543,-14.24474319,-0.009231849,-1,4689.453125,22592,-2321,-21.4271218
-1536,-14.18012024,-0.138477737,-15,4693.359375,22720,-2315,-21.3717307
-1541,-14.22627949,-0.295419172,-32,4697.265625,22848,-2323,-21.4455855
-1554,-14.34629353,-0.461592456,-50,4701.171875,22976,-2340,-21.60252693
-1538,-14.19858394,-2.501831111,-271,4705.078125,23104,-2331,-21.51944029
-1539,-14.20781579,-0.295419172,-32,4708.984375,23232,-2332,-21.52867214
-1534,-14.16165654,-0.166173284,-18,4712.890625,23360,-2326,-21.47328104
-1541,-14.22627949,-0.009231849,-1,4716.796875,23488,-2331,-21.51944029
-1553,-14.33706168,-2.40028077,-260,4720.703125,23616,-2348,-21.67638173
-1534,-14.16165654,-2.437208167,-264,4724.609375,23744,-2335,-21.55636769
-1543,-14.24474319,-2.381817072,-258,4728.515625,23872,-2346,-21.65791803
-1530,-14.12472915,-0.009231849,-1,4732.421875,24000,-2326,-21.47328104
-1545,-14.26320688,-0.304651021,-33,4736.328125,24128,-2349,-21.68561357
-1543,-14.24474319,-0.581606494,-63,4740.234375,24256,-2349,-21.68561357
-1546,-14.27243873,-2.566454054,-278,4744.140625,24384,-2358,-21.76870022
-1544,-14.25397504,-0.590838343,-64,4748.046875,24512,-2359,-21.77793207
-1527,-14.0970336,-0.5262154,-57,4751.953125,24640,-2338,-21.58406323
-1541,-14.22627949,-0.31388287,-34,4755.859375,24768,-2348,-21.67638173
-1530,-14.12472915,-0.563142796,-61,4759.765625,24896,-2357,-21.75946837
-1531,-14.133961,-2.381817072,-258,4763.671875,25024,-2362,-21.80562761
-1527,-14.0970336,-2.437208167,-264,4767.578125,25152,-2357,-21.75946837
-1530,-14.12472915,-0.489288003,-53,4771.484375,25280,-2357,-21.75946837
-1537,-14.18935209,-0.5262154,-57,4775.390625,25408,-2363,-21.81485946
-1529,-14.1154973,-1.181676687,-128,4779.296875,25536,-2372,-21.8979461
-1547,-14.28167058,-2.584917753,-280,4783.203125,25664,-2392,-22.08258309
-1538,-14.19858394,-2.40028077,-260,4787.109375,25792,-2387,-22.03642384
-1535,-14.17088839,-2.409512619,-261,4791.015625,25920,-2373,-21.90717795
-1542,-14.23551134,-2.418744469,-262,4794.921875,26048,-2387,-22.03642384
-1551,-14.31859798,-2.372585223,-257,4798.828125,26176,-2384,-22.00872829
-1557,-14.37398907,-2.520294809,-273,4802.734375,26304,-2386,-22.02719199
-1567,-14.46630757,-2.381817072,-258,4806.640625,26432,-2380,-21.9718009
-1568,-14.47553941,-1.15398114,-125,4810.546875,26560,-2377,-21.94410535
-1541,-14.22627949,-2.372585223,-257,4814.453125,26688,-2387,-22.03642384
-1512,-13.95855586,-2.649540696,-287,4818.359375,26816,-2397,-22.12874233
-1493,-13.78315073,-2.40028077,-260,4822.265625,26944,-2403,-22.18413343
-1445,-13.34002197,-2.381817072,-258,4826.171875,27072,-2418,-22.32261116
-1390,-12.83227027,-1.181676687,-128,4830.078125,27200,-2423,-22.36877041
-1336,-12.33375042,-2.215643788,-240,4833.984375,27328,-2440,-22.52571184
-1300,-12.00140385,-2.224875637,-241,4837.890625,27456,-2453,-22.64572588
-1304,-12.03833125,-2.335657826,-253,4841.796875,27584,-2462,-22.72881252
-1322,-12.20450453,-2.114093448,-229,4845.703125,27712,-2437,-22.4980163
-1390,-12.83227027,-2.0863979,-226,4849.609375,27840,-2440,-22.52571184
-1467,-13.54312265,-2.224875637,-241,4853.515625,27968,-2456,-22.67342143
-1495,-13.80161443,-2.335657826,-253,4857.421875,28096,-2438,-22.50724815
-1531,-14.133961,-3.692739647,-400,4861.328125,28224,-2447,-22.59033479
-1535,-14.17088839,-3.55426191,-385,4865.234375,28352,-2434,-22.47032075
-1526,-14.08780175,-2.29873043,-249,4869.140625,28480,-2433,-22.4610889
-1527,-14.0970336,-2.077166051,-225,4873.046875,28608,-2437,-22.4980163
-1524,-14.06933805,-3.55426191,-385,4876.953125,28736,-2441,-22.53494369
-1525,-14.0785699,-3.572725608,-387,4880.859375,28864,-2451,-22.62726218
-1506,-13.90316477,-2.649540696,-287,4884.765625,28992,-2431,-22.4426252
-1521,-14.04164251,-3.618884854,-392,4888.671875,29120,-2447,-22.59033479
-1525,-14.0785699,-3.55426191,-385,4892.578125,29248,-2443,-22.55340739
-1528,-14.10626545,-3.683507797,-399,4896.484375,29376,-2447,-22.59033479
-1538,-14.19858394,-4.440519425,-481,4900.390625,29504,-2468,-22.78420362
-1531,-14.133961,-3.683507797,-399,4904.296875,29632,-2457,-22.68265328
-1520,-14.03241066,-3.581957457,-388,4908.203125,29760,-2452,-22.63649403
-1528,-14.10626545,-3.840449232,-416,4912.109375,29888,-2460,-22.71034883
-1532,-14.14319285,-3.581957457,-388,4916.015625,30016,-2469,-22.79343547
-1539,-14.20781579,-4.135868404,-448,4919.921875,30144,-2479,-22.88575396
-1522,-14.05087436,-4.062013611,-440,4923.828125,30272,-2471,-22.81189917
-1530,-14.12472915,-3.96969512,-430,4927.734375,30400,-2474,-22.83959471
-1528,-14.10626545,-3.628116703,-393,4931.640625,30528,-2476,-22.85805841
-1525,-14.0785699,-3.618884854,-392,4935.546875,30656,-2471,-22.81189917
-1541,-14.22627949,-4.726706748,-512,4939.453125,30784,-2496,-23.04269539
-1517,-14.00471511,-4.505142369,-488,4943.359375,30912,-2471,-22.81189917
-1519,-14.02317881,-4.108172857,-445,4947.265625,31040,-2481,-22.90421766
-1523,-14.0601062,-4.07124546,-441,4951.171875,31168,-2490,-22.9873043
-1522,-14.05087436,-4.135868404,-448,4955.078125,31296,-2491,-22.99653615
-1528,-14.10626545,-4.135868404,-448,4958.984375,31424,-2496,-23.04269539
-1519,-14.02317881,-4.671315653,-506,4962.890625,31552,-2492,-23.005768
-1516,-13.99548326,-4.135868404,-448,4966.796875,31680,-2494,-23.0242317
-1517,-14.00471511,-4.034318064,-437,4970.703125,31808,-2486,-22.9503769
-1525,-14.0785699,-4.578997162,-496,4974.609375,31936,-2512,-23.19040498
-1521,-14.04164251,-4.28357799,-464,4978.515625,32064,-2510,-23.17194128
-1509,-13.93086032,-4.726706748,-512,4982.421875,32192,-2496,-23.04269539
-1509,-13.93086032,-4.615924558,-500,4986.328125,32320,-2499,-23.07039094
-1498,-13.82930998,-4.126636555,-447,4990.234375,32448,-2495,-23.03346355
-1508,-13.92162847,-4.523606067,-490,4994.140625,32576,-2508,-23.15347758
-1507,-13.91239662,-4.6990112,-509,4998.046875,32704,-2510,-23.17194128
-1509,-13.93086032,-4.292809839,-465,5001.953125,32832,-2513,-23.19963683
-1496,-13.81084628,-4.172795801,-452,5005.859375,32960,-2507,-23.14424574
-1486,-13.71852779,-4.6990112,-509,5009.765625,33088,-2495,-23.03346355
-1506,-13.90316477,-4.200491348,-455,5013.671875,33216,-2517,-23.23656423
-1500,-13.84777367,-4.145100253,-449,5017.578125,33344,-2519,-23.25502792
-1493,-13.78315073,-4.403592029,-477,5021.484375,33472,-2521,-23.27349162
-1486,-13.71852779,-4.329737236,-469,5025.390625,33600,-2516,-23.22733238
-1480,-13.66313669,-4.145100253,-449,5029.296875,33728,-2508,-23.15347758
-1486,-13.71852779,-4.209723197,-456,5033.203125,33856,-2502,-23.09808649
-1485,-13.70929594,-4.59746086,-498,5037.109375,33984,-2514,-23.20886868
-1484,-13.70006409,-4.717474899,-511,5041.015625,34112,-2527,-23.32888272
-1484,-13.70006409,-4.218955046,-457,5044.921875,34240,-2523,-23.29195532
1,0.009231849,-8.56715598,-928,5052.734375,34496,13639,125.9131901
-1489,-13.74622333,-4.643620106,-503,5068.359375,35008,-2512,-23.19040498
-1503,-13.87546922,-4.28357799,-464,5072.265625,35136,-2495,-23.03346355
-1499,-13.83854183,-4.209723197,-456,5076.171875,35264,-2515,-23.21810053
-1511,-13.94932402,-4.431287576,-480,5080.078125,35392,-2521,-23.27349162
-1508,-13.92162847,-4.200491348,-455,5083.984375,35520,-2516,-23.22733238
-1515,-13.98625141,-4.145100253,-449,5087.890625,35648,-2511,-23.18117313
-1522,-14.05087436,-4.569765313,-495,5091.796875,35776,-2504,-23.11655019
-1524,-14.06933805,-4.292809839,-465,5095.703125,35904,-2514,-23.20886868
-1533,-14.1524247,-4.689779351,-508,5099.609375,36032,-2522,-23.28272347
-1532,-14.14319285,-4.708243049,-510,5103.515625,36160,-2519,-23.25502792
-1520,-14.03241066,-4.209723197,-456,5107.421875,36288,-2507,-23.14424574
-1526,-14.08780175,-4.726706748,-512,5111.328125,36416,-2506,-23.13501389
-1534,-14.16165654,-4.440519425,-481,5115.234375,36544,-2514,-23.20886868
-1542,-14.23551134,-4.708243049,-510,5119.140625,36672,-2520,-23.26425977
-1533,-14.1524247,-4.588229011,-497,5123.046875,36800,-2515,-23.21810053
-1533,-14.1524247,-4.449751274,-482,5126.953125,36928,-2510,-23.17194128
-1532,-14.14319285,-4.726706748,-512,5130.859375,37056,-2496,-23.04269539
-1533,-14.1524247,-4.209723197,-456,5134.765625,37184,-2503,-23.10731834
-1551,-14.31859798,-4.145100253,-449,5138.671875,37312,-2517,-23.23656423
-1540,-14.21704764,-4.652851955,-504,5142.578125,37440,-2511,-23.18117313
-1539,-14.20781579,-4.154332102,-450,5146.484375,37568,-2499,-23.07039094
-1532,-14.14319285,-4.145100253,-449,5150.390625,37696,-2498,-23.06115909
-1536,-14.18012024,-4.440519425,-481,5154.296875,37824,-2500,-23.07962279
-1543,-14.24474319,-4.662083804,-505,5158.203125,37952,-2504,-23.11655019
-1545,-14.26320688,-4.28357799,-464,5162.109375,38080,-2512,-23.19040498
-1542,-14.23551134,-4.625156407,-501,5166.015625,38208,-2505,-23.12578204
-1521,-14.04164251,-4.717474899,-511,5169.921875,38336,-2492,-23.005768
-1535,-14.17088839,-4.689779351,-508,5173.828125,38464,-2497,-23.05192724
-1538,-14.19858394,-4.172795801,-452,5177.734375,38592,-2507,-23.14424574
-1541,-14.22627949,-4.145100253,-449,5181.640625,38720,-2506,-23.13501389
-1537,-14.18935209,-4.440519425,-481,5185.546875,38848,-2495,-23.03346355
-1521,-14.04164251,-4.652851955,-504,5189.453125,38976,-2487,-22.95960875
-1541,-14.22627949,-4.726706748,-512,5193.359375,39104,-2488,-22.9688406
-1547,-14.28167058,-4.726706748,-512,5197.265625,39232,-2499,-23.07039094
-1536,-14.18012024,-4.145100253,-449,5201.171875,39360,-2505,-23.12578204
-1531,-14.133961,-4.440519425,-481,5205.078125,39488,-2489,-22.97807245
-1532,-14.14319285,-4.726706748,-512,5208.984375,39616,-2487,-22.95960875
-1541,-14.22627949,-4.662083804,-505,5212.890625,39744,-2484,-22.93191321
-1547,-14.28167058,-4.726706748,-512,5216.796875,39872,-2495,-23.03346355
-1547,-14.28167058,-4.172795801,-452,5220.703125,40000,-2504,-23.11655019
-1544,-14.25397504,-4.6990112,-509,5224.609375,40128,-2491,-22.99653615
-1533,-14.1524247,-4.689779351,-508,5228.515625,40256,-2484,-22.93191321
-1544,-14.25397504,-4.588229011,-497,5232.421875,40384,-2483,-22.92268136
-1547,-14.28167058,-4.662083804,-505,5236.328125,40512,-2491,-22.99653615
-1550,-14.30936613,-3.683507797,-399,5240.234375,40640,-2495,-23.03346355
-1544,-14.25397504,-4.726706748,-512,5244.140625,40768,-2490,-22.9873043
-1544,-14.25397504,-4.708243049,-510,5248.046875,40896,-2485,-22.94114505
-1544,-14.25397504,-4.662083804,-505,5251.953125,41024,-2482,-22.91344951
-1545,-14.26320688,-3.55426191,-385,5255.859375,41152,-2492,-23.005768
-1538,-14.19858394,-3.692739647,-400,5259.765625,41280,-2492,-23.005768
-1555,-14.35552538,-3.55426191,-385,5263.671875,41408,-2489,-22.97807245
-1534,-14.16165654,-4.588229011,-497,5267.578125,41536,-2481,-22.90421766
-1544,-14.25397504,-4.615924558,-500,5271.484375,41664,-2483,-22.92268136
-1556,-14.36475723,-3.55426191,-385,5275.390625,41792,-2485,-22.94114505
-1550,-14.30936613,-3.692739647,-400,5279.296875,41920,-2489,-22.97807245
-1549,-14.30013428,-3.628116703,-393,5283.203125,42048,-2487,-22.95960875
-1538,-14.19858394,-4.505142369,-488,5287.109375,42176,-2475,-22.84882656
-1541,-14.22627949,-4.726706748,-512,5291.015625,42304,-2474,-22.83959471
-1551,-14.31859798,-3.591189306,-389,5294.921875,42432,-2485,-22.94114505
-1554,-14.34629353,-3.775826289,-409,5298.828125,42560,-2490,-22.9873043
-1553,-14.33706168,-3.840449232,-416,5302.734375,42688,-2490,-22.9873043
-1548,-14.29090243,-4.726706748,-512,5306.640625,42816,-2478,-22.87652211
-1546,-14.27243873,-4.449751274,-482,5310.546875,42944,-2468,-22.78420362
-1545,-14.26320688,-3.692739647,-400,5314.453125,43072,-2478,-22.87652211
-1558,-14.38322092,-4.025086215,-436,5318.359375,43200,-2489,-22.97807245
-1547,-14.28167058,-4.108172857,-445,5322.265625,43328,-2489,-22.97807245
-1548,-14.29090243,-4.708243049,-510,5326.171875,43456,-2477,-22.86729026
-1549,-14.30013428,-4.578997162,-496,5330.078125,43584,-2473,-22.83036287
-1546,-14.27243873,-3.65581225,-396,5333.984375,43712,-2481,-22.90421766
-1556,-14.36475723,-3.997390667,-433,5337.890625,43840,-2487,-22.95960875
-1551,-14.31859798,-3.711203345,-402,5341.796875,43968,-2479,-22.88575396
-1551,-14.31859798,-3.563493759,-386,5345.703125,44096,-2482,-22.91344951
-1551,-14.31859798,-4.726706748,-512,5349.609375,44224,-2464,-22.74727622
-1551,-14.31859798,-3.692739647,-400,5353.515625,44352,-2476,-22.85805841
-1559,-14.39245277,-3.775826289,-409,5357.421875,44480,-2481,-22.90421766
-1552,-14.32782983,-4.098941008,-444,5361.328125,44608,-2485,-22.94114505
-1532,-14.14319285,-3.55426191,-385,5365.234375,44736,-2472,-22.82113102
-1542,-14.23551134,-3.692739647,-400,5369.140625,44864,-2476,-22.85805841
-1548,-14.29090243,-4.726706748,-512,5373.046875,44992,-2474,-22.83959471
-1556,-14.36475723,-3.692739647,-400,5376.953125,45120,-2483,-22.92268136
-1547,-14.28167058,-4.135868404,-448,5380.859375,45248,-2486,-22.9503769
-1545,-14.26320688,-3.581957457,-388,5384.765625,45376,-2475,-22.84882656
-1521,-14.04164251,-4.726706748,-512,5388.671875,45504,-2464,-22.74727622
-1545,-14.26320688,-3.581957457,-388,5392.578125,45632,-2472,-22.82113102
-1543,-14.24474319,-3.997390667,-433,5396.484375,45760,-2483,-22.92268136
-1531,-14.133961,-4.135868404,-448,5400.390625,45888,-2484,-22.93191321
-1538,-14.19858394,-3.618884854,-392,5404.296875,46016,-2479,-22.88575396
-1526,-14.08780175,-4.625156407,-501,5408.203125,46144,-2465,-22.75650807
-1535,-14.17088839,-3.563493759,-386,5412.109375,46272,-2475,-22.84882656
-1539,-14.20781579,-3.581957457,-388,5416.015625,46400,-2475,-22.84882656
-1535,-14.17088839,-3.914304025,-424,5419.921875,46528,-2480,-22.89498581
-1534,-14.16165654,-3.849681082,-417,5423.828125,46656,-2480,-22.89498581
-1527,-14.0970336,-3.581957457,-388,5427.734375,46784,-2468,-22.78420362
-1534,-14.16165654,-3.563493759,-386,5431.640625,46912,-2470,-22.80266732
-1541,-14.22627949,-3.960463271,-429,5435.546875,47040,-2478,-22.87652211
-1542,-14.23551134,-4.025086215,-436,5439.453125,47168,-2486,-22.9503769
-1550,-14.30936613,-3.997390667,-433,5443.359375,47296,-2479,-22.88575396
-1548,-14.29090243,-3.618884854,-392,5447.265625,47424,-2471,-22.81189917
-1540,-14.21704764,-3.55426191,-385,5451.171875,47552,-2473,-22.83036287
-1550,-14.30936613,-3.683507797,-399,5455.078125,47680,-2477,-22.86729026
-1564,-14.43861202,-4.588229011,-497,5458.984375,47808,-2483,-22.92268136
-1542,-14.23551134,-3.849681082,-417,5462.890625,47936,-2477,-22.86729026
-1542,-14.23551134,-3.572725608,-387,5466.796875,48064,-2475,-22.84882656
-1553,-14.33706168,-3.572725608,-387,5470.703125,48192,-2467,-22.77497177
-1551,-14.31859798,-3.997390667,-433,5474.609375,48320,-2481,-22.90421766
-1548,-14.29090243,-3.988158818,-432,5478.515625,48448,-2482,-22.91344951
-1548,-14.29090243,-4.080477309,-442,5482.421875,48576,-2484,-22.93191321
-1552,-14.32782983,-3.618884854,-392,5486.328125,48704,-2472,-22.82113102
-1556,-14.36475723,-3.628116703,-393,5490.234375,48832,-2476,-22.85805841
-1551,-14.31859798,-3.86814478,-419,5494.140625,48960,-2476,-22.85805841
-1555,-14.35552538,-4.588229011,-497,5498.046875,49088,-2482,-22.91344951
-1555,-14.35552538,-4.126636555,-447,5501.953125,49216,-2479,-22.88575396
-1550,-14.30936613,-3.55426191,-385,5505.859375,49344,-2465,-22.75650807
-1549,-14.30013428,-3.840449232,-416,5509.765625,49472,-2464,-22.74727622
-1556,-14.36475723,-4.59746086,-498,5513.671875,49600,-2486,-22.9503769
-1572,-14.51246681,-4.662083804,-505,5517.578125,49728,-2484,-22.93191321
-1577,-14.55862606,-4.588229011,-497,5521.484375,49856,-2482,-22.91344951
-1567,-14.46630757,-3.960463271,-429,5525.390625,49984,-2477,-22.86729026
-1563,-14.42938017,-3.563493759,-386,5529.296875,50112,-2468,-22.78420362
-1547,-14.28167058,-3.988158818,-432,5533.203125,50240,-2479,-22.88575396
-1532,-14.14319285,-4.588229011,-497,5537.109375,50368,-2483,-22.92268136
-1500,-13.84777367,-4.726706748,-512,5541.015625,50496,-2491,-22.99653615
-1442,-13.31232643,-3.628116703,-393,5544.921875,50624,-2475,-22.84882656
-1395,-12.87842952,-3.591189306,-389,5548.828125,50752,-2469,-22.79343547
-1328,-12.25989563,-3.692739647,-400,5552.734375,50880,-2480,-22.89498581
-1313,-12.12141789,-4.135868404,-448,5556.640625,51008,-2494,-23.0242317
-1307,-12.0660268,-4.440519425,-481,5560.546875,51136,-2490,-22.9873043
-1352,-12.48146001,-3.803521836,-412,5564.453125,51264,-2487,-22.95960875
-1433,-13.22923978,-3.65581225,-396,5568.359375,51392,-2483,-22.92268136
-1498,-13.82930998,-4.089709159,-443,5572.265625,51520,-2497,-23.05192724
-1522,-14.05087436,-4.135868404,-448,5576.171875,51648,-2492,-23.005768
-1545,-14.26320688,-4.154332102,-450,5580.078125,51776,-2502,-23.09808649
-1551,-14.31859798,-4.080477309,-442,5583.984375,51904,-2490,-22.9873043
-1551,-14.31859798,-3.849681082,-417,5587.890625,52032,-2479,-22.88575396
-1539,-14.20781579,-4.615924558,-500,5591.796875,52160,-2488,-22.9688406
-1541,-14.22627949,-4.717474899,-511,5595.703125,52288,-2493,-23.01499985
-1540,-14.21704764,-4.726706748,-512,5599.609375,52416,-2496,-23.04269539
-1549,-14.30013428,-4.634388256,-502,5603.515625,52544,-2483,-22.92268136
-1541,-14.22627949,-4.135868404,-448,5607.421875,52672,-2486,-22.9503769
-1535,-14.17088839,-4.615924558,-500,5611.328125,52800,-2484,-22.93191321
-1554,-14.34629353,-4.726706748,-512,5615.234375,52928,-2495,-23.03346355
-1533,-14.1524247,-4.717474899,-511,5619.140625,53056,-2493,-23.01499985
-1539,-14.20781579,-4.726706748,-512,5623.046875,53184,-2486,-22.9503769
-1533,-14.1524247,-4.625156407,-501,5626.953125,53312,-2486,-22.9503769
-1542,-14.23551134,-4.6990112,-509,5630.859375,53440,-2489,-22.97807245
-1553,-14.33706168,-4.726706748,-512,5634.765625,53568,-2504,-23.11655019
-1535,-14.17088839,-4.449751274,-482,5638.671875,53696,-2498,-23.06115909
-1542,-14.23551134,-4.717474899,-511,5642.578125,53824,-2493,-23.01499985
-1537,-14.18935209,-4.726706748,-512,5646.484375,53952,-2485,-22.94114505
-1528,-14.10626545,-4.662083804,-505,5650.390625,54080,-2484,-22.93191321
-1539,-14.20781579,-4.708243049,-510,5654.296875,54208,-2502,-23.09808649
-1542,-14.23551134,-0.073854793,-8,5658.203125,54336,-2511,-23.18117313
-1530,-14.12472915,-4.726706748,-512,5662.109375,54464,-2490,-22.9873043
-1528,-14.10626545,-4.135868404,-448,5666.015625,54592,-2482,-22.91344951
-1533,-14.1524247,-4.726706748,-512,5669.921875,54720,-2491,-22.99653615
-1542,-14.23551134,-4.726706748,-512,5673.828125,54848,-2496,-23.04269539
-1539,-14.20781579,-0.009231849,-1,5677.734375,54976,-2506,-23.13501389
-1530,-14.12472915,-4.468214972,-484,5681.640625,55104,-2495,-23.03346355
-1519,-14.02317881,-4.615924558,-500,5685.546875,55232,-2482,-22.91344951
-1529,-14.1154973,-4.588229011,-497,5689.453125,55360,-2486,-22.9503769
-1521,-14.04164251,-4.440519425,-481,5693.359375,55488,-2497,-23.05192724
-1528,-14.10626545,-0.009231849,-1,5697.265625,55616,-2503,-23.10731834
-1522,-14.05087436,-4.449751274,-482,5701.171875,55744,-2498,-23.06115909
-1511,-13.94932402,-4.615924558,-500,5705.078125,55872,-2483,-22.92268136
-1522,-14.05087436,-4.717474899,-511,5708.984375,56000,-2491,-22.99653615
-1520,-14.03241066,-4.671315653,-506,5712.890625,56128,-2490,-22.9873043
-1516,-13.99548326,-0.073854793,-8,5716.796875,56256,-2504,-23.11655019
-1514,-13.97701956,-4.726706748,-512,5720.703125,56384,-2502,-23.09808649
-1499,-13.83854183,-4.6990112,-509,5724.609375,56512,-2485,-22.94114505
-1508,-13.92162847,-4.689779351,-508,5728.515625,56640,-2492,-23.005768
-1506,-13.90316477,-4.468214972,-484,5732.421875,56768,-2500,-23.07962279
-1510,-13.94009217,-0.147709586,-16,5736.328125,56896,-2510,-23.17194128
-1501,-13.85700552,-4.726706748,-512,5740.234375,57024,-2506,-23.13501389
-1494,-13.79238258,-4.643620106,-503,5744.140625,57152,-2485,-22.94114505
-1501,-13.85700552,-4.726706748,-512,5748.046875,57280,-2494,-23.0242317
-1481,-13.67236854,-4.477446821,-485,5751.953125,57408,-2502,-23.09808649
-1490,-13.75545518,-0.009231849,-1,5755.859375,57536,-2509,-23.16270943
-1489,-13.74622333,-4.588229011,-497,5759.765625,57664,-2503,-23.10731834
-1471,-13.58005005,-4.440519425,-481,5763.671875,57792,-2499,-23.07039094
-1491,-13.76468703,-4.588229011,-497,5767.578125,57920,-2486,-22.9503769
-1494,-13.79238258,-4.717474899,-511,5771.484375,58048,-2495,-23.03346355
-1490,-13.75545518,-4.717474899,-511,5775.390625,58176,-2495,-23.03346355
-1494,-13.79238258,-4.6990112,-509,5779.296875,58304,-2494,-23.0242317
-1486,-13.71852779,-4.440519425,-481,5783.203125,58432,-2500,-23.07962279
-1497,-13.82007813,-4.726706748,-512,5787.109375,58560,-2488,-22.9688406
-1501,-13.85700552,-4.662083804,-505,5791.015625,58688,-2482,-22.91344951
-1521,-14.04164251,-4.6990112,-509,5794.921875,58816,-2489,-22.97807245
-1516,-13.99548326,-4.588229011,-497,5798.828125,58944,-2487,-22.95960875
-1516,-13.99548326,-4.726706748,-512,5802.734375,59072,-2485,-22.94114505
-1518,-14.01394696,-4.726706748,-512,5806.640625,59200,-2489,-22.97807245
-1529,-14.1154973,-4.6990112,-509,5810.546875,59328,-2490,-22.9873043
-1525,-14.0785699,-4.59746086,-498,5814.453125,59456,-2488,-22.9688406
-1532,-14.14319285,-4.726706748,-512,5818.359375,59584,-2494,-23.0242317
-1533,-14.1524247,-4.652851955,-504,5822.265625,59712,-2485,-22.94114505
-1531,-14.133961,-4.025086215,-436,5826.171875,59840,-2472,-22.82113102
-1535,-14.17088839,-4.6990112,-509,5830.078125,59968,-2485,-22.94114505
-1556,-14.36475723,-4.717474899,-511,5833.984375,60096,-2499,-23.07039094
-1535,-14.17088839,-4.6990112,-509,5837.890625,60224,-2493,-23.01499985
-1535,-14.17088839,-4.625156407,-501,5841.796875,60352,-2485,-22.94114505
-1540,-14.21704764,-4.468214972,-484,5845.703125,60480,-2479,-22.88575396
-1543,-14.24474319,-4.588229011,-497,5849.609375,60608,-2483,-22.92268136
-1541,-14.22627949,-4.726706748,-512,5853.515625,60736,-2483,-22.92268136
-1528,-14.10626545,-4.717474899,-511,5857.421875,60864,-2482,-22.91344951
-1540,-14.21704764,-4.59746086,-498,5861.328125,60992,-2488,-22.9688406
-1523,-14.0601062,-4.588229011,-497,5865.234375,61120,-2472,-22.82113102
-1542,-14.23551134,-4.135868404,-448,5869.140625,61248,-2478,-22.87652211
-1541,-14.22627949,-4.449751274,-482,5873.046875,61376,-2478,-22.87652211
-1541,-14.22627949,-4.625156407,-501,5876.953125,61504,-2485,-22.94114505
-1539,-14.20781579,-4.726706748,-512,5880.859375,61632,-2484,-22.93191321
-1530,-14.12472915,-4.135868404,-448,5884.765625,61760,-2480,-22.89498581
505,4.662083804,-0.009231849,-1,5888.671875,61888,12278,113.3486435
-640,-5.908383435,0.516983551,56,5896.484375,62144,505,4.662083804
-2468,-22.78420362,-9.453413495,-1024,5900.390625,62272,-32768,-302.5092318
-1546,-14.27243873,-3.840449232,-416,5908.203125,62528,-2460,-22.71034883
-1542,-14.23551134,-4.588229011,-497,5912.109375,62656,-2483,-22.92268136
-1543,-14.24474319,-4.726706748,-512,5916.015625,62784,-2496,-23.04269539
-1538,-14.19858394,-4.643620106,-503,5919.921875,62912,-2485,-22.94114505
-1528,-14.10626545,-3.988158818,-432,5923.828125,63040,-2472,-22.82113102
-1544,-14.25397504,-3.877376629,-420,5927.734375,63168,-2472,-22.82113102
-1542,-14.23551134,-4.440519425,-481,5931.640625,63296,-2480,-22.89498581
-1544,-14.25397504,-4.662083804,-505,5935.546875,63424,-2489,-22.97807245
-1547,-14.28167058,-4.569765313,-495,5939.453125,63552,-2483,-22.92268136
-1532,-14.14319285,-3.877376629,-420,5943.359375,63680,-2474,-22.83959471
-1543,-14.24474319,-3.997390667,-433,5947.265625,63808,-2477,-22.86729026
-1549,-14.30013428,-4.135868404,-448,5951.171875,63936,-2476,-22.85805841
-1554,-14.34629353,-4.726706748,-512,5955.078125,64064,-2481,-22.90421766
-1536,-14.18012024,-4.126636555,-447,5958.984375,64192,-2483,-22.92268136
-1537,-14.18935209,-3.877376629,-420,5962.890625,64320,-2470,-22.80266732
-1543,-14.24474319,-3.86814478,-419,5966.796875,64448,-2472,-22.82113102
-1544,-14.25397504,-4.135868404,-448,5970.703125,64576,-2479,-22.88575396
-1550,-14.30936613,-4.117404706,-446,5974.609375,64704,-2474,-22.83959471
-1543,-14.24474319,-4.505142369,-488,5978.515625,64832,-2481,-22.90421766
-1543,-14.24474319,-3.978926969,-431,5982.421875,64960,-2473,-22.83036287
-1549,-14.30013428,-3.877376629,-420,5986.328125,65088,-2470,-22.80266732
-1544,-14.25397504,-4.135868404,-448,5990.234375,65216,-2477,-22.86729026
-1548,-14.29090243,-4.717474899,-511,5994.140625,65344,-2484,-22.93191321
-1545,-14.26320688,-4.578997162,-496,5998.046875,65472,-2480,-22.89498581
-1545,-14.26320688,-4.135868404,-448,6001.953125,64,-2476,-22.85805841
-1541,-14.22627949,-3.618884854,-392,6005.859375,192,-2464,-22.74727622
-1547,-14.28167058,-4.108172857,-445,6009.765625,320,-2478,-22.87652211
-1546,-14.27243873,-4.6990112,-509,6013.671875,448,-2484,-22.93191321
-1546,-14.27243873,-4.708243049,-510,6017.578125,576,-2481,-22.90421766
-1544,-14.25397504,-4.449751274,-482,6021.484375,704,-2480,-22.89498581
-1541,-14.22627949,-3.877376629,-420,6025.390625,832,-2469,-22.79343547
-1542,-14.23551134,-4.135868404,-448,6029.296875,960,-2476,-22.85805841
-1546,-14.27243873,-4.569765313,-495,6033.203125,1088,-2483,-22.92268136
-1542,-14.23551134,-4.588229011,-497,6037.109375,1216,-2481,-22.90421766
-1545,-14.26320688,-4.440519425,-481,6041.015625,1344,-2477,-22.86729026
-1539,-14.20781579,-3.591189306,-389,6044.921875,1472,-2465,-22.75650807
-1546,-14.27243873,-4.098941008,-444,6048.828125,1600,-2478,-22.87652211
-1550,-14.30936613,-4.523606067,-490,6052.734375,1728,-2482,-22.91344951
-1545,-14.26320688,-4.59746086,-498,6056.640625,1856,-2482,-22.91344951
-1553,-14.33706168,-4.468214972,-484,6060.546875,1984,-2480,-22.89498581
-1542,-14.23551134,-4.117404706,-446,6064.453125,2112,-2473,-22.83036287
-1550,-14.30936613,-4.135868404,-448,6068.359375,2240,-2473,-22.83036287
-1551,-14.31859798,-4.578997162,-496,6072.265625,2368,-2482,-22.91344951
-1545,-14.26320688,-4.652851955,-504,6076.171875,2496,-2486,-22.9503769
-1545,-14.26320688,-4.477446821,-485,6080.078125,2624,-2477,-22.86729026
-1539,-14.20781579,-3.914304025,-424,6083.984375,2752,-2467,-22.77497177
-1545,-14.26320688,-4.07124546,-441,6087.890625,2880,-2473,-22.83036287
-1545,-14.26320688,-4.523606067,-490,6091.796875,3008,-2479,-22.88575396
-1545,-14.26320688,-4.726706748,-512,6095.703125,3136,-2483,-22.92268136
-1545,-14.26320688,-4.135868404,-448,6099.609375,3264,-2475,-22.84882656
-1541,-14.22627949,-3.978926969,-431,6103.515625,3392,-2472,-22.82113102
-1540,-14.21704764,-3.895840327,-422,6107.421875,3520,-2473,-22.83036287
-1539,-14.20781579,-4.569765313,-495,6111.328125,3648,-2480,-22.89498581
-1544,-14.25397504,-4.680547502,-507,6115.234375,3776,-2483,-22.92268136
-1538,-14.19858394,-4.588229011,-497,6119.140625,3904,-2483,-22.92268136
-1525,-14.0785699,-4.006622517,-434,6123.046875,4032,-2474,-22.83959471
-1534,-14.16165654,-3.858912931,-418,6126.953125,4160,-2468,-22.78420362
-1532,-14.14319285,-4.505142369,-488,6130.859375,4288,-2479,-22.88575396
-1526,-14.08780175,-4.652851955,-504,6134.765625,4416,-2480,-22.89498581
-1537,-14.18935209,-4.588229011,-497,6138.671875,4544,-2473,-22.83036287
-1524,-14.06933805,-3.877376629,-420,6142.578125,4672,-2468,-22.78420362
-1540,-14.21704764,-3.858912931,-418,6146.484375,4800,-2470,-22.80266732
-1529,-14.1154973,-4.468214972,-484,6150.390625,4928,-2476,-22.85805841
-1544,-14.25397504,-4.615924558,-500,6154.296875,5056,-2484,-22.93191321
-1546,-14.27243873,-4.578997162,-496,6158.203125,5184,-2478,-22.87652211
-1546,-14.27243873,-4.126636555,-447,6162.109375,5312,-2473,-22.83036287
-1549,-14.30013428,-3.877376629,-420,6166.015625,5440,-2471,-22.81189917
-1538,-14.19858394,-4.726706748,-512,6169.921875,5568,-2482,-22.91344951
-1545,-14.26320688,-4.726706748,-512,6173.828125,5696,-2480,-22.89498581
-1550,-14.30936613,-4.652851955,-504,6177.734375,5824,-2482,-22.91344951
-1531,-14.133961,-3.849681082,-417,6181.640625,5952,-2467,-22.77497177
-1553,-14.33706168,-4.080477309,-442,6185.546875,6080,-2475,-22.84882656
-1548,-14.29090243,-4.505142369,-488,6189.453125,6208,-2478,-22.87652211
-1554,-14.34629353,-4.588229011,-497,6193.359375,6336,-2487,-22.95960875
-1552,-14.32782983,-4.717474899,-511,6197.265625,6464,-2479,-22.88575396
-1547,-14.28167058,-4.477446821,-485,6201.171875,6592,-2477,-22.86729026
-1552,-14.32782983,-4.135868404,-448,6205.078125,6720,-2471,-22.81189917
-1550,-14.30936613,-4.440519425,-481,6208.984375,6848,-2471,-22.81189917
-1552,-14.32782983,-4.440519425,-481,6212.890625,6976,-2487,-22.95960875
-1546,-14.27243873,-4.588229011,-497,6216.796875,7104,-2478,-22.87652211
-1532,-14.14319285,-4.135868404,-448,6220.703125,7232,-2472,-22.82113102
-1552,-14.32782983,-4.108172857,-445,6224.609375,7360,-2469,-22.79343547
-1550,-14.30936613,-4.49591052,-487,6228.515625,7488,-2469,-22.79343547
-1561,-14.41091647,-4.6990112,-509,6232.421875,7616,-2477,-22.86729026
-1555,-14.35552538,-4.569765313,-495,6236.328125,7744,-2475,-22.84882656
-1571,-14.50323496,-4.015854366,-435,6240.234375,7872,-2467,-22.77497177
-1562,-14.42014832,-3.831217383,-415,6244.140625,8000,-2467,-22.77497177
-1561,-14.41091647,-4.468214972,-484,6248.046875,8128,-2478,-22.87652211
-1549,-14.30013428,-4.689779351,-508,6251.953125,8256,-2480,-22.89498581
-1509,-13.93086032,-4.542069765,-492,6255.859375,8384,-2473,-22.83036287
-1481,-13.67236854,-4.135868404,-448,6259.765625,8512,-2470,-22.80266732
-1433,-13.22923978,-3.849681082,-417,6263.671875,8640,-2466,-22.76573992
-1391,-12.84150212,-3.563493759,-386,6267.578125,8768,-2466,-22.76573992
-1338,-12.35221412,-4.126636555,-447,6271.484375,8896,-2479,-22.88575396
-1307,-12.0660268,-4.117404706,-446,6275.390625,9024,-2490,-22.9873043
-1314,-12.13064974,-3.563493759,-386,6279.296875,9152,-2474,-22.83959471
-1356,-12.5183874,-3.591189306,-389,6283.203125,9280,-2469,-22.79343547
-1430,-13.20154424,-3.581957457,-388,6287.109375,9408,-2475,-22.84882656
-1493,-13.78315073,-4.006622517,-434,6291.015625,9536,-2483,-22.92268136
-1531,-14.133961,-4.606692709,-499,6294.921875,9664,-2482,-22.91344951
-1546,-14.27243873,-3.960463271,-429,6298.828125,9792,-2474,-22.83959471
-1543,-14.24474319,-3.665044099,-397,6302.734375,9920,-2461,-22.71958068
-1550,-14.30936613,-3.895840327,-422,6306.640625,10048,-2470,-22.80266732
-1555,-14.35552538,-4.505142369,-488,6310.546875,10176,-2477,-22.86729026
-1528,-14.10626545,-4.126636555,-447,6314.453125,10304,-2473,-22.83036287
-1533,-14.1524247,-4.07124546,-441,6318.359375,10432,-2473,-22.83036287
-1533,-14.1524247,-3.821985534,-414,6322.265625,10560,-2462,-22.72881252
-1529,-14.1154973,-3.683507797,-399,6326.171875,10688,-2469,-22.79343547
-1542,-14.23551134,-4.440519425,-481,6330.078125,10816,-2477,-22.86729026
-1537,-14.18935209,-4.578997162,-496,6333.984375,10944,-2477,-22.86729026
-1539,-14.20781579,-4.062013611,-440,6337.890625,11072,-2469,-22.79343547
-1531,-14.133961,-3.563493759,-386,6341.796875,11200,-2463,-22.73804437
-1531,-14.133961,-3.563493759,-386,6345.703125,11328,-2462,-22.72881252
-1537,-14.18935209,-3.831217383,-415,6349.609375,11456,-2463,-22.73804437
-1534,-14.16165654,-4.560533464,-494,6353.515625,11584,-2478,-22.87652211
-1536,-14.18012024,-3.849681082,-417,6357.421875,11712,-2468,-22.78420362
-1535,-14.17088839,-3.858912931,-418,6361.328125,11840,-2466,-22.76573992
-1535,-14.17088839,-3.618884854,-392,6365.234375,11968,-2459,-22.70111698
-1541,-14.22627949,-3.692739647,-400,6369.140625,12096,-2471,-22.81189917
-1535,-14.17088839,-4.135868404,-448,6373.046875,12224,-2470,-22.80266732
-1525,-14.0785699,-4.440519425,-481,6376.953125,12352,-2473,-22.83036287
-1538,-14.19858394,-3.849681082,-417,6380.859375,12480,-2465,-22.75650807
-1536,-14.18012024,-3.55426191,-385,6384.765625,12608,-2450,-22.61803034
-1529,-14.1154973,-3.618884854,-392,6388.671875,12736,-2456,-22.67342143
-1547,-14.28167058,-4.514374218,-489,6392.578125,12864,-2474,-22.83959471
-1523,-14.0601062,-3.840449232,-416,6396.484375,12992,-2462,-22.72881252
-1531,-14.133961,-3.591189306,-389,6400.390625,13120,-2461,-22.71958068
-1527,-14.0970336,-3.812753685,-413,6404.296875,13248,-2457,-22.68265328
-1531,-14.133961,-3.812753685,-413,6408.203125,13376,-2459,-22.70111698
-1525,-14.0785699,-4.135868404,-448,6412.109375,13504,-2474,-22.83959471
-1522,-14.05087436,-3.618884854,-392,6416.015625,13632,-2456,-22.67342143
