Device,Device,Device,Device,Device,Device,Device,Device
ECG LL-RA,ECG LL-RA,ECG Vx-RL,ECG Vx-RL,Timestamp,Timestamp,ECG LA-RA,ECG LA-RA
CAL,RAW,CAL,RAW,CAL,RAW,CAL,RAW
mV,No Units,mV,No Units,mSecs,No Units,mV,No Units
225.6910154,24447,-194.201178,-21036,1.953125,64,-14.34629353,-1554
225.6910154,24447,0,0,5.859375,192,-14.34629353,-1554
-0.009231849,-1,-302.5092318,-32768,9.765625,320,0,0
-0.009231849,-1,-302.5092318,-32768,13.671875,448,0,0
-0.009231849,-1,-302.5092318,-32768,17.578125,576,0,0
-0.009231849,-1,0,0,33.203125,1088,0.009231849,1
-0.009231849,-1,-302.5092318,-32768,37.109375,1216,0,0
-0.009231849,-1,-302.5092318,-32768,41.015625,1344,0,0
-0.009231849,-1,-302.5092318,-32768,44.921875,1472,0,0
-0.009231849,-1,-302.5092318,-32768,48.828125,1600,0,0
-0.009231849,-1,-302.5092318,-32768,52.734375,1728,0,0
-0.009231849,-1,-302.5092318,-32768,56.640625,1856,0,0
-0.009231849,-1,-302.5092318,-32768,60.546875,1984,0,0
-0.009231849,-1,-302.5092318,-32768,64.453125,2112,0,0
-0.009231849,-1,-302.5092318,-32768,68.359375,2240,0,0
-0.009231849,-1,-302.5092318,-32768,72.265625,2368,0,0
-0.009231849,-1,-302.5092318,-32768,76.171875,2496,0,0
-0.009231849,-1,-302.5092318,-32768,80.078125,2624,0,0
-0.009231849,-1,-302.5092318,-32768,83.984375,2752,0,0
-0.009231849,-1,-302.5092318,-32768,87.890625,2880,0,0
-0.009231849,-1,-302.5092318,-32768,91.796875,3008,0,0
-0.009231849,-1,-302.5092318,-32768,95.703125,3136,0,0
-0.009231849,-1,-302.5092318,-32768,99.609375,3264,0,0
-0.009231849,-1,-302.5092318,-32768,103.515625,3392,0,0
-0.009231849,-1,-302.5092318,-32768,107.421875,3520,0,0
-0.009231849,-1,-302.5092318,-32768,111.328125,3648,0,0
-0.009231849,-1,-302.5092318,-32768,115.234375,3776,0,0
-0.009231849,-1,-302.5092318,-32768,119.140625,3904,0,0
-0.009231849,-1,-302.5092318,-32768,123.046875,4032,0,0
-0.009231849,-1,-302.5092318,-32768,126.953125,4160,0,0
-0.009231849,-1,-302.5092318,-32768,130.859375,4288,0,0
-0.009231849,-1,-302.5092318,-32768,134.765625,4416,0,0
-0.009231849,-1,-302.5092318,-32768,138.671875,4544,0,0
-0.009231849,-1,-302.5092318,-32768,142.578125,4672,0,0
-0.009231849,-1,-302.5092318,-32768,146.484375,4800,0,0
-0.009231849,-1,-302.5092318,-32768,150.390625,4928,0,0
-0.009231849,-1,-302.5092318,-32768,154.296875,5056,0,0
-0.009231849,-1,-302.5092318,-32768,158.203125,5184,0,0
-0.009231849,-1,-302.5092318,-32768,162.109375,5312,0,0
-0.009231849,-1,-302.5092318,-32768,166.015625,5440,0,0
-0.009231849,-1,-302.5092318,-32768,169.921875,5568,0,0
-0.009231849,-1,-302.5092318,-32768,173.828125,5696,0,0
-0.009231849,-1,-302.5092318,-32768,177.734375,5824,0,0
-0.009231849,-1,-302.5092318,-32768,181.640625,5952,0,0
-0.009231849,-1,-302.5092318,-32768,185.546875,6080,0,0
-0.009231849,-1,-302.5092318,-32768,189.453125,6208,0,0
-0.009231849,-1,-302.5092318,-32768,193.359375,6336,0,0
-0.009231849,-1,-302.5092318,-32768,197.265625,6464,0,0
-0.009231849,-1,-302.5092318,-32768,201.171875,6592,0,0
-0.009231849,-1,-302.5092318,-32768,205.078125,6720,0,0
-0.009231849,-1,-302.5092318,-32768,208.984375,6848,0,0
-0.009231849,-1,-302.5092318,-32768,212.890625,6976,0,0
-0.009231849,-1,-302.5092318,-32768,216.796875,7104,0,0
-0.009231849,-1,-302.5092318,-32768,220.703125,7232,0,0
-0.009231849,-1,-302.5092318,-32768,224.609375,7360,0,0
-0.009231849,-1,-302.5092318,-32768,228.515625,7488,0,0
-0.009231849,-1,-302.5092318,-32768,232.421875,7616,0,0
-0.009231849,-1,-302.5092318,-32768,236.328125,7744,0,0
-0.009231849,-1,-302.5092318,-32768,240.234375,7872,0,0
-0.009231849,-1,-302.5092318,-32768,244.140625,8000,0,0
-0.009231849,-1,-302.5092318,-32768,248.046875,8128,0,0
-0.009231849,-1,-302.5092318,-32768,251.953125,8256,0,0
-0.009231849,-1,-302.5092318,-32768,255.859375,8384,0,0
-0.009231849,-1,-302.5092318,-32768,259.765625,8512,0,0
-0.009231849,-1,-302.5092318,-32768,263.671875,8640,0,0
-0.009231849,-1,-302.5092318,-32768,267.578125,8768,0,0
-0.009231849,-1,-302.5092318,-32768,271.484375,8896,0,0
-0.009231849,-1,-302.5092318,-32768,275.390625,9024,0,0
-0.009231849,-1,-302.5092318,-32768,279.296875,9152,0,0
-0.009231849,-1,-302.5092318,-32768,283.203125,9280,0,0
-0.009231849,-1,-302.5092318,-32768,287.109375,9408,0,0
-0.009231849,-1,-302.5092318,-32768,291.015625,9536,0,0
-0.009231849,-1,-302.5092318,-32768,294.921875,9664,0,0
-0.009231849,-1,-302.5092318,-32768,298.828125,9792,0,0
-0.009231849,-1,-302.5092318,-32768,302.734375,9920,0,0
-0.009231849,-1,-302.5092318,-32768,306.640625,10048,0,0
-0.009231849,-1,-302.5092318,-32768,310.546875,10176,0,0
-0.009231849,-1,-302.5092318,-32768,314.453125,10304,0,0
-0.009231849,-1,-302.5092318,-32768,318.359375,10432,0,0
-0.009231849,-1,-302.5092318,-32768,322.265625,10560,0,0
-0.009231849,-1,-302.5092318,-32768,326.171875,10688,0,0
-0.009231849,-1,-302.5092318,-32768,330.078125,10816,0,0
-0.009231849,-1,-302.5092318,-32768,333.984375,10944,0,0
-0.009231849,-1,-302.5092318,-32768,337.890625,11072,0,0
-0.009231849,-1,-302.5092318,-32768,341.796875,11200,0,0
-0.009231849,-1,-302.5092318,-32768,345.703125,11328,0,0
-0.009231849,-1,-302.5092318,-32768,349.609375,11456,0,0
-0.009231849,-1,-302.5092318,-32768,353.515625,11584,0,0
-0.009231849,-1,-302.5092318,-32768,357.421875,11712,0,0
-0.009231849,-1,-302.5092318,-32768,361.328125,11840,0,0
-0.009231849,-1,-302.5092318,-32768,365.234375,11968,0,0
-0.009231849,-1,-302.5092318,-32768,369.140625,12096,0,0
-0.009231849,-1,-302.5092318,-32768,373.046875,12224,0,0
-0.009231849,-1,-302.5092318,-32768,376.953125,12352,0,0
-0.009231849,-1,-302.5092318,-32768,380.859375,12480,0,0
-0.009231849,-1,-302.5092318,-32768,384.765625,12608,0,0
-0.009231849,-1,-302.5092318,-32768,388.671875,12736,0,0
-0.009231849,-1,-302.5092318,-32768,392.578125,12864,0,0
-0.009231849,-1,-302.5092318,-32768,396.484375,12992,0,0
-0.009231849,-1,-302.5092318,-32768,400.390625,13120,0,0
-0.009231849,-1,-302.5092318,-32768,404.296875,13248,0,0
-0.009231849,-1,-302.5092318,-32768,408.203125,13376,0,0
-0.009231849,-1,-302.5092318,-32768,412.109375,13504,0,0
-0.009231849,-1,-302.5092318,-32768,416.015625,13632,0,0
-0.009231849,-1,-302.5092318,-32768,419.921875,13760,0,0
-0.009231849,-1,-302.5092318,-32768,423.828125,13888,0,0
-0.009231849,-1,-302.5092318,-32768,427.734375,14016,0,0
-0.009231849,-1,-302.5092318,-32768,431.640625,14144,0,0
-0.009231849,-1,-302.5092318,-32768,435.546875,14272,0,0
-0.009231849,-1,-302.5092318,-32768,439.453125,14400,0,0
-0.009231849,-1,-302.5092318,-32768,443.359375,14528,0,0
-0.009231849,-1,-302.5092318,-32768,447.265625,14656,0,0
-0.009231849,-1,-302.5092318,-32768,451.171875,14784,0,0
-0.009231849,-1,-302.5092318,-32768,455.078125,14912,0,0
-0.009231849,-1,-302.5092318,-32768,458.984375,15040,0,0
-0.009231849,-1,-302.5092318,-32768,462.890625,15168,0,0
-0.009231849,-1,-302.5092318,-32768,466.796875,15296,0,0
-0.009231849,-1,-302.5092318,-32768,470.703125,15424,0,0
-0.009231849,-1,-302.5092318,-32768,474.609375,15552,0,0
-0.009231849,-1,-302.5092318,-32768,478.515625,15680,0,0
-0.009231849,-1,-302.5092318,-32768,482.421875,15808,0,0
-0.009231849,-1,-302.5092318,-32768,486.328125,15936,0,0
-0.009231849,-1,-302.5092318,-32768,490.234375,16064,0,0
-0.009231849,-1,-302.5092318,-32768,494.140625,16192,0,0
-0.009231849,-1,-302.5092318,-32768,498.046875,16320,0,0
-0.009231849,-1,-302.5092318,-32768,501.953125,16448,0,0
-0.009231849,-1,-302.5092318,-32768,505.859375,16576,0,0
-0.009231849,-1,-302.5092318,-32768,509.765625,16704,0,0
-0.009231849,-1,-302.5092318,-32768,513.671875,16832,0,0
-0.009231849,-1,-302.5092318,-32768,517.578125,16960,0,0
-0.009231849,-1,-302.5092318,-32768,521.484375,17088,0,0
-0.009231849,-1,-302.5092318,-32768,525.390625,17216,0,0
-0.009231849,-1,-302.5092318,-32768,529.296875,17344,0,0
-0.009231849,-1,-302.5092318,-32768,533.203125,17472,0,0
-0.009231849,-1,-302.5092318,-32768,537.109375,17600,0,0
-0.009231849,-1,-302.5092318,-32768,541.015625,17728,0,0
-0.009231849,-1,-302.5092318,-32768,544.921875,17856,0,0
-0.009231849,-1,-302.5092318,-32768,548.828125,17984,0,0
-0.009231849,-1,-302.5092318,-32768,552.734375,18112,0,0
-0.009231849,-1,-302.5092318,-32768,556.640625,18240,0,0
-0.009231849,-1,-302.5092318,-32768,560.546875,18368,0,0
-0.009231849,-1,-302.5092318,-32768,564.453125,18496,0,0
-0.009231849,-1,-302.5092318,-32768,568.359375,18624,0,0
-0.009231849,-1,-302.5092318,-32768,572.265625,18752,0,0
-0.009231849,-1,-302.5092318,-32768,576.171875,18880,0,0
-0.009231849,-1,-302.5092318,-32768,580.078125,19008,0,0
-0.009231849,-1,-302.5092318,-32768,583.984375,19136,0,0
-0.009231849,-1,-302.5092318,-32768,587.890625,19264,0,0
-0.009231849,-1,-302.5092318,-32768,591.796875,19392,0,0
-0.009231849,-1,-302.5092318,-32768,595.703125,19520,0,0
-0.009231849,-1,-302.5092318,-32768,599.609375,19648,0,0
-0.009231849,-1,-302.5092318,-32768,603.515625,19776,0,0
-0.009231849,-1,-302.5092318,-32768,607.421875,19904,0,0
-0.009231849,-1,-302.5092318,-32768,611.328125,20032,0,0
-0.009231849,-1,-302.5092318,-32768,615.234375,20160,0,0
-0.009231849,-1,-302.5092318,-32768,619.140625,20288,0,0
-0.009231849,-1,-302.5092318,-32768,623.046875,20416,0,0
-0.009231849,-1,-302.5092318,-32768,626.953125,20544,0,0
-0.009231849,-1,-302.5092318,-32768,630.859375,20672,0,0
-0.009231849,-1,-302.5092318,-32768,634.765625,20800,0,0
-0.009231849,-1,-302.5092318,-32768,638.671875,20928,0,0
-0.009231849,-1,-302.5092318,-32768,642.578125,21056,0,0
-0.009231849,-1,-302.5092318,-32768,646.484375,21184,0,0
-0.009231849,-1,-302.5092318,-32768,650.390625,21312,0,0
-0.009231849,-1,-302.5092318,-32768,654.296875,21440,0,0
-0.009231849,-1,-302.5092318,-32768,658.203125,21568,0,0
-0.009231849,-1,-302.5092318,-32768,662.109375,21696,0,0
-0.009231849,-1,-302.5092318,-32768,666.015625,21824,0,0
-0.009231849,-1,-302.5092318,-32768,669.921875,21952,0,0
-0.009231849,-1,-302.5092318,-32768,673.828125,22080,0,0
-0.009231849,-1,-302.5092318,-32768,677.734375,22208,0,0
-0.009231849,-1,-302.5092318,-32768,681.640625,22336,0,0
-0.009231849,-1,-302.5092318,-32768,685.546875,22464,0,0
-0.009231849,-1,-302.5092318,-32768,689.453125,22592,0,0
-0.009231849,-1,-302.5092318,-32768,693.359375,22720,0,0
-0.009231849,-1,-302.5092318,-32768,697.265625,22848,0,0
-0.009231849,-1,-302.5092318,-32768,701.171875,22976,0,0
-0.009231849,-1,-302.5092318,-32768,705.078125,23104,0,0
-0.009231849,-1,-302.5092318,-32768,708.984375,23232,0,0
-0.009231849,-1,-302.5092318,-32768,712.890625,23360,0,0
-0.009231849,-1,-302.5092318,-32768,716.796875,23488,0,0
-0.009231849,-1,-302.5092318,-32768,720.703125,23616,0,0
-0.009231849,-1,-302.5092318,-32768,724.609375,23744,0,0
-0.009231849,-1,-302.5092318,-32768,728.515625,23872,0,0
-0.009231849,-1,-302.5092318,-32768,732.421875,24000,0,0
-0.009231849,-1,-302.5092318,-32768,736.328125,24128,0,0
-0.009231849,-1,-302.5092318,-32768,740.234375,24256,0,0
-0.009231849,-1,-302.5092318,-32768,744.140625,24384,0,0
-0.009231849,-1,-302.5092318,-32768,748.046875,24512,0,0
-0.009231849,-1,-302.5092318,-32768,751.953125,24640,0,0
-0.009231849,-1,-302.5092318,-32768,755.859375,24768,0,0
-0.009231849,-1,-302.5092318,-32768,759.765625,24896,0,0
-0.009231849,-1,-302.5092318,-32768,763.671875,25024,0,0
-0.009231849,-1,-302.5092318,-32768,767.578125,25152,0,0
-0.009231849,-1,-302.5092318,-32768,771.484375,25280,0,0
-0.009231849,-1,-302.5092318,-32768,775.390625,25408,0,0
-0.009231849,-1,-302.5092318,-32768,779.296875,25536,0,0
-0.009231849,-1,-302.5092318,-32768,783.203125,25664,0,0
-0.009231849,-1,-302.5092318,-32768,787.109375,25792,0,0
-0.009231849,-1,-302.5092318,-32768,791.015625,25920,0,0
-0.009231849,-1,-302.5092318,-32768,794.921875,26048,0,0
-0.009231849,-1,-302.5092318,-32768,798.828125,26176,0,0
-0.009231849,-1,-302.5092318,-32768,802.734375,26304,0,0
-0.009231849,-1,-302.5092318,-32768,806.640625,26432,0,0
-0.009231849,-1,-302.5092318,-32768,810.546875,26560,0,0
-0.009231849,-1,-302.5092318,-32768,814.453125,26688,0,0
-0.009231849,-1,-302.5092318,-32768,818.359375,26816,0,0
-0.009231849,-1,-302.5092318,-32768,822.265625,26944,0,0
-0.009231849,-1,-302.5092318,-32768,826.171875,27072,0,0
0,0,-0.009231849,-1,830.078125,27200,-0.009231849,-1
0,0,9.444181646,1023,833.984375,27328,-0.009231849,-1
0,0,0,0,837.890625,27456,-0.009231849,-1
-2.363353374,-256,1.77251503,192,841.796875,27584,3.545030061,384
-0.009231849,-1,0,0,845.703125,27712,0.009231849,1
-0.009231849,-1,-302.5092318,-32768,849.609375,27840,0,0
-0.009231849,-1,-302.5092318,-32768,853.515625,27968,0,0
-0.009231849,-1,-302.5092318,-32768,857.421875,28096,0,0
-0.009231849,-1,-302.5092318,-32768,861.328125,28224,0,0
-0.009231849,-1,-302.5092318,-32768,865.234375,28352,0,0
-0.009231849,-1,-302.5092318,-32768,869.140625,28480,0,0
-0.009231849,-1,-302.5092318,-32768,873.046875,28608,0,0
-0.009231849,-1,-302.5092318,-32768,876.953125,28736,0,0
-0.009231849,-1,-302.5092318,-32768,880.859375,28864,0,0
-0.009231849,-1,-302.5092318,-32768,884.765625,28992,0,0
-0.009231849,-1,-302.5092318,-32768,888.671875,29120,0,0
-0.009231849,-1,-302.5092318,-32768,892.578125,29248,0,0
-0.009231849,-1,-302.5092318,-32768,896.484375,29376,0,0
-0.009231849,-1,-302.5092318,-32768,900.390625,29504,0,0
-0.009231849,-1,-302.5092318,-32768,904.296875,29632,0,0
-0.009231849,-1,-302.5092318,-32768,908.203125,29760,0,0
-0.009231849,-1,-302.5092318,-32768,912.109375,29888,0,0
-0.009231849,-1,-302.5092318,-32768,916.015625,30016,0,0
-0.009231849,-1,-302.5092318,-32768,919.921875,30144,0,0
-0.009231849,-1,-302.5092318,-32768,923.828125,30272,0,0
-0.009231849,-1,-302.5092318,-32768,927.734375,30400,0,0
-0.009231849,-1,-302.5092318,-32768,931.640625,30528,0,0
-0.009231849,-1,-302.5092318,-32768,935.546875,30656,0,0
-0.009231849,-1,-302.5092318,-32768,939.453125,30784,0,0
-0.009231849,-1,-302.5092318,-32768,943.359375,30912,0,0
-0.009231849,-1,-302.5092318,-32768,947.265625,31040,0,0
-0.009231849,-1,-302.5092318,-32768,951.171875,31168,0,0
-0.009231849,-1,-302.5092318,-32768,955.078125,31296,0,0
-0.009231849,-1,-302.5092318,-32768,958.984375,31424,0,0
-0.009231849,-1,-302.5092318,-32768,962.890625,31552,0,0
-0.009231849,-1,-302.5092318,-32768,966.796875,31680,0,0
-0.009231849,-1,-302.5092318,-32768,970.703125,31808,0,0
-0.009231849,-1,-302.5092318,-32768,974.609375,31936,0,0
-0.009231849,-1,-302.5092318,-32768,978.515625,32064,0,0
-0.009231849,-1,-302.5092318,-32768,982.421875,32192,0,0
-0.009231849,-1,-302.5092318,-32768,986.328125,32320,0,0
-0.009231849,-1,-302.5092318,-32768,990.234375,32448,0,0
-0.009231849,-1,-302.5092318,-32768,994.140625,32576,0,0
-0.009231849,-1,-302.5092318,-32768,998.046875,32704,0,0
-0.009231849,-1,-302.5092318,-32768,1001.953125,32832,0,0
-0.009231849,-1,-302.5092318,-32768,1005.859375,32960,0,0
-0.009231849,-1,-302.5092318,-32768,1009.765625,33088,0,0
-0.009231849,-1,-302.5092318,-32768,1013.671875,33216,0,0
-0.009231849,-1,-302.5092318,-32768,1017.578125,33344,0,0
-0.009231849,-1,-302.5092318,-32768,1021.484375,33472,0,0
-0.009231849,-1,-302.5092318,-32768,1025.390625,33600,0,0
-0.009231849,-1,-302.5092318,-32768,1029.296875,33728,0,0
-0.009231849,-1,-302.5092318,-32768,1033.203125,33856,0,0
-0.009231849,-1,-302.5092318,-32768,1037.109375,33984,0,0
-0.009231849,-1,-302.5092318,-32768,1041.015625,34112,0,0
-0.009231849,-1,-302.5092318,-32768,1044.921875,34240,0,0
-0.009231849,-1,-302.5092318,-32768,1048.828125,34368,0,0
-0.009231849,-1,-302.5092318,-32768,1052.734375,34496,0,0
-0.009231849,-1,-302.5092318,-32768,1056.640625,34624,0,0
-0.009231849,-1,-302.5092318,-32768,1060.546875,34752,0,0
-0.009231849,-1,-302.5092318,-32768,1064.453125,34880,0,0
-0.009231849,-1,-302.5092318,-32768,1068.359375,35008,0,0
-0.009231849,-1,-302.5092318,-32768,1072.265625,35136,0,0
-0.009231849,-1,-302.5092318,-32768,1076.171875,35264,0,0
-0.009231849,-1,-302.5092318,-32768,1080.078125,35392,0,0
-0.009231849,-1,-302.5092318,-32768,1083.984375,35520,0,0
-0.009231849,-1,-302.5092318,-32768,1087.890625,35648,0,0
-0.009231849,-1,-302.5092318,-32768,1091.796875,35776,0,0
-0.009231849,-1,-302.5092318,-32768,1095.703125,35904,0,0
-0.009231849,-1,-302.5092318,-32768,1099.609375,36032,0,0
-0.009231849,-1,-302.5092318,-32768,1103.515625,36160,0,0
-0.009231849,-1,-302.5092318,-32768,1107.421875,36288,0,0
-0.009231849,-1,-302.5092318,-32768,1111.328125,36416,0,0
-0.009231849,-1,-302.5092318,-32768,1115.234375,36544,0,0
-0.009231849,-1,-302.5092318,-32768,1119.140625,36672,0,0
-0.009231849,-1,-302.5092318,-32768,1123.046875,36800,0,0
-0.009231849,-1,-302.5092318,-32768,1126.953125,36928,0,0
-0.009231849,-1,-302.5092318,-32768,1130.859375,37056,0,0
-0.009231849,-1,-302.5092318,-32768,1134.765625,37184,0,0
-0.009231849,-1,-302.5092318,-32768,1138.671875,37312,0,0
-0.009231849,-1,-302.5092318,-32768,1142.578125,37440,0,0
-0.009231849,-1,-302.5092318,-32768,1146.484375,37568,0,0
-0.009231849,-1,-302.5092318,-32768,1150.390625,37696,0,0
-0.009231849,-1,-302.5092318,-32768,1154.296875,37824,0,0
-0.009231849,-1,-302.5092318,-32768,1158.203125,37952,0,0
-0.009231849,-1,-302.5092318,-32768,1162.109375,38080,0,0
-0.009231849,-1,-302.5092318,-32768,1166.015625,38208,0,0
-0.009231849,-1,-302.5092318,-32768,1169.921875,38336,0,0
-0.009231849,-1,-302.5092318,-32768,1173.828125,38464,0,0
-0.009231849,-1,-302.5092318,-32768,1177.734375,38592,0,0
-0.009231849,-1,-302.5092318,-32768,1181.640625,38720,0,0
-0.009231849,-1,-302.5092318,-32768,1185.546875,38848,0,0
-0.009231849,-1,-302.5092318,-32768,1189.453125,38976,0,0
-0.009231849,-1,-302.5092318,-32768,1193.359375,39104,0,0
-0.009231849,-1,-302.5092318,-32768,1197.265625,39232,0,0
-0.009231849,-1,-302.5092318,-32768,1201.171875,39360,0,0
-0.009231849,-1,-302.5092318,-32768,1205.078125,39488,0,0
-0.009231849,-1,-302.5092318,-32768,1208.984375,39616,0,0
-0.009231849,-1,-302.5092318,-32768,1212.890625,39744,0,0
-0.009231849,-1,-302.5092318,-32768,1216.796875,39872,0,0
-0.009231849,-1,-302.5092318,-32768,1220.703125,40000,0,0
-0.009231849,-1,-302.5092318,-32768,1224.609375,40128,0,0
-0.009231849,-1,-302.5092318,-32768,1228.515625,40256,0,0
-0.009231849,-1,-302.5092318,-32768,1232.421875,40384,0,0
-0.009231849,-1,-302.5092318,-32768,1236.328125,40512,0,0
-0.009231849,-1,-302.5092318,-32768,1240.234375,40640,0,0
-0.009231849,-1,-302.5092318,-32768,1244.140625,40768,0,0
-0.009231849,-1,-302.5092318,-32768,1248.046875,40896,0,0
-0.009231849,-1,-302.5092318,-32768,1251.953125,41024,0,0
-0.009231849,-1,-302.5092318,-32768,1255.859375,41152,0,0
-0.009231849,-1,-302.5092318,-32768,1259.765625,41280,0,0
-0.009231849,-1,-302.5092318,-32768,1263.671875,41408,0,0
-0.009231849,-1,-302.5092318,-32768,1267.578125,41536,0,0
-0.009231849,-1,-302.5092318,-32768,1271.484375,41664,0,0
-0.009231849,-1,-302.5092318,-32768,1275.390625,41792,0,0
-0.009231849,-1,-302.5092318,-32768,1279.296875,41920,0,0
-0.009231849,-1,-302.5092318,-32768,1283.203125,42048,0,0
-0.009231849,-1,-302.5092318,-32768,1287.109375,42176,0,0
-0.009231849,-1,-302.5092318,-32768,1291.015625,42304,0,0
-0.009231849,-1,-302.5092318,-32768,1294.921875,42432,0,0
-0.009231849,-1,-302.5092318,-32768,1298.828125,42560,0,0
-0.009231849,-1,-302.5092318,-32768,1302.734375,42688,0,0
-0.009231849,-1,-302.5092318,-32768,1306.640625,42816,0,0
-0.009231849,-1,-302.5092318,-32768,1310.546875,42944,0,0
-0.009231849,-1,-302.5092318,-32768,1314.453125,43072,0,0
-0.009231849,-1,-302.5092318,-32768,1318.359375,43200,0,0
-0.009231849,-1,-302.5092318,-32768,1322.265625,43328,0,0
-0.009231849,-1,-302.5092318,-32768,1326.171875,43456,0,0
-0.009231849,-1,-302.5092318,-32768,1330.078125,43584,0,0
-0.009231849,-1,-302.5092318,-32768,1333.984375,43712,0,0
-0.009231849,-1,-302.5092318,-32768,1337.890625,43840,0,0
-0.009231849,-1,-302.5092318,-32768,1341.796875,43968,0,0
-0.009231849,-1,-302.5092318,-32768,1345.703125,44096,0,0
-0.009231849,-1,-302.5092318,-32768,1349.609375,44224,0,0
-0.009231849,-1,-302.5092318,-32768,1353.515625,44352,0,0
-0.009231849,-1,-302.5092318,-32768,1357.421875,44480,0,0
-0.009231849,-1,-302.5092318,-32768,1361.328125,44608,0,0
-0.009231849,-1,-302.5092318,-32768,1365.234375,44736,0,0
-0.009231849,-1,-302.5092318,-32768,1369.140625,44864,0,0
-0.009231849,-1,-302.5092318,-32768,1373.046875,44992,0,0
-0.009231849,-1,-302.5092318,-32768,1376.953125,45120,0,0
-0.009231849,-1,-302.5092318,-32768,1380.859375,45248,0,0
-0.009231849,-1,-302.5092318,-32768,1384.765625,45376,0,0
-0.009231849,-1,-302.5092318,-32768,1388.671875,45504,0,0
-0.009231849,-1,-302.5092318,-32768,1392.578125,45632,0,0
-0.009231849,-1,-302.5092318,-32768,1396.484375,45760,0,0
-0.009231849,-1,-302.5092318,-32768,1400.390625,45888,0,0
-0.009231849,-1,-302.5092318,-32768,1404.296875,46016,0,0
-0.009231849,-1,-302.5092318,-32768,1408.203125,46144,0,0
-0.009231849,-1,-302.5092318,-32768,1412.109375,46272,0,0
-0.009231849,-1,-302.5092318,-32768,1416.015625,46400,0,0
-0.009231849,-1,-302.5092318,-32768,1419.921875,46528,0,0
-0.009231849,-1,-302.5092318,-32768,1423.828125,46656,0,0
-0.009231849,-1,-302.5092318,-32768,1427.734375,46784,0,0
-0.009231849,-1,-302.5092318,-32768,1431.640625,46912,0,0
-0.009231849,-1,-302.5092318,-32768,1435.546875,47040,0,0
-0.009231849,-1,-302.5092318,-32768,1439.453125,47168,0,0
-0.009231849,-1,-302.5092318,-32768,1443.359375,47296,0,0
-0.009231849,-1,-302.5092318,-32768,1447.265625,47424,0,0
-0.009231849,-1,-302.5092318,-32768,1451.171875,47552,0,0
-0.009231849,-1,-302.5092318,-32768,1455.078125,47680,0,0
-0.009231849,-1,-302.5092318,-32768,1458.984375,47808,0,0
-0.009231849,-1,-302.5092318,-32768,1462.890625,47936,0,0
-0.009231849,-1,-302.5092318,-32768,1466.796875,48064,0,0
-0.009231849,-1,-302.5092318,-32768,1470.703125,48192,0,0
-0.009231849,-1,-302.5092318,-32768,1474.609375,48320,0,0
-0.009231849,-1,-302.5092318,-32768,1478.515625,48448,0,0
-0.009231849,-1,-302.5092318,-32768,1482.421875,48576,0,0
-0.009231849,-1,-302.5092318,-32768,1486.328125,48704,0,0
-0.009231849,-1,-302.5092318,-32768,1490.234375,48832,0,0
-0.009231849,-1,-302.5092318,-32768,1494.140625,48960,0,0
-0.009231849,-1,-302.5092318,-32768,1498.046875,49088,0,0
-0.009231849,-1,-302.5092318,-32768,1501.953125,49216,0,0
-0.009231849,-1,-302.5092318,-32768,1505.859375,49344,0,0
-0.009231849,-1,-302.5092318,-32768,1509.765625,49472,0,0
-0.009231849,-1,-302.5092318,-32768,1513.671875,49600,0,0
-0.009231849,-1,-302.5092318,-32768,1517.578125,49728,0,0
-0.009231849,-1,-302.5092318,-32768,1521.484375,49856,0,0
-0.009231849,-1,-302.5092318,-32768,1525.390625,49984,0,0
-0.009231849,-1,-302.5092318,-32768,1529.296875,50112,0,0
-0.009231849,-1,-302.5092318,-32768,1533.203125,50240,0,0
-0.009231849,-1,-302.5092318,-32768,1537.109375,50368,0,0
-0.009231849,-1,-302.5092318,-32768,1541.015625,50496,0,0
-0.009231849,-1,-302.5092318,-32768,1544.921875,50624,0,0
-0.009231849,-1,-302.5092318,-32768,1548.828125,50752,0,0
-0.009231849,-1,-302.5092318,-32768,1552.734375,50880,0,0
-0.009231849,-1,-302.5092318,-32768,1556.640625,51008,0,0
-0.009231849,-1,-302.5092318,-32768,1560.546875,51136,0,0
-0.009231849,-1,-302.5092318,-32768,1564.453125,51264,0,0
-0.009231849,-1,-302.5092318,-32768,1568.359375,51392,0,0
-0.009231849,-1,-302.5092318,-32768,1572.265625,51520,0,0
-0.009231849,-1,-302.5092318,-32768,1576.171875,51648,0,0
-0.009231849,-1,-302.5092318,-32768,1580.078125,51776,0,0
-0.009231849,-1,-302.5092318,-32768,1583.984375,51904,0,0
-0.009231849,-1,-302.5092318,-32768,1587.890625,52032,0,0
-0.009231849,-1,-302.5092318,-32768,1591.796875,52160,0,0
-0.009231849,-1,-302.5092318,-32768,1595.703125,52288,0,0
-0.009231849,-1,-302.5092318,-32768,1599.609375,52416,0,0
-0.009231849,-1,-302.5092318,-32768,1603.515625,52544,0,0
-0.009231849,-1,-302.5092318,-32768,1607.421875,52672,0,0
-0.009231849,-1,-302.5092318,-32768,1611.328125,52800,0,0
-0.009231849,-1,-302.5092318,-32768,1615.234375,52928,0,0
-0.009231849,-1,-302.5092318,-32768,1619.140625,53056,0,0
-0.009231849,-1,-302.5092318,-32768,1623.046875,53184,0,0
-0.009231849,-1,-302.5092318,-32768,1626.953125,53312,0,0
-0.009231849,-1,-302.5092318,-32768,1630.859375,53440,0,0
-0.009231849,-1,-302.5092318,-32768,1634.765625,53568,0,0
-0.009231849,-1,-302.5092318,-32768,1638.671875,53696,0,0
-0.009231849,-1,-302.5092318,-32768,1642.578125,53824,0,0
-0.009231849,-1,-302.5092318,-32768,1646.484375,53952,0,0
-0.009231849,-1,-302.5092318,-32768,1650.390625,54080,0,0
0,0,-0.009231849,-1,1654.296875,54208,-0.009231849,-1
0,0,9.444181646,1023,1658.203125,54336,-0.009231849,-1
0.009231849,1,0,0,1662.109375,54464,0,0
-2.363353374,-256,1.77251503,192,1666.015625,54592,3.545030061,384
-2.363353374,-256,0.009231849,1,1669.921875,54720,3.545030061,384
-0.009231849,-1,-302.5092318,-32768,1673.828125,54848,0,0
-0.009231849,-1,-302.5092318,-32768,1677.734375,54976,0,0
-0.009231849,-1,-302.5092318,-32768,1681.640625,55104,0,0
-0.009231849,-1,-302.5092318,-32768,1685.546875,55232,0,0
-0.009231849,-1,-302.5092318,-32768,1689.453125,55360,0,0
-0.009231849,-1,-302.5092318,-32768,1693.359375,55488,0,0
-0.009231849,-1,-302.5092318,-32768,1697.265625,55616,0,0
-0.009231849,-1,-302.5092318,-32768,1701.171875,55744,0,0
-0.009231849,-1,-302.5092318,-32768,1705.078125,55872,0,0
-0.009231849,-1,-302.5092318,-32768,1708.984375,56000,0,0
-0.009231849,-1,-302.5092318,-32768,1712.890625,56128,0,0
-0.009231849,-1,-302.5092318,-32768,1716.796875,56256,0,0
-0.009231849,-1,-302.5092318,-32768,1720.703125,56384,0,0
-0.009231849,-1,-302.5092318,-32768,1724.609375,56512,0,0
-0.009231849,-1,-302.5092318,-32768,1728.515625,56640,0,0
-0.009231849,-1,-302.5092318,-32768,1732.421875,56768,0,0
-0.009231849,-1,-302.5092318,-32768,1736.328125,56896,0,0
-0.009231849,-1,-302.5092318,-32768,1740.234375,57024,0,0
-0.009231849,-1,-302.5092318,-32768,1744.140625,57152,0,0
-0.009231849,-1,-302.5092318,-32768,1748.046875,57280,0,0
-0.009231849,-1,-302.5092318,-32768,1751.953125,57408,0,0
-0.009231849,-1,-302.5092318,-32768,1755.859375,57536,0,0
-0.009231849,-1,-302.5092318,-32768,1759.765625,57664,0,0
-0.009231849,-1,-302.5092318,-32768,1763.671875,57792,0,0
-0.009231849,-1,-302.5092318,-32768,1767.578125,57920,0,0
-0.009231849,-1,-302.5092318,-32768,1771.484375,58048,0,0
-0.009231849,-1,-302.5092318,-32768,1775.390625,58176,0,0
-0.009231849,-1,-302.5092318,-32768,1779.296875,58304,0,0
-0.009231849,-1,-302.5092318,-32768,1783.203125,58432,0,0
-0.009231849,-1,-302.5092318,-32768,1787.109375,58560,0,0
-0.009231849,-1,-302.5092318,-32768,1791.015625,58688,0,0
-0.009231849,-1,-302.5092318,-32768,1794.921875,58816,0,0
-0.009231849,-1,-302.5092318,-32768,1798.828125,58944,0,0
-0.009231849,-1,-302.5092318,-32768,1802.734375,59072,0,0
-0.009231849,-1,-302.5092318,-32768,1806.640625,59200,0,0
-0.009231849,-1,-302.5092318,-32768,1810.546875,59328,0,0
-0.009231849,-1,-302.5092318,-32768,1814.453125,59456,0,0
-0.009231849,-1,-302.5092318,-32768,1818.359375,59584,0,0
-0.009231849,-1,-302.5092318,-32768,1822.265625,59712,0,0
-0.009231849,-1,-302.5092318,-32768,1826.171875,59840,0,0
-0.009231849,-1,-302.5092318,-32768,1830.078125,59968,0,0
-0.009231849,-1,-302.5092318,-32768,1833.984375,60096,0,0
-0.009231849,-1,-302.5092318,-32768,1837.890625,60224,0,0
-0.009231849,-1,-302.5092318,-32768,1841.796875,60352,0,0
-0.009231849,-1,-302.5092318,-32768,1845.703125,60480,0,0
-0.009231849,-1,-302.5092318,-32768,1849.609375,60608,0,0
-0.009231849,-1,-302.5092318,-32768,1853.515625,60736,0,0
-0.009231849,-1,-302.5092318,-32768,1857.421875,60864,0,0
-0.009231849,-1,-302.5092318,-32768,1861.328125,60992,0,0
-0.009231849,-1,-302.5092318,-32768,1865.234375,61120,0,0
-0.009231849,-1,-302.5092318,-32768,1869.140625,61248,0,0
-0.009231849,-1,-302.5092318,-32768,1873.046875,61376,0,0
-0.009231849,-1,-302.5092318,-32768,1876.953125,61504,0,0
-0.009231849,-1,-302.5092318,-32768,1880.859375,61632,0,0
-0.009231849,-1,-302.5092318,-32768,1884.765625,61760,0,0
-0.009231849,-1,-302.5092318,-32768,1888.671875,61888,0,0
-0.009231849,-1,-302.5092318,-32768,1892.578125,62016,0,0
-0.009231849,-1,-302.5092318,-32768,1896.484375,62144,0,0
-0.009231849,-1,-302.5092318,-32768,1900.390625,62272,0,0
-0.009231849,-1,-302.5092318,-32768,1904.296875,62400,0,0
-0.009231849,-1,-302.5092318,-32768,1908.203125,62528,0,0
-0.009231849,-1,-302.5092318,-32768,1912.109375,62656,0,0
-0.009231849,-1,-302.5092318,-32768,1916.015625,62784,0,0
-0.009231849,-1,-302.5092318,-32768,1919.921875,62912,0,0
-0.009231849,-1,-302.5092318,-32768,1923.828125,63040,0,0
-0.009231849,-1,-302.5092318,-32768,1927.734375,63168,0,0
-0.009231849,-1,-302.5092318,-32768,1931.640625,63296,0,0
-0.009231849,-1,-302.5092318,-32768,1935.546875,63424,0,0
-0.009231849,-1,-302.5092318,-32768,1939.453125,63552,0,0
-0.009231849,-1,-302.5092318,-32768,1943.359375,63680,0,0
-0.009231849,-1,-302.5092318,-32768,1947.265625,63808,0,0
-0.009231849,-1,-302.5092318,-32768,1951.171875,63936,0,0
-0.009231849,-1,-302.5092318,-32768,1955.078125,64064,0,0
-0.009231849,-1,-302.5092318,-32768,1958.984375,64192,0,0
-0.009231849,-1,-302.5092318,-32768,1962.890625,64320,0,0
-0.009231849,-1,-302.5092318,-32768,1966.796875,64448,0,0
-0.009231849,-1,-302.5092318,-32768,1970.703125,64576,0,0
-0.009231849,-1,-302.5092318,-32768,1974.609375,64704,0,0
-0.009231849,-1,-302.5092318,-32768,1978.515625,64832,0,0
-0.009231849,-1,-302.5092318,-32768,1982.421875,64960,0,0
-0.009231849,-1,-302.5092318,-32768,1986.328125,65088,0,0
-0.009231849,-1,-302.5092318,-32768,1990.234375,65216,0,0
-0.009231849,-1,-302.5092318,-32768,1994.140625,65344,0,0
-0.009231849,-1,-302.5092318,-32768,1998.046875,65472,0,0
-0.009231849,-1,-302.5092318,-32768,2001.953125,64,0,0
-0.009231849,-1,-302.5092318,-32768,2005.859375,192,0,0
-0.009231849,-1,-302.5092318,-32768,2009.765625,320,0,0
-0.009231849,-1,-302.5092318,-32768,2013.671875,448,0,0
-0.009231849,-1,-302.5092318,-32768,2017.578125,576,0,0
-0.009231849,-1,-302.5092318,-32768,2021.484375,704,0,0
-0.009231849,-1,-302.5092318,-32768,2025.390625,832,0,0
-0.009231849,-1,-302.5092318,-32768,2029.296875,960,0,0
-0.009231849,-1,-302.5092318,-32768,2033.203125,1088,0,0
-0.009231849,-1,-302.5092318,-32768,2037.109375,1216,0,0
-0.009231849,-1,-302.5092318,-32768,2041.015625,1344,0,0
-0.009231849,-1,-302.5092318,-32768,2044.921875,1472,0,0
-0.009231849,-1,-302.5092318,-32768,2048.828125,1600,0,0
-0.009231849,-1,-302.5092318,-32768,2052.734375,1728,0,0
-0.009231849,-1,-302.5092318,-32768,2056.640625,1856,0,0
-0.009231849,-1,-302.5092318,-32768,2060.546875,1984,0,0
-0.009231849,-1,-302.5092318,-32768,2064.453125,2112,0,0
-0.009231849,-1,-302.5092318,-32768,2068.359375,2240,0,0
-0.009231849,-1,-302.5092318,-32768,2072.265625,2368,0,0
-0.009231849,-1,-302.5092318,-32768,2076.171875,2496,0,0
-0.009231849,-1,-302.5092318,-32768,2080.078125,2624,0,0
-0.009231849,-1,-302.5092318,-32768,2083.984375,2752,0,0
-0.009231849,-1,-302.5092318,-32768,2087.890625,2880,0,0
-0.009231849,-1,-302.5092318,-32768,2091.796875,3008,0,0
-0.009231849,-1,-302.5092318,-32768,2095.703125,3136,0,0
-0.009231849,-1,-302.5092318,-32768,2099.609375,3264,0,0
-0.009231849,-1,-302.5092318,-32768,2103.515625,3392,0,0
-0.009231849,-1,-302.5092318,-32768,2107.421875,3520,0,0
-0.009231849,-1,-302.5092318,-32768,2111.328125,3648,0,0
-0.009231849,-1,-302.5092318,-32768,2115.234375,3776,0,0
-0.009231849,-1,-302.5092318,-32768,2119.140625,3904,0,0
-0.009231849,-1,-302.5092318,-32768,2123.046875,4032,0,0
-0.009231849,-1,-302.5092318,-32768,2126.953125,4160,0,0
-0.009231849,-1,-302.5092318,-32768,2130.859375,4288,0,0
-0.009231849,-1,-302.5092318,-32768,2134.765625,4416,0,0
-0.009231849,-1,-302.5092318,-32768,2138.671875,4544,0,0
-0.009231849,-1,-302.5092318,-32768,2142.578125,4672,0,0
-0.009231849,-1,-302.5092318,-32768,2146.484375,4800,0,0
-0.009231849,-1,-302.5092318,-32768,2150.390625,4928,0,0
-0.009231849,-1,-302.5092318,-32768,2154.296875,5056,0,0
-0.009231849,-1,-302.5092318,-32768,2158.203125,5184,0,0
-0.009231849,-1,-302.5092318,-32768,2162.109375,5312,0,0
-0.009231849,-1,-302.5092318,-32768,2166.015625,5440,0,0
-0.009231849,-1,-302.5092318,-32768,2169.921875,5568,0,0
-0.009231849,-1,-302.5092318,-32768,2173.828125,5696,0,0
-0.009231849,-1,-302.5092318,-32768,2177.734375,5824,0,0
-0.009231849,-1,-302.5092318,-32768,2181.640625,5952,0,0
-0.009231849,-1,-302.5092318,-32768,2185.546875,6080,0,0
-0.009231849,-1,-302.5092318,-32768,2189.453125,6208,0,0
-0.009231849,-1,-302.5092318,-32768,2193.359375,6336,0,0
-0.009231849,-1,-302.5092318,-32768,2197.265625,6464,0,0
-0.009231849,-1,-302.5092318,-32768,2201.171875,6592,0,0
-0.009231849,-1,-302.5092318,-32768,2205.078125,6720,0,0
-0.009231849,-1,-302.5092318,-32768,2208.984375,6848,0,0
-0.009231849,-1,-302.5092318,-32768,2212.890625,6976,0,0
-0.009231849,-1,-302.5092318,-32768,2216.796875,7104,0,0
-0.009231849,-1,-302.5092318,-32768,2220.703125,7232,0,0
-0.009231849,-1,-302.5092318,-32768,2224.609375,7360,0,0
-0.009231849,-1,-302.5092318,-32768,2228.515625,7488,0,0
-0.009231849,-1,-302.5092318,-32768,2232.421875,7616,0,0
-0.009231849,-1,-302.5092318,-32768,2236.328125,7744,0,0
-0.009231849,-1,-302.5092318,-32768,2240.234375,7872,0,0
-0.009231849,-1,-302.5092318,-32768,2244.140625,8000,0,0
-0.009231849,-1,-302.5092318,-32768,2248.046875,8128,0,0
-0.009231849,-1,-302.5092318,-32768,2251.953125,8256,0,0
-0.009231849,-1,-302.5092318,-32768,2255.859375,8384,0,0
-0.009231849,-1,-302.5092318,-32768,2259.765625,8512,0,0
-0.009231849,-1,-302.5092318,-32768,2263.671875,8640,0,0
-0.009231849,-1,-302.5092318,-32768,2267.578125,8768,0,0
-0.009231849,-1,-302.5092318,-32768,2271.484375,8896,0,0
-0.009231849,-1,-302.5092318,-32768,2275.390625,9024,0,0
-0.009231849,-1,-302.5092318,-32768,2279.296875,9152,0,0
-0.009231849,-1,-302.5092318,-32768,2283.203125,9280,0,0
-0.009231849,-1,-302.5092318,-32768,2287.109375,9408,0,0
-0.009231849,-1,-302.5092318,-32768,2291.015625,9536,0,0
-0.009231849,-1,-302.5092318,-32768,2294.921875,9664,0,0
-0.009231849,-1,-302.5092318,-32768,2298.828125,9792,0,0
-0.009231849,-1,-302.5092318,-32768,2302.734375,9920,0,0
-0.009231849,-1,-302.5092318,-32768,2306.640625,10048,0,0
-0.009231849,-1,-302.5092318,-32768,2310.546875,10176,0,0
-0.009231849,-1,-302.5092318,-32768,2314.453125,10304,0,0
-0.009231849,-1,-302.5092318,-32768,2318.359375,10432,0,0
-0.009231849,-1,-302.5092318,-32768,2322.265625,10560,0,0
-0.009231849,-1,-302.5092318,-32768,2326.171875,10688,0,0
-0.009231849,-1,-302.5092318,-32768,2330.078125,10816,0,0
-0.009231849,-1,-302.5092318,-32768,2333.984375,10944,0,0
-0.009231849,-1,-302.5092318,-32768,2337.890625,11072,0,0
-0.009231849,-1,-302.5092318,-32768,2341.796875,11200,0,0
-0.009231849,-1,-302.5092318,-32768,2345.703125,11328,0,0
-0.009231849,-1,-302.5092318,-32768,2349.609375,11456,0,0
-0.009231849,-1,-302.5092318,-32768,2353.515625,11584,0,0
-0.009231849,-1,-302.5092318,-32768,2357.421875,11712,0,0
-0.009231849,-1,-302.5092318,-32768,2361.328125,11840,0,0
-0.009231849,-1,-302.5092318,-32768,2365.234375,11968,0,0
-0.009231849,-1,-302.5092318,-32768,2369.140625,12096,0,0
-0.009231849,-1,-302.5092318,-32768,2373.046875,12224,0,0
-0.009231849,-1,-302.5092318,-32768,2376.953125,12352,0,0
-0.009231849,-1,-302.5092318,-32768,2380.859375,12480,0,0
-0.009231849,-1,-302.5092318,-32768,2384.765625,12608,0,0
-0.009231849,-1,-302.5092318,-32768,2388.671875,12736,0,0
-0.009231849,-1,-302.5092318,-32768,2392.578125,12864,0,0
-0.009231849,-1,-302.5092318,-32768,2396.484375,12992,0,0
-0.009231849,-1,-302.5092318,-32768,2400.390625,13120,0,0
-0.009231849,-1,-302.5092318,-32768,2404.296875,13248,0,0
-0.009231849,-1,-302.5092318,-32768,2408.203125,13376,0,0
-0.009231849,-1,-302.5092318,-32768,2412.109375,13504,0,0
-0.009231849,-1,-302.5092318,-32768,2416.015625,13632,0,0
-0.009231849,-1,-302.5092318,-32768,2419.921875,13760,0,0
-0.009231849,-1,-302.5092318,-32768,2423.828125,13888,0,0
-0.009231849,-1,-302.5092318,-32768,2427.734375,14016,0,0
-0.009231849,-1,-302.5092318,-32768,2431.640625,14144,0,0
-0.009231849,-1,-302.5092318,-32768,2435.546875,14272,0,0
-0.009231849,-1,-302.5092318,-32768,2439.453125,14400,0,0
-0.009231849,-1,-302.5092318,-32768,2443.359375,14528,0,0
-0.009231849,-1,-302.5092318,-32768,2447.265625,14656,0,0
-0.009231849,-1,-302.5092318,-32768,2451.171875,14784,0,0
-0.009231849,-1,-302.5092318,-32768,2455.078125,14912,0,0
-0.009231849,-1,-302.5092318,-32768,2458.984375,15040,0,0
-0.009231849,-1,-302.5092318,-32768,2462.890625,15168,0,0
-0.009231849,-1,-302.5092318,-32768,2466.796875,15296,0,0
-0.009231849,-1,-302.5092318,-32768,2470.703125,15424,0,0
-0.009231849,-1,-302.5092318,-32768,2474.609375,15552,0,0
-0.009231849,-1,-302.5092318,-32768,2478.515625,15680,0,0
0,0,-0.009231849,-1,2482.421875,15808,-0.009231849,-1
0,0,9.444181646,1023,2486.328125,15936,-0.009231849,-1
0.009231849,1,0,0,2490.234375,16064,0,0
0,0,1.181676687,128,2494.140625,16192,-302.5092318,-32768
-2.363353374,-256,0.138477737,15,2498.046875,16320,3.545030061,384
-0.009231849,-1,-302.5092318,-32768,2501.953125,16448,0,0
-0.009231849,-1,-302.5092318,-32768,2505.859375,16576,0,0
-0.009231849,-1,-302.5092318,-32768,2509.765625,16704,0,0
-0.009231849,-1,-302.5092318,-32768,2513.671875,16832,0,0
-0.009231849,-1,-302.5092318,-32768,2517.578125,16960,0,0
-0.009231849,-1,-302.5092318,-32768,2521.484375,17088,0,0
-0.009231849,-1,-302.5092318,-32768,2525.390625,17216,0,0
-0.009231849,-1,-302.5092318,-32768,2529.296875,17344,0,0
-0.009231849,-1,-302.5092318,-32768,2533.203125,17472,0,0
-0.009231849,-1,-302.5092318,-32768,2537.109375,17600,0,0
-0.009231849,-1,-302.5092318,-32768,2541.015625,17728,0,0
-0.009231849,-1,-302.5092318,-32768,2544.921875,17856,0,0
-0.009231849,-1,-302.5092318,-32768,2548.828125,17984,0,0
-0.009231849,-1,-302.5092318,-32768,2552.734375,18112,0,0
-0.009231849,-1,-302.5092318,-32768,2556.640625,18240,0,0
-0.009231849,-1,-302.5092318,-32768,2560.546875,18368,0,0
-0.009231849,-1,-302.5092318,-32768,2564.453125,18496,0,0
-0.009231849,-1,-302.5092318,-32768,2568.359375,18624,0,0
-0.009231849,-1,-302.5092318,-32768,2572.265625,18752,0,0
-0.009231849,-1,-302.5092318,-32768,2576.171875,18880,0,0
-0.009231849,-1,-302.5092318,-32768,2580.078125,19008,0,0
-0.009231849,-1,-302.5092318,-32768,2583.984375,19136,0,0
-0.009231849,-1,-302.5092318,-32768,2587.890625,19264,0,0
-0.009231849,-1,-302.5092318,-32768,2591.796875,19392,0,0
-0.009231849,-1,-302.5092318,-32768,2595.703125,19520,0,0
-0.009231849,-1,-302.5092318,-32768,2599.609375,19648,0,0
-0.009231849,-1,-302.5092318,-32768,2603.515625,19776,0,0
-0.009231849,-1,-302.5092318,-32768,2607.421875,19904,0,0
-0.009231849,-1,-302.5092318,-32768,2611.328125,20032,0,0
-0.009231849,-1,-302.5092318,-32768,2615.234375,20160,0,0
-0.009231849,-1,-302.5092318,-32768,2619.140625,20288,0,0
-0.009231849,-1,-302.5092318,-32768,2623.046875,20416,0,0
-0.009231849,-1,-302.5092318,-32768,2626.953125,20544,0,0
-0.009231849,-1,-302.5092318,-32768,2630.859375,20672,0,0
-0.009231849,-1,-302.5092318,-32768,2634.765625,20800,0,0
-0.009231849,-1,-302.5092318,-32768,2638.671875,20928,0,0
-0.009231849,-1,-302.5092318,-32768,2642.578125,21056,0,0
-0.009231849,-1,-302.5092318,-32768,2646.484375,21184,0,0
-0.009231849,-1,-302.5092318,-32768,2650.390625,21312,0,0
-0.009231849,-1,-302.5092318,-32768,2654.296875,21440,0,0
-0.009231849,-1,-302.5092318,-32768,2658.203125,21568,0,0
-0.009231849,-1,-302.5092318,-32768,2662.109375,21696,0,0
-0.009231849,-1,-302.5092318,-32768,2666.015625,21824,0,0
-0.009231849,-1,-302.5092318,-32768,2669.921875,21952,0,0
-0.009231849,-1,-302.5092318,-32768,2673.828125,22080,0,0
-0.009231849,-1,-302.5092318,-32768,2677.734375,22208,0,0
-0.009231849,-1,-302.5092318,-32768,2681.640625,22336,0,0
-0.009231849,-1,-302.5092318,-32768,2685.546875,22464,0,0
-0.009231849,-1,-302.5092318,-32768,2689.453125,22592,0,0
-0.009231849,-1,-302.5092318,-32768,2693.359375,22720,0,0
-0.009231849,-1,-302.5092318,-32768,2697.265625,22848,0,0
-0.009231849,-1,-302.5092318,-32768,2701.171875,22976,0,0
-0.009231849,-1,-302.5092318,-32768,2705.078125,23104,0,0
-0.009231849,-1,-302.5092318,-32768,2708.984375,23232,0,0
-0.009231849,-1,-302.5092318,-32768,2712.890625,23360,0,0
-0.009231849,-1,-302.5092318,-32768,2716.796875,23488,0,0
-0.009231849,-1,-302.5092318,-32768,2720.703125,23616,0,0
-0.009231849,-1,-302.5092318,-32768,2724.609375,23744,0,0
-0.009231849,-1,-302.5092318,-32768,2728.515625,23872,0,0
-0.009231849,-1,-302.5092318,-32768,2732.421875,24000,0,0
-0.009231849,-1,-302.5092318,-32768,2736.328125,24128,0,0
-0.009231849,-1,-302.5092318,-32768,2740.234375,24256,0,0
-0.009231849,-1,-302.5092318,-32768,2744.140625,24384,0,0
-0.009231849,-1,-302.5092318,-32768,2748.046875,24512,0,0
-0.009231849,-1,-302.5092318,-32768,2751.953125,24640,0,0
-0.009231849,-1,-302.5092318,-32768,2755.859375,24768,0,0
-0.009231849,-1,-302.5092318,-32768,2759.765625,24896,0,0
-0.009231849,-1,-302.5092318,-32768,2763.671875,25024,0,0
-0.009231849,-1,-302.5092318,-32768,2767.578125,25152,0,0
-0.009231849,-1,-302.5092318,-32768,2771.484375,25280,0,0
-0.009231849,-1,-302.5092318,-32768,2775.390625,25408,0,0
-0.009231849,-1,-302.5092318,-32768,2779.296875,25536,0,0
-0.009231849,-1,-302.5092318,-32768,2783.203125,25664,0,0
-0.009231849,-1,-302.5092318,-32768,2787.109375,25792,0,0
-0.009231849,-1,-302.5092318,-32768,2791.015625,25920,0,0
-0.009231849,-1,-302.5092318,-32768,2794.921875,26048,0,0
-0.009231849,-1,-302.5092318,-32768,2798.828125,26176,0,0
-0.009231849,-1,-302.5092318,-32768,2802.734375,26304,0,0
-0.009231849,-1,-302.5092318,-32768,2806.640625,26432,0,0
-0.009231849,-1,-302.5092318,-32768,2810.546875,26560,0,0
-0.009231849,-1,-302.5092318,-32768,2814.453125,26688,0,0
-0.009231849,-1,-302.5092318,-32768,2818.359375,26816,0,0
-0.009231849,-1,-302.5092318,-32768,2822.265625,26944,0,0
-0.009231849,-1,-302.5092318,-32768,2826.171875,27072,0,0
-0.009231849,-1,-302.5092318,-32768,2830.078125,27200,0,0
-0.009231849,-1,-302.5092318,-32768,2833.984375,27328,0,0
-0.009231849,-1,-302.5092318,-32768,2837.890625,27456,0,0
-0.009231849,-1,-302.5092318,-32768,2841.796875,27584,0,0
-0.009231849,-1,-302.5092318,-32768,2845.703125,27712,0,0
-0.009231849,-1,-302.5092318,-32768,2849.609375,27840,0,0
-0.009231849,-1,-302.5092318,-32768,2853.515625,27968,0,0
-0.009231849,-1,-302.5092318,-32768,2857.421875,28096,0,0
-0.009231849,-1,-302.5092318,-32768,2861.328125,28224,0,0
-0.009231849,-1,-302.5092318,-32768,2865.234375,28352,0,0
-0.009231849,-1,-302.5092318,-32768,2869.140625,28480,0,0
-0.009231849,-1,-302.5092318,-32768,2873.046875,28608,0,0
-0.009231849,-1,-302.5092318,-32768,2876.953125,28736,0,0
-0.009231849,-1,-302.5092318,-32768,2880.859375,28864,0,0
-0.009231849,-1,-302.5092318,-32768,2884.765625,28992,0,0
-0.009231849,-1,-302.5092318,-32768,2888.671875,29120,0,0
-0.009231849,-1,-302.5092318,-32768,2892.578125,29248,0,0
-0.009231849,-1,-302.5092318,-32768,2896.484375,29376,0,0
-0.009231849,-1,-302.5092318,-32768,2900.390625,29504,0,0
-0.009231849,-1,-302.5092318,-32768,2904.296875,29632,0,0
-0.009231849,-1,-302.5092318,-32768,2908.203125,29760,0,0
-0.009231849,-1,-302.5092318,-32768,2912.109375,29888,0,0
-0.009231849,-1,-302.5092318,-32768,2916.015625,30016,0,0
-0.009231849,-1,-302.5092318,-32768,2919.921875,30144,0,0
-0.009231849,-1,-302.5092318,-32768,2923.828125,30272,0,0
-0.009231849,-1,-302.5092318,-32768,2927.734375,30400,0,0
-0.009231849,-1,-302.5092318,-32768,2931.640625,30528,0,0
-0.009231849,-1,-302.5092318,-32768,2935.546875,30656,0,0
-0.009231849,-1,-302.5092318,-32768,2939.453125,30784,0,0
-0.009231849,-1,-302.5092318,-32768,2943.359375,30912,0,0
-0.009231849,-1,-302.5092318,-32768,2947.265625,31040,0,0
-0.009231849,-1,-302.5092318,-32768,2951.171875,31168,0,0
-0.009231849,-1,-302.5092318,-32768,2955.078125,31296,0,0
-0.009231849,-1,-302.5092318,-32768,2958.984375,31424,0,0
-0.009231849,-1,-302.5092318,-32768,2962.890625,31552,0,0
-0.009231849,-1,-302.5092318,-32768,2966.796875,31680,0,0
-0.009231849,-1,-302.5092318,-32768,2970.703125,31808,0,0
-0.009231849,-1,-302.5092318,-32768,2974.609375,31936,0,0
-0.009231849,-1,-302.5092318,-32768,2978.515625,32064,0,0
-0.009231849,-1,-302.5092318,-32768,2982.421875,32192,0,0
-0.009231849,-1,-302.5092318,-32768,2986.328125,32320,0,0
-0.009231849,-1,-302.5092318,-32768,2990.234375,32448,0,0
-0.009231849,-1,-302.5092318,-32768,2994.140625,32576,0,0
-0.009231849,-1,-302.5092318,-32768,2998.046875,32704,0,0
-0.009231849,-1,-302.5092318,-32768,3001.953125,32832,0,0
-0.009231849,-1,-302.5092318,-32768,3005.859375,32960,0,0
-0.009231849,-1,-302.5092318,-32768,3009.765625,33088,0,0
-0.009231849,-1,-302.5092318,-32768,3013.671875,33216,0,0
-0.009231849,-1,-302.5092318,-32768,3017.578125,33344,0,0
-0.009231849,-1,-302.5092318,-32768,3021.484375,33472,0,0
-0.009231849,-1,-302.5092318,-32768,3025.390625,33600,0,0
-0.009231849,-1,-302.5092318,-32768,3029.296875,33728,0,0
-0.009231849,-1,-302.5092318,-32768,3033.203125,33856,0,0
-0.009231849,-1,-302.5092318,-32768,3037.109375,33984,0,0
-0.009231849,-1,-302.5092318,-32768,3041.015625,34112,0,0
-0.009231849,-1,-302.5092318,-32768,3044.921875,34240,0,0
-0.009231849,-1,-302.5092318,-32768,3048.828125,34368,0,0
-0.009231849,-1,-302.5092318,-32768,3052.734375,34496,0,0
-0.009231849,-1,-302.5092318,-32768,3056.640625,34624,0,0
-0.009231849,-1,-302.5092318,-32768,3060.546875,34752,0,0
-0.009231849,-1,-302.5092318,-32768,3064.453125,34880,0,0
-0.009231849,-1,-302.5092318,-32768,3068.359375,35008,0,0
-0.009231849,-1,-302.5092318,-32768,3072.265625,35136,0,0
-0.009231849,-1,-302.5092318,-32768,3076.171875,35264,0,0
-0.009231849,-1,-302.5092318,-32768,3080.078125,35392,0,0
-0.009231849,-1,-302.5092318,-32768,3083.984375,35520,0,0
-0.009231849,-1,-302.5092318,-32768,3087.890625,35648,0,0
-0.009231849,-1,-302.5092318,-32768,3091.796875,35776,0,0
-0.009231849,-1,-302.5092318,-32768,3095.703125,35904,0,0
-0.009231849,-1,-302.5092318,-32768,3099.609375,36032,0,0
-0.009231849,-1,-302.5092318,-32768,3103.515625,36160,0,0
-0.009231849,-1,-302.5092318,-32768,3107.421875,36288,0,0
-0.009231849,-1,-302.5092318,-32768,3111.328125,36416,0,0
-0.009231849,-1,-302.5092318,-32768,3115.234375,36544,0,0
-0.009231849,-1,-302.5092318,-32768,3119.140625,36672,0,0
-0.009231849,-1,-302.5092318,-32768,3123.046875,36800,0,0
-0.009231849,-1,-302.5092318,-32768,3126.953125,36928,0,0
-0.009231849,-1,-302.5092318,-32768,3130.859375,37056,0,0
-0.009231849,-1,-302.5092318,-32768,3134.765625,37184,0,0
-0.009231849,-1,-302.5092318,-32768,3138.671875,37312,0,0
-0.009231849,-1,-302.5092318,-32768,3142.578125,37440,0,0
-0.009231849,-1,-302.5092318,-32768,3146.484375,37568,0,0
-0.009231849,-1,-302.5092318,-32768,3150.390625,37696,0,0
-0.009231849,-1,-302.5092318,-32768,3154.296875,37824,0,0
-0.009231849,-1,-302.5092318,-32768,3158.203125,37952,0,0
-0.009231849,-1,-302.5092318,-32768,3162.109375,38080,0,0
-0.009231849,-1,-302.5092318,-32768,3166.015625,38208,0,0
-0.009231849,-1,-302.5092318,-32768,3169.921875,38336,0,0
-0.009231849,-1,-302.5092318,-32768,3173.828125,38464,0,0
-0.009231849,-1,-302.5092318,-32768,3177.734375,38592,0,0
-0.009231849,-1,-302.5092318,-32768,3181.640625,38720,0,0
-0.009231849,-1,-302.5092318,-32768,3185.546875,38848,0,0
-0.009231849,-1,-302.5092318,-32768,3189.453125,38976,0,0
-0.009231849,-1,-302.5092318,-32768,3193.359375,39104,0,0
-0.009231849,-1,-302.5092318,-32768,3197.265625,39232,0,0
-0.009231849,-1,-302.5092318,-32768,3201.171875,39360,0,0
-0.009231849,-1,-302.5092318,-32768,3205.078125,39488,0,0
-0.009231849,-1,-302.5092318,-32768,3208.984375,39616,0,0
-0.009231849,-1,-302.5092318,-32768,3212.890625,39744,0,0
-0.009231849,-1,-302.5092318,-32768,3216.796875,39872,0,0
-0.009231849,-1,-302.5092318,-32768,3220.703125,40000,0,0
-0.009231849,-1,-302.5092318,-32768,3224.609375,40128,0,0
-0.009231849,-1,-302.5092318,-32768,3228.515625,40256,0,0
-0.009231849,-1,-302.5092318,-32768,3232.421875,40384,0,0
-0.009231849,-1,-302.5092318,-32768,3236.328125,40512,0,0
-0.009231849,-1,-302.5092318,-32768,3240.234375,40640,0,0
-0.009231849,-1,-302.5092318,-32768,3244.140625,40768,0,0
-0.009231849,-1,-302.5092318,-32768,3248.046875,40896,0,0
-0.009231849,-1,-302.5092318,-32768,3251.953125,41024,0,0
-0.009231849,-1,-302.5092318,-32768,3255.859375,41152,0,0
-0.009231849,-1,-302.5092318,-32768,3259.765625,41280,0,0
-0.009231849,-1,-302.5092318,-32768,3263.671875,41408,0,0
-0.009231849,-1,-302.5092318,-32768,3267.578125,41536,0,0
-0.009231849,-1,-302.5092318,-32768,3271.484375,41664,0,0
-0.009231849,-1,-302.5092318,-32768,3275.390625,41792,0,0
-0.009231849,-1,-302.5092318,-32768,3279.296875,41920,0,0
-0.009231849,-1,-302.5092318,-32768,3283.203125,42048,0,0
-0.009231849,-1,-302.5092318,-32768,3287.109375,42176,0,0
-0.009231849,-1,-302.5092318,-32768,3291.015625,42304,0,0
-0.009231849,-1,-302.5092318,-32768,3294.921875,42432,0,0
-0.009231849,-1,-302.5092318,-32768,3298.828125,42560,0,0
-0.009231849,-1,-302.5092318,-32768,3302.734375,42688,0,0
-0.009231849,-1,-302.5092318,-32768,3306.640625,42816,0,0
-0.009231849,-1,-302.5092318,-32768,3310.546875,42944,0,0
2.354121525,255,-1.181676687,-128,3314.453125,43072,-2.363353374,-256
3.545030061,384,0.286187323,31,3322.265625,43328,2.354121525,255
3.545030061,384,0,0,3326.171875,43456,2.354121525,255
-0.009231849,-1,0.009231849,1,3330.078125,43584,0.009231849,1
-0.009231849,-1,-302.5092318,-32768,3333.984375,43712,0,0
-0.009231849,-1,-302.5092318,-32768,3337.890625,43840,0,0
-0.009231849,-1,-302.5092318,-32768,3341.796875,43968,0,0
-0.009231849,-1,-302.5092318,-32768,3345.703125,44096,0,0
-0.009231849,-1,-302.5092318,-32768,3349.609375,44224,0,0
-0.009231849,-1,-302.5092318,-32768,3353.515625,44352,0,0
-0.009231849,-1,-302.5092318,-32768,3357.421875,44480,0,0
-0.009231849,-1,-302.5092318,-32768,3361.328125,44608,0,0
-0.009231849,-1,-302.5092318,-32768,3365.234375,44736,0,0
-0.009231849,-1,-302.5092318,-32768,3369.140625,44864,0,0
-0.009231849,-1,-302.5092318,-32768,3373.046875,44992,0,0
-0.009231849,-1,-302.5092318,-32768,3376.953125,45120,0,0
-0.009231849,-1,-302.5092318,-32768,3380.859375,45248,0,0
-0.009231849,-1,-302.5092318,-32768,3384.765625,45376,0,0
-0.009231849,-1,-302.5092318,-32768,3388.671875,45504,0,0
-0.009231849,-1,-302.5092318,-32768,3392.578125,45632,0,0
-0.009231849,-1,-302.5092318,-32768,3396.484375,45760,0,0
-0.009231849,-1,-302.5092318,-32768,3400.390625,45888,0,0
-0.009231849,-1,-302.5092318,-32768,3404.296875,46016,0,0
-0.009231849,-1,-302.5092318,-32768,3408.203125,46144,0,0
-0.009231849,-1,-302.5092318,-32768,3412.109375,46272,0,0
-0.009231849,-1,-302.5092318,-32768,3416.015625,46400,0,0
-0.009231849,-1,-302.5092318,-32768,3419.921875,46528,0,0
-0.009231849,-1,-302.5092318,-32768,3423.828125,46656,0,0
-0.009231849,-1,-302.5092318,-32768,3427.734375,46784,0,0
-0.009231849,-1,-302.5092318,-32768,3431.640625,46912,0,0
-0.009231849,-1,-302.5092318,-32768,3435.546875,47040,0,0
-0.009231849,-1,-302.5092318,-32768,3439.453125,47168,0,0
-0.009231849,-1,-302.5092318,-32768,3443.359375,47296,0,0
-0.009231849,-1,-302.5092318,-32768,3447.265625,47424,0,0
-0.009231849,-1,-302.5092318,-32768,3451.171875,47552,0,0
-0.009231849,-1,-302.5092318,-32768,3455.078125,47680,0,0
-0.009231849,-1,-302.5092318,-32768,3458.984375,47808,0,0
-0.009231849,-1,-302.5092318,-32768,3462.890625,47936,0,0
-0.009231849,-1,-302.5092318,-32768,3466.796875,48064,0,0
-0.009231849,-1,-302.5092318,-32768,3470.703125,48192,0,0
-0.009231849,-1,-302.5092318,-32768,3474.609375,48320,0,0
-0.009231849,-1,-302.5092318,-32768,3478.515625,48448,0,0
-0.009231849,-1,-302.5092318,-32768,3482.421875,48576,0,0
-0.009231849,-1,-302.5092318,-32768,3486.328125,48704,0,0
-0.009231849,-1,-302.5092318,-32768,3490.234375,48832,0,0
-0.009231849,-1,-302.5092318,-32768,3494.140625,48960,0,0
-0.009231849,-1,-302.5092318,-32768,3498.046875,49088,0,0
-0.009231849,-1,-302.5092318,-32768,3501.953125,49216,0,0
-0.009231849,-1,-302.5092318,-32768,3505.859375,49344,0,0
-0.009231849,-1,-302.5092318,-32768,3509.765625,49472,0,0
-0.009231849,-1,-302.5092318,-32768,3513.671875,49600,0,0
-0.009231849,-1,-302.5092318,-32768,3517.578125,49728,0,0
-0.009231849,-1,-302.5092318,-32768,3521.484375,49856,0,0
-0.009231849,-1,-302.5092318,-32768,3525.390625,49984,0,0
-0.009231849,-1,-302.5092318,-32768,3529.296875,50112,0,0
-0.009231849,-1,-302.5092318,-32768,3533.203125,50240,0,0
-0.009231849,-1,-302.5092318,-32768,3537.109375,50368,0,0
-0.009231849,-1,-302.5092318,-32768,3541.015625,50496,0,0
-0.009231849,-1,-302.5092318,-32768,3544.921875,50624,0,0
-0.009231849,-1,-302.5092318,-32768,3548.828125,50752,0,0
-0.009231849,-1,-302.5092318,-32768,3552.734375,50880,0,0
-0.009231849,-1,-302.5092318,-32768,3556.640625,51008,0,0
-0.009231849,-1,-302.5092318,-32768,3560.546875,51136,0,0
-0.009231849,-1,-302.5092318,-32768,3564.453125,51264,0,0
-0.009231849,-1,-302.5092318,-32768,3568.359375,51392,0,0
-0.009231849,-1,-302.5092318,-32768,3572.265625,51520,0,0
-0.009231849,-1,-302.5092318,-32768,3576.171875,51648,0,0
-0.009231849,-1,-302.5092318,-32768,3580.078125,51776,0,0
-0.009231849,-1,-302.5092318,-32768,3583.984375,51904,0,0
-0.009231849,-1,-302.5092318,-32768,3587.890625,52032,0,0
-0.009231849,-1,-302.5092318,-32768,3591.796875,52160,0,0
-0.009231849,-1,-302.5092318,-32768,3595.703125,52288,0,0
-0.009231849,-1,-302.5092318,-32768,3599.609375,52416,0,0
-0.009231849,-1,-302.5092318,-32768,3603.515625,52544,0,0
-0.009231849,-1,-302.5092318,-32768,3607.421875,52672,0,0
-0.009231849,-1,-302.5092318,-32768,3611.328125,52800,0,0
-0.009231849,-1,-302.5092318,-32768,3615.234375,52928,0,0
-0.009231849,-1,-302.5092318,-32768,3619.140625,53056,0,0
-0.009231849,-1,-302.5092318,-32768,3623.046875,53184,0,0
-0.009231849,-1,-302.5092318,-32768,3626.953125,53312,0,0
-0.009231849,-1,-302.5092318,-32768,3630.859375,53440,0,0
-0.009231849,-1,-302.5092318,-32768,3634.765625,53568,0,0
-0.009231849,-1,-302.5092318,-32768,3638.671875,53696,0,0
-0.009231849,-1,-302.5092318,-32768,3642.578125,53824,0,0
-0.009231849,-1,-302.5092318,-32768,3646.484375,53952,0,0
-0.009231849,-1,-302.5092318,-32768,3650.390625,54080,0,0
-0.009231849,-1,-302.5092318,-32768,3654.296875,54208,0,0
-0.009231849,-1,-302.5092318,-32768,3658.203125,54336,0,0
-0.009231849,-1,-302.5092318,-32768,3662.109375,54464,0,0
-0.009231849,-1,-302.5092318,-32768,3666.015625,54592,0,0
-0.009231849,-1,-302.5092318,-32768,3669.921875,54720,0,0
-0.009231849,-1,-302.5092318,-32768,3673.828125,54848,0,0
-0.009231849,-1,-302.5092318,-32768,3677.734375,54976,0,0
-0.009231849,-1,-302.5092318,-32768,3681.640625,55104,0,0
-0.009231849,-1,-302.5092318,-32768,3685.546875,55232,0,0
-0.009231849,-1,-302.5092318,-32768,3689.453125,55360,0,0
-0.009231849,-1,-302.5092318,-32768,3693.359375,55488,0,0
-0.009231849,-1,-302.5092318,-32768,3697.265625,55616,0,0
-0.009231849,-1,-302.5092318,-32768,3701.171875,55744,0,0
-0.009231849,-1,-302.5092318,-32768,3705.078125,55872,0,0
-0.009231849,-1,-302.5092318,-32768,3708.984375,56000,0,0
-0.009231849,-1,-302.5092318,-32768,3712.890625,56128,0,0
-0.009231849,-1,-302.5092318,-32768,3716.796875,56256,0,0
-0.009231849,-1,-302.5092318,-32768,3720.703125,56384,0,0
-0.009231849,-1,-302.5092318,-32768,3724.609375,56512,0,0
-0.009231849,-1,-302.5092318,-32768,3728.515625,56640,0,0
-0.009231849,-1,-302.5092318,-32768,3732.421875,56768,0,0
-0.009231849,-1,-302.5092318,-32768,3736.328125,56896,0,0
-0.009231849,-1,-302.5092318,-32768,3740.234375,57024,0,0
-0.009231849,-1,-302.5092318,-32768,3744.140625,57152,0,0
-0.009231849,-1,-302.5092318,-32768,3748.046875,57280,0,0
-0.009231849,-1,-302.5092318,-32768,3751.953125,57408,0,0
-0.009231849,-1,-302.5092318,-32768,3755.859375,57536,0,0
-0.009231849,-1,-302.5092318,-32768,3759.765625,57664,0,0
-0.009231849,-1,-302.5092318,-32768,3763.671875,57792,0,0
-0.009231849,-1,-302.5092318,-32768,3767.578125,57920,0,0
-0.009231849,-1,-302.5092318,-32768,3771.484375,58048,0,0
-0.009231849,-1,-302.5092318,-32768,3775.390625,58176,0,0
-0.009231849,-1,-302.5092318,-32768,3779.296875,58304,0,0
-0.009231849,-1,-302.5092318,-32768,3783.203125,58432,0,0
-0.009231849,-1,-302.5092318,-32768,3787.109375,58560,0,0
-0.009231849,-1,-302.5092318,-32768,3791.015625,58688,0,0
-0.009231849,-1,-302.5092318,-32768,3794.921875,58816,0,0
-0.009231849,-1,-302.5092318,-32768,3798.828125,58944,0,0
-0.009231849,-1,-302.5092318,-32768,3802.734375,59072,0,0
-0.009231849,-1,-302.5092318,-32768,3806.640625,59200,0,0
-0.009231849,-1,-302.5092318,-32768,3810.546875,59328,0,0
-0.009231849,-1,-302.5092318,-32768,3814.453125,59456,0,0
-0.009231849,-1,-302.5092318,-32768,3818.359375,59584,0,0
-0.009231849,-1,-302.5092318,-32768,3822.265625,59712,0,0
-0.009231849,-1,-302.5092318,-32768,3826.171875,59840,0,0
-0.009231849,-1,-302.5092318,-32768,3830.078125,59968,0,0
-0.009231849,-1,-302.5092318,-32768,3833.984375,60096,0,0
-0.009231849,-1,-302.5092318,-32768,3837.890625,60224,0,0
-0.009231849,-1,-302.5092318,-32768,3841.796875,60352,0,0
-0.009231849,-1,-302.5092318,-32768,3845.703125,60480,0,0
-0.009231849,-1,-302.5092318,-32768,3849.609375,60608,0,0
-0.009231849,-1,-302.5092318,-32768,3853.515625,60736,0,0
-0.009231849,-1,-302.5092318,-32768,3857.421875,60864,0,0
-0.009231849,-1,-302.5092318,-32768,3861.328125,60992,0,0
-0.009231849,-1,-302.5092318,-32768,3865.234375,61120,0,0
-0.009231849,-1,-302.5092318,-32768,3869.140625,61248,0,0
-0.009231849,-1,-302.5092318,-32768,3873.046875,61376,0,0
-0.009231849,-1,-302.5092318,-32768,3876.953125,61504,0,0
-0.009231849,-1,-302.5092318,-32768,3880.859375,61632,0,0
-0.009231849,-1,-302.5092318,-32768,3884.765625,61760,0,0
-0.009231849,-1,-302.5092318,-32768,3888.671875,61888,0,0
-0.009231849,-1,-302.5092318,-32768,3892.578125,62016,0,0
-0.009231849,-1,-302.5092318,-32768,3896.484375,62144,0,0
-0.009231849,-1,-302.5092318,-32768,3900.390625,62272,0,0
-0.009231849,-1,-302.5092318,-32768,3904.296875,62400,0,0
-0.009231849,-1,-302.5092318,-32768,3908.203125,62528,0,0
-0.009231849,-1,-302.5092318,-32768,3912.109375,62656,0,0
-0.009231849,-1,-302.5092318,-32768,3916.015625,62784,0,0
-0.009231849,-1,-302.5092318,-32768,3919.921875,62912,0,0
-0.009231849,-1,-302.5092318,-32768,3923.828125,63040,0,0
-0.009231849,-1,-302.5092318,-32768,3927.734375,63168,0,0
-0.009231849,-1,-302.5092318,-32768,3931.640625,63296,0,0
-0.009231849,-1,-302.5092318,-32768,3935.546875,63424,0,0
-0.009231849,-1,-302.5092318,-32768,3939.453125,63552,0,0
-0.009231849,-1,-302.5092318,-32768,3943.359375,63680,0,0
-0.009231849,-1,-302.5092318,-32768,3947.265625,63808,0,0
-0.009231849,-1,-302.5092318,-32768,3951.171875,63936,0,0
-0.009231849,-1,-302.5092318,-32768,3955.078125,64064,0,0
-0.009231849,-1,-302.5092318,-32768,3958.984375,64192,0,0
-0.009231849,-1,-302.5092318,-32768,3962.890625,64320,0,0
-0.009231849,-1,-302.5092318,-32768,3966.796875,64448,0,0
-0.009231849,-1,-302.5092318,-32768,3970.703125,64576,0,0
-0.009231849,-1,-302.5092318,-32768,3974.609375,64704,0,0
-0.009231849,-1,-302.5092318,-32768,3978.515625,64832,0,0
-0.009231849,-1,-302.5092318,-32768,3982.421875,64960,0,0
-0.009231849,-1,-302.5092318,-32768,3986.328125,65088,0,0
-0.009231849,-1,-302.5092318,-32768,3990.234375,65216,0,0
-0.009231849,-1,-302.5092318,-32768,3994.140625,65344,0,0
-0.009231849,-1,-302.5092318,-32768,3998.046875,65472,0,0
-0.009231849,-1,-302.5092318,-32768,4001.953125,64,0,0
-0.009231849,-1,-302.5092318,-32768,4005.859375,192,0,0
-0.009231849,-1,-302.5092318,-32768,4009.765625,320,0,0
-0.009231849,-1,-302.5092318,-32768,4013.671875,448,0,0
-0.009231849,-1,-302.5092318,-32768,4017.578125,576,0,0
-0.009231849,-1,-302.5092318,-32768,4021.484375,704,0,0
-0.009231849,-1,-302.5092318,-32768,4025.390625,832,0,0
-0.009231849,-1,-302.5092318,-32768,4029.296875,960,0,0
-0.009231849,-1,-302.5092318,-32768,4033.203125,1088,0,0
-0.009231849,-1,-302.5092318,-32768,4037.109375,1216,0,0
-0.009231849,-1,-302.5092318,-32768,4041.015625,1344,0,0
-0.009231849,-1,-302.5092318,-32768,4044.921875,1472,0,0
-0.009231849,-1,-302.5092318,-32768,4048.828125,1600,0,0
-0.009231849,-1,-302.5092318,-32768,4052.734375,1728,0,0
-0.009231849,-1,-302.5092318,-32768,4056.640625,1856,0,0
-0.009231849,-1,-302.5092318,-32768,4060.546875,1984,0,0
-0.009231849,-1,-302.5092318,-32768,4064.453125,2112,0,0
-0.009231849,-1,-302.5092318,-32768,4068.359375,2240,0,0
-0.009231849,-1,-302.5092318,-32768,4072.265625,2368,0,0
-0.009231849,-1,-302.5092318,-32768,4076.171875,2496,0,0
-0.009231849,-1,-302.5092318,-32768,4080.078125,2624,0,0
-0.009231849,-1,-302.5092318,-32768,4083.984375,2752,0,0
-0.009231849,-1,-302.5092318,-32768,4087.890625,2880,0,0
-0.009231849,-1,-302.5092318,-32768,4091.796875,3008,0,0
-0.009231849,-1,-302.5092318,-32768,4095.703125,3136,0,0
-0.009231849,-1,-302.5092318,-32768,4099.609375,3264,0,0
-0.009231849,-1,-302.5092318,-32768,4103.515625,3392,0,0
-0.009231849,-1,-302.5092318,-32768,4107.421875,3520,0,0
-0.009231849,-1,-302.5092318,-32768,4111.328125,3648,0,0
-0.009231849,-1,-302.5092318,-32768,4115.234375,3776,0,0
-0.009231849,-1,-302.5092318,-32768,4119.140625,3904,0,0
-0.009231849,-1,-302.5092318,-32768,4123.046875,4032,0,0
-0.009231849,-1,-302.5092318,-32768,4126.953125,4160,0,0
-0.009231849,-1,-302.5092318,-32768,4130.859375,4288,0,0
-0.009231849,-1,-302.5092318,-32768,4134.765625,4416,0,0
-0.009231849,-1,-302.5092318,-32768,4138.671875,4544,0,0
-0.009231849,-1,-302.5092318,-32768,4142.578125,4672,0,0
-0.009231849,-1,-302.5092318,-32768,4146.484375,4800,0,0
0,0,-0.009231849,-1,4150.390625,4928,-0.009231849,-1
0,0,9.444181646,1023,4154.296875,5056,-0.009231849,-1
0.009231849,1,0,0,4158.203125,5184,0,0
0,0,4.726706748,512,4162.109375,5312,-302.5092318,-32768
0,0,0.009231849,1,4166.015625,5440,-302.5092318,-32768
-0.009231849,-1,-302.5092318,-32768,4169.921875,5568,0,0
-0.009231849,-1,0,0,4173.828125,5696,0,0
-0.009231849,-1,-302.5092318,-32768,4177.734375,5824,0,0
-0.009231849,-1,-302.5092318,-32768,4181.640625,5952,0,0
-0.009231849,-1,-302.5092318,-32768,4185.546875,6080,0,0
-0.009231849,-1,-302.5092318,-32768,4189.453125,6208,0,0
-0.009231849,-1,-302.5092318,-32768,4193.359375,6336,0,0
-0.009231849,-1,-302.5092318,-32768,4197.265625,6464,0,0
-0.009231849,-1,-302.5092318,-32768,4201.171875,6592,0,0
-0.009231849,-1,-302.5092318,-32768,4205.078125,6720,0,0
-0.009231849,-1,-302.5092318,-32768,4208.984375,6848,0,0
-0.009231849,-1,-302.5092318,-32768,4212.890625,6976,0,0
-0.009231849,-1,-302.5092318,-32768,4216.796875,7104,0,0
-0.009231849,-1,-302.5092318,-32768,4220.703125,7232,0,0
-0.009231849,-1,-302.5092318,-32768,4224.609375,7360,0,0
-0.009231849,-1,-302.5092318,-32768,4228.515625,7488,0,0
-0.009231849,-1,-302.5092318,-32768,4232.421875,7616,0,0
-0.009231849,-1,-302.5092318,-32768,4236.328125,7744,0,0
-0.009231849,-1,-302.5092318,-32768,4240.234375,7872,0,0
-0.009231849,-1,-302.5092318,-32768,4244.140625,8000,0,0
-0.009231849,-1,-302.5092318,-32768,4248.046875,8128,0,0
-0.009231849,-1,-302.5092318,-32768,4251.953125,8256,0,0
-0.009231849,-1,-302.5092318,-32768,4255.859375,8384,0,0
-0.009231849,-1,-302.5092318,-32768,4259.765625,8512,0,0
-0.009231849,-1,-302.5092318,-32768,4263.671875,8640,0,0
-0.009231849,-1,-302.5092318,-32768,4267.578125,8768,0,0
-0.009231849,-1,-302.5092318,-32768,4271.484375,8896,0,0
-0.009231849,-1,-302.5092318,-32768,4275.390625,9024,0,0
-0.009231849,-1,-302.5092318,-32768,4279.296875,9152,0,0
-0.009231849,-1,-302.5092318,-32768,4283.203125,9280,0,0
-0.009231849,-1,-302.5092318,-32768,4287.109375,9408,0,0
-0.009231849,-1,-302.5092318,-32768,4291.015625,9536,0,0
-0.009231849,-1,-302.5092318,-32768,4294.921875,9664,0,0
-0.009231849,-1,-302.5092318,-32768,4298.828125,9792,0,0
-0.009231849,-1,-302.5092318,-32768,4302.734375,9920,0,0
-0.009231849,-1,-302.5092318,-32768,4306.640625,10048,0,0
-0.009231849,-1,-302.5092318,-32768,4310.546875,10176,0,0
-0.009231849,-1,-302.5092318,-32768,4314.453125,10304,0,0
-0.009231849,-1,-302.5092318,-32768,4318.359375,10432,0,0
-0.009231849,-1,-302.5092318,-32768,4322.265625,10560,0,0
-0.009231849,-1,-302.5092318,-32768,4326.171875,10688,0,0
-0.009231849,-1,-302.5092318,-32768,4330.078125,10816,0,0
-0.009231849,-1,-302.5092318,-32768,4333.984375,10944,0,0
-0.009231849,-1,-302.5092318,-32768,4337.890625,11072,0,0
-0.009231849,-1,-302.5092318,-32768,4341.796875,11200,0,0
-0.009231849,-1,-302.5092318,-32768,4345.703125,11328,0,0
-0.009231849,-1,-302.5092318,-32768,4349.609375,11456,0,0
-0.009231849,-1,-302.5092318,-32768,4353.515625,11584,0,0
-0.009231849,-1,-302.5092318,-32768,4357.421875,11712,0,0
-0.009231849,-1,-302.5092318,-32768,4361.328125,11840,0,0
-0.009231849,-1,-302.5092318,-32768,4365.234375,11968,0,0
-0.009231849,-1,-302.5092318,-32768,4369.140625,12096,0,0
-0.009231849,-1,-302.5092318,-32768,4373.046875,12224,0,0
-0.009231849,-1,-302.5092318,-32768,4376.953125,12352,0,0
-0.009231849,-1,-302.5092318,-32768,4380.859375,12480,0,0
-0.009231849,-1,-302.5092318,-32768,4384.765625,12608,0,0
-0.009231849,-1,-302.5092318,-32768,4388.671875,12736,0,0
-0.009231849,-1,-302.5092318,-32768,4392.578125,12864,0,0
-0.009231849,-1,-302.5092318,-32768,4396.484375,12992,0,0
-0.009231849,-1,-302.5092318,-32768,4400.390625,13120,0,0
-0.009231849,-1,-302.5092318,-32768,4404.296875,13248,0,0
-0.009231849,-1,-302.5092318,-32768,4408.203125,13376,0,0
-0.009231849,-1,-302.5092318,-32768,4412.109375,13504,0,0
-0.009231849,-1,-302.5092318,-32768,4416.015625,13632,0,0
-0.009231849,-1,-302.5092318,-32768,4419.921875,13760,0,0
-0.009231849,-1,-302.5092318,-32768,4423.828125,13888,0,0
-0.009231849,-1,-302.5092318,-32768,4427.734375,14016,0,0
-0.009231849,-1,-302.5092318,-32768,4431.640625,14144,0,0
-0.009231849,-1,-302.5092318,-32768,4435.546875,14272,0,0
-0.009231849,-1,-302.5092318,-32768,4439.453125,14400,0,0
-0.009231849,-1,-302.5092318,-32768,4443.359375,14528,0,0
-0.009231849,-1,-302.5092318,-32768,4447.265625,14656,0,0
-0.009231849,-1,-302.5092318,-32768,4451.171875,14784,0,0
-0.009231849,-1,-302.5092318,-32768,4455.078125,14912,0,0
-0.009231849,-1,-302.5092318,-32768,4458.984375,15040,0,0
-0.009231849,-1,-302.5092318,-32768,4462.890625,15168,0,0
-0.009231849,-1,-302.5092318,-32768,4466.796875,15296,0,0
-0.009231849,-1,-302.5092318,-32768,4470.703125,15424,0,0
-0.009231849,-1,-302.5092318,-32768,4474.609375,15552,0,0
-0.009231849,-1,-302.5092318,-32768,4478.515625,15680,0,0
-0.009231849,-1,-302.5092318,-32768,4482.421875,15808,0,0
-0.009231849,-1,-302.5092318,-32768,4486.328125,15936,0,0
-0.009231849,-1,-302.5092318,-32768,4490.234375,16064,0,0
-0.009231849,-1,-302.5092318,-32768,4494.140625,16192,0,0
-0.009231849,-1,-302.5092318,-32768,4498.046875,16320,0,0
-0.009231849,-1,-302.5092318,-32768,4501.953125,16448,0,0
-0.009231849,-1,-302.5092318,-32768,4505.859375,16576,0,0
-0.009231849,-1,-302.5092318,-32768,4509.765625,16704,0,0
-0.009231849,-1,-302.5092318,-32768,4513.671875,16832,0,0
-0.009231849,-1,-302.5092318,-32768,4517.578125,16960,0,0
-0.009231849,-1,-302.5092318,-32768,4521.484375,17088,0,0
-0.009231849,-1,-302.5092318,-32768,4525.390625,17216,0,0
-0.009231849,-1,-302.5092318,-32768,4529.296875,17344,0,0
-0.009231849,-1,-302.5092318,-32768,4533.203125,17472,0,0
-0.009231849,-1,-302.5092318,-32768,4537.109375,17600,0,0
-0.009231849,-1,-302.5092318,-32768,4541.015625,17728,0,0
-0.009231849,-1,-302.5092318,-32768,4544.921875,17856,0,0
-0.009231849,-1,-302.5092318,-32768,4548.828125,17984,0,0
-0.009231849,-1,-302.5092318,-32768,4552.734375,18112,0,0
-0.009231849,-1,-302.5092318,-32768,4556.640625,18240,0,0
-0.009231849,-1,-302.5092318,-32768,4560.546875,18368,0,0
-0.009231849,-1,-302.5092318,-32768,4564.453125,18496,0,0
-0.009231849,-1,-302.5092318,-32768,4568.359375,18624,0,0
-0.009231849,-1,-302.5092318,-32768,4572.265625,18752,0,0
-0.009231849,-1,-302.5092318,-32768,4576.171875,18880,0,0
-0.009231849,-1,-302.5092318,-32768,4580.078125,19008,0,0
-0.009231849,-1,-302.5092318,-32768,4583.984375,19136,0,0
-0.009231849,-1,-302.5092318,-32768,4587.890625,19264,0,0
-0.009231849,-1,-302.5092318,-32768,4591.796875,19392,0,0
-0.009231849,-1,-302.5092318,-32768,4595.703125,19520,0,0
-0.009231849,-1,-302.5092318,-32768,4599.609375,19648,0,0
-0.009231849,-1,-302.5092318,-32768,4603.515625,19776,0,0
-0.009231849,-1,-302.5092318,-32768,4607.421875,19904,0,0
-0.009231849,-1,-302.5092318,-32768,4611.328125,20032,0,0
-0.009231849,-1,-302.5092318,-32768,4615.234375,20160,0,0
-0.009231849,-1,-302.5092318,-32768,4619.140625,20288,0,0
-0.009231849,-1,-302.5092318,-32768,4623.046875,20416,0,0
-0.009231849,-1,-302.5092318,-32768,4626.953125,20544,0,0
-0.009231849,-1,-302.5092318,-32768,4630.859375,20672,0,0
-0.009231849,-1,-302.5092318,-32768,4634.765625,20800,0,0
-0.009231849,-1,-302.5092318,-32768,4638.671875,20928,0,0
-0.009231849,-1,-302.5092318,-32768,4642.578125,21056,0,0
-0.009231849,-1,-302.5092318,-32768,4646.484375,21184,0,0
-0.009231849,-1,-302.5092318,-32768,4650.390625,21312,0,0
-0.009231849,-1,-302.5092318,-32768,4654.296875,21440,0,0
-0.009231849,-1,-302.5092318,-32768,4658.203125,21568,0,0
-0.009231849,-1,-302.5092318,-32768,4662.109375,21696,0,0
-0.009231849,-1,-302.5092318,-32768,4666.015625,21824,0,0
-0.009231849,-1,-302.5092318,-32768,4669.921875,21952,0,0
-0.009231849,-1,-302.5092318,-32768,4673.828125,22080,0,0
-0.009231849,-1,-302.5092318,-32768,4677.734375,22208,0,0
-0.009231849,-1,-302.5092318,-32768,4681.640625,22336,0,0
-0.009231849,-1,-302.5092318,-32768,4685.546875,22464,0,0
-0.009231849,-1,-302.5092318,-32768,4689.453125,22592,0,0
-0.009231849,-1,-302.5092318,-32768,4693.359375,22720,0,0
-0.009231849,-1,-302.5092318,-32768,4697.265625,22848,0,0
-0.009231849,-1,-302.5092318,-32768,4701.171875,22976,0,0
-0.009231849,-1,-302.5092318,-32768,4705.078125,23104,0,0
-0.009231849,-1,-302.5092318,-32768,4708.984375,23232,0,0
-0.009231849,-1,-302.5092318,-32768,4712.890625,23360,0,0
-0.009231849,-1,-302.5092318,-32768,4716.796875,23488,0,0
-0.009231849,-1,-302.5092318,-32768,4720.703125,23616,0,0
-0.009231849,-1,-302.5092318,-32768,4724.609375,23744,0,0
-0.009231849,-1,-302.5092318,-32768,4728.515625,23872,0,0
-0.009231849,-1,-302.5092318,-32768,4732.421875,24000,0,0
-0.009231849,-1,-302.5092318,-32768,4736.328125,24128,0,0
-0.009231849,-1,-302.5092318,-32768,4740.234375,24256,0,0
-0.009231849,-1,-302.5092318,-32768,4744.140625,24384,0,0
-0.009231849,-1,-302.5092318,-32768,4748.046875,24512,0,0
-0.009231849,-1,-302.5092318,-32768,4751.953125,24640,0,0
-0.009231849,-1,-302.5092318,-32768,4755.859375,24768,0,0
-0.009231849,-1,-302.5092318,-32768,4759.765625,24896,0,0
-0.009231849,-1,-302.5092318,-32768,4763.671875,25024,0,0
-0.009231849,-1,-302.5092318,-32768,4767.578125,25152,0,0
-0.009231849,-1,-302.5092318,-32768,4771.484375,25280,0,0
-0.009231849,-1,-302.5092318,-32768,4775.390625,25408,0,0
-0.009231849,-1,-302.5092318,-32768,4779.296875,25536,0,0
-0.009231849,-1,-302.5092318,-32768,4783.203125,25664,0,0
-0.009231849,-1,-302.5092318,-32768,4787.109375,25792,0,0
-0.009231849,-1,-302.5092318,-32768,4791.015625,25920,0,0
-0.009231849,-1,-302.5092318,-32768,4794.921875,26048,0,0
-0.009231849,-1,-302.5092318,-32768,4798.828125,26176,0,0
-0.009231849,-1,-302.5092318,-32768,4802.734375,26304,0,0
-0.009231849,-1,-302.5092318,-32768,4806.640625,26432,0,0
-0.009231849,-1,-302.5092318,-32768,4810.546875,26560,0,0
-0.009231849,-1,-302.5092318,-32768,4814.453125,26688,0,0
-0.009231849,-1,-302.5092318,-32768,4818.359375,26816,0,0
-0.009231849,-1,-302.5092318,-32768,4822.265625,26944,0,0
-0.009231849,-1,-302.5092318,-32768,4826.171875,27072,0,0
-0.009231849,-1,-302.5092318,-32768,4830.078125,27200,0,0
-0.009231849,-1,-302.5092318,-32768,4833.984375,27328,0,0
-0.009231849,-1,-302.5092318,-32768,4837.890625,27456,0,0
-0.009231849,-1,-302.5092318,-32768,4841.796875,27584,0,0
-0.009231849,-1,-302.5092318,-32768,4845.703125,27712,0,0
-0.009231849,-1,-302.5092318,-32768,4849.609375,27840,0,0
-0.009231849,-1,-302.5092318,-32768,4853.515625,27968,0,0
-0.009231849,-1,-302.5092318,-32768,4857.421875,28096,0,0
-0.009231849,-1,-302.5092318,-32768,4861.328125,28224,0,0
-0.009231849,-1,-302.5092318,-32768,4865.234375,28352,0,0
-0.009231849,-1,-302.5092318,-32768,4869.140625,28480,0,0
-0.009231849,-1,-302.5092318,-32768,4873.046875,28608,0,0
-0.009231849,-1,-302.5092318,-32768,4876.953125,28736,0,0
-0.009231849,-1,-302.5092318,-32768,4880.859375,28864,0,0
-0.009231849,-1,-302.5092318,-32768,4884.765625,28992,0,0
-0.009231849,-1,-302.5092318,-32768,4888.671875,29120,0,0
-0.009231849,-1,-302.5092318,-32768,4892.578125,29248,0,0
-0.009231849,-1,-302.5092318,-32768,4896.484375,29376,0,0
-0.009231849,-1,-302.5092318,-32768,4900.390625,29504,0,0
-0.009231849,-1,-302.5092318,-32768,4904.296875,29632,0,0
-0.009231849,-1,-302.5092318,-32768,4908.203125,29760,0,0
-0.009231849,-1,-302.5092318,-32768,4912.109375,29888,0,0
-0.009231849,-1,-302.5092318,-32768,4916.015625,30016,0,0
-0.009231849,-1,-302.5092318,-32768,4919.921875,30144,0,0
-0.009231849,-1,-302.5092318,-32768,4923.828125,30272,0,0
-0.009231849,-1,-302.5092318,-32768,4927.734375,30400,0,0
-0.009231849,-1,-302.5092318,-32768,4931.640625,30528,0,0
-0.009231849,-1,-302.5092318,-32768,4935.546875,30656,0,0
-0.009231849,-1,-302.5092318,-32768,4939.453125,30784,0,0
-0.009231849,-1,-302.5092318,-32768,4943.359375,30912,0,0
-0.009231849,-1,-302.5092318,-32768,4947.265625,31040,0,0
-0.009231849,-1,-302.5092318,-32768,4951.171875,31168,0,0
-0.009231849,-1,-302.5092318,-32768,4955.078125,31296,0,0
-0.009231849,-1,-302.5092318,-32768,4958.984375,31424,0,0
-0.009231849,-1,-302.5092318,-32768,4962.890625,31552,0,0
-0.009231849,-1,-302.5092318,-32768,4966.796875,31680,0,0
-0.009231849,-1,-302.5092318,-32768,4970.703125,31808,0,0
-0.009231849,-1,-302.5092318,-32768,4974.609375,31936,0,0
-0.009231849,-1,-302.5092318,-32768,4978.515625,32064,0,0
-0.009231849,-1,-302.5092318,-32768,4982.421875,32192,0,0
2.354121525,255,-1.181676687,-128,4986.328125,32320,-2.363353374,-256
0,0,0,0,4998.046875,32704,-302.5092318,-32768
-2.363353374,-256,0.027695547,3,5001.953125,32832,3.545030061,384
-0.009231849,-1,0,0,5005.859375,32960,0,0
-0.009231849,-1,-302.5092318,-32768,5009.765625,33088,0,0
-0.009231849,-1,-302.5092318,-32768,5013.671875,33216,0,0
-0.009231849,-1,-302.5092318,-32768,5017.578125,33344,0,0
-0.009231849,-1,-302.5092318,-32768,5021.484375,33472,0,0
-0.009231849,-1,-302.5092318,-32768,5025.390625,33600,0,0
-0.009231849,-1,-302.5092318,-32768,5029.296875,33728,0,0
-0.009231849,-1,-302.5092318,-32768,5033.203125,33856,0,0
-0.009231849,-1,-302.5092318,-32768,5037.109375,33984,0,0
-0.009231849,-1,-302.5092318,-32768,5041.015625,34112,0,0
-0.009231849,-1,-302.5092318,-32768,5044.921875,34240,0,0
-0.009231849,-1,-302.5092318,-32768,5048.828125,34368,0,0
-0.009231849,-1,-302.5092318,-32768,5052.734375,34496,0,0
-0.009231849,-1,-302.5092318,-32768,5056.640625,34624,0,0
-0.009231849,-1,-302.5092318,-32768,5060.546875,34752,0,0
-0.009231849,-1,-302.5092318,-32768,5064.453125,34880,0,0
-0.009231849,-1,-302.5092318,-32768,5068.359375,35008,0,0
-0.009231849,-1,-302.5092318,-32768,5072.265625,35136,0,0
-0.009231849,-1,-302.5092318,-32768,5076.171875,35264,0,0
-0.009231849,-1,-302.5092318,-32768,5080.078125,35392,0,0
-0.009231849,-1,-302.5092318,-32768,5083.984375,35520,0,0
-0.009231849,-1,-302.5092318,-32768,5087.890625,35648,0,0
-0.009231849,-1,-302.5092318,-32768,5091.796875,35776,0,0
-0.009231849,-1,-302.5092318,-32768,5095.703125,35904,0,0
-0.009231849,-1,-302.5092318,-32768,5099.609375,36032,0,0
-0.009231849,-1,-302.5092318,-32768,5103.515625,36160,0,0
-0.009231849,-1,-302.5092318,-32768,5107.421875,36288,0,0
-0.009231849,-1,-302.5092318,-32768,5111.328125,36416,0,0
-0.009231849,-1,-302.5092318,-32768,5115.234375,36544,0,0
-0.009231849,-1,-302.5092318,-32768,5119.140625,36672,0,0
-0.009231849,-1,-302.5092318,-32768,5123.046875,36800,0,0
-0.009231849,-1,-302.5092318,-32768,5126.953125,36928,0,0
-0.009231849,-1,-302.5092318,-32768,5130.859375,37056,0,0
-0.009231849,-1,-302.5092318,-32768,5134.765625,37184,0,0
-0.009231849,-1,-302.5092318,-32768,5138.671875,37312,0,0
-0.009231849,-1,-302.5092318,-32768,5142.578125,37440,0,0
-0.009231849,-1,-302.5092318,-32768,5146.484375,37568,0,0
-0.009231849,-1,-302.5092318,-32768,5150.390625,37696,0,0
-0.009231849,-1,-302.5092318,-32768,5154.296875,37824,0,0
-0.009231849,-1,-302.5092318,-32768,5158.203125,37952,0,0
-0.009231849,-1,-302.5092318,-32768,5162.109375,38080,0,0
-0.009231849,-1,-302.5092318,-32768,5166.015625,38208,0,0
-0.009231849,-1,-302.5092318,-32768,5169.921875,38336,0,0
-0.009231849,-1,-302.5092318,-32768,5173.828125,38464,0,0
-0.009231849,-1,-302.5092318,-32768,5177.734375,38592,0,0
-0.009231849,-1,-302.5092318,-32768,5181.640625,38720,0,0
-0.009231849,-1,-302.5092318,-32768,5185.546875,38848,0,0
-0.009231849,-1,-302.5092318,-32768,5189.453125,38976,0,0
-0.009231849,-1,-302.5092318,-32768,5193.359375,39104,0,0
-0.009231849,-1,-302.5092318,-32768,5197.265625,39232,0,0
-0.009231849,-1,-302.5092318,-32768,5201.171875,39360,0,0
-0.009231849,-1,-302.5092318,-32768,5205.078125,39488,0,0
-0.009231849,-1,-302.5092318,-32768,5208.984375,39616,0,0
-0.009231849,-1,-302.5092318,-32768,5212.890625,39744,0,0
-0.009231849,-1,-302.5092318,-32768,5216.796875,39872,0,0
-0.009231849,-1,-302.5092318,-32768,5220.703125,40000,0,0
-0.009231849,-1,-302.5092318,-32768,5224.609375,40128,0,0
-0.009231849,-1,-302.5092318,-32768,5228.515625,40256,0,0
-0.009231849,-1,-302.5092318,-32768,5232.421875,40384,0,0
-0.009231849,-1,-302.5092318,-32768,5236.328125,40512,0,0
-0.009231849,-1,-302.5092318,-32768,5240.234375,40640,0,0
-0.009231849,-1,-302.5092318,-32768,5244.140625,40768,0,0
-0.009231849,-1,-302.5092318,-32768,5248.046875,40896,0,0
-0.009231849,-1,-302.5092318,-32768,5251.953125,41024,0,0
-0.009231849,-1,-302.5092318,-32768,5255.859375,41152,0,0
-0.009231849,-1,-302.5092318,-32768,5259.765625,41280,0,0
-0.009231849,-1,-302.5092318,-32768,5263.671875,41408,0,0
-0.009231849,-1,-302.5092318,-32768,5267.578125,41536,0,0
-0.009231849,-1,-302.5092318,-32768,5271.484375,41664,0,0
-0.009231849,-1,-302.5092318,-32768,5275.390625,41792,0,0
-0.009231849,-1,-302.5092318,-32768,5279.296875,41920,0,0
-0.009231849,-1,-302.5092318,-32768,5283.203125,42048,0,0
-0.009231849,-1,-302.5092318,-32768,5287.109375,42176,0,0
-0.009231849,-1,-302.5092318,-32768,5291.015625,42304,0,0
-0.009231849,-1,-302.5092318,-32768,5294.921875,42432,0,0
-0.009231849,-1,-302.5092318,-32768,5298.828125,42560,0,0
-0.009231849,-1,-302.5092318,-32768,5302.734375,42688,0,0
-0.009231849,-1,-302.5092318,-32768,5306.640625,42816,0,0
-0.009231849,-1,-302.5092318,-32768,5310.546875,42944,0,0
-0.009231849,-1,-302.5092318,-32768,5314.453125,43072,0,0
-0.009231849,-1,-302.5092318,-32768,5318.359375,43200,0,0
-0.009231849,-1,-302.5092318,-32768,5322.265625,43328,0,0
-0.009231849,-1,-302.5092318,-32768,5326.171875,43456,0,0
-0.009231849,-1,-302.5092318,-32768,5330.078125,43584,0,0
-0.009231849,-1,-302.5092318,-32768,5333.984375,43712,0,0
-0.009231849,-1,-302.5092318,-32768,5337.890625,43840,0,0
-0.009231849,-1,-302.5092318,-32768,5341.796875,43968,0,0
-0.009231849,-1,-302.5092318,-32768,5345.703125,44096,0,0
-0.009231849,-1,-302.5092318,-32768,5349.609375,44224,0,0
-0.009231849,-1,-302.5092318,-32768,5353.515625,44352,0,0
-0.009231849,-1,-302.5092318,-32768,5357.421875,44480,0,0
-0.009231849,-1,-302.5092318,-32768,5361.328125,44608,0,0
-0.009231849,-1,-302.5092318,-32768,5365.234375,44736,0,0
-0.009231849,-1,-302.5092318,-32768,5369.140625,44864,0,0
-0.009231849,-1,-302.5092318,-32768,5373.046875,44992,0,0
-0.009231849,-1,-302.5092318,-32768,5376.953125,45120,0,0
-0.009231849,-1,-302.5092318,-32768,5380.859375,45248,0,0
-0.009231849,-1,-302.5092318,-32768,5384.765625,45376,0,0
-0.009231849,-1,-302.5092318,-32768,5388.671875,45504,0,0
-0.009231849,-1,-302.5092318,-32768,5392.578125,45632,0,0
-0.009231849,-1,-302.5092318,-32768,5396.484375,45760,0,0
-0.009231849,-1,-302.5092318,-32768,5400.390625,45888,0,0
-0.009231849,-1,-302.5092318,-32768,5404.296875,46016,0,0
-0.009231849,-1,-302.5092318,-32768,5408.203125,46144,0,0
-0.009231849,-1,-302.5092318,-32768,5412.109375,46272,0,0
-0.009231849,-1,-302.5092318,-32768,5416.015625,46400,0,0
-0.009231849,-1,-302.5092318,-32768,5419.921875,46528,0,0
-0.009231849,-1,-302.5092318,-32768,5423.828125,46656,0,0
-0.009231849,-1,-302.5092318,-32768,5427.734375,46784,0,0
-0.009231849,-1,-302.5092318,-32768,5431.640625,46912,0,0
-0.009231849,-1,-302.5092318,-32768,5435.546875,47040,0,0
-0.009231849,-1,-302.5092318,-32768,5439.453125,47168,0,0
-0.009231849,-1,-302.5092318,-32768,5443.359375,47296,0,0
-0.009231849,-1,-302.5092318,-32768,5447.265625,47424,0,0
-0.009231849,-1,-302.5092318,-32768,5451.171875,47552,0,0
-0.009231849,-1,-302.5092318,-32768,5455.078125,47680,0,0
-0.009231849,-1,-302.5092318,-32768,5458.984375,47808,0,0
-0.009231849,-1,-302.5092318,-32768,5462.890625,47936,0,0
-0.009231849,-1,-302.5092318,-32768,5466.796875,48064,0,0
-0.009231849,-1,-302.5092318,-32768,5470.703125,48192,0,0
-0.009231849,-1,-302.5092318,-32768,5474.609375,48320,0,0
-0.009231849,-1,-302.5092318,-32768,5478.515625,48448,0,0
-0.009231849,-1,-302.5092318,-32768,5482.421875,48576,0,0
-0.009231849,-1,-302.5092318,-32768,5486.328125,48704,0,0
-0.009231849,-1,-302.5092318,-32768,5490.234375,48832,0,0
-0.009231849,-1,-302.5092318,-32768,5494.140625,48960,0,0
-0.009231849,-1,-302.5092318,-32768,5498.046875,49088,0,0
-0.009231849,-1,-302.5092318,-32768,5501.953125,49216,0,0
-0.009231849,-1,-302.5092318,-32768,5505.859375,49344,0,0
-0.009231849,-1,-302.5092318,-32768,5509.765625,49472,0,0
-0.009231849,-1,-302.5092318,-32768,5513.671875,49600,0,0
-0.009231849,-1,-302.5092318,-32768,5517.578125,49728,0,0
-0.009231849,-1,-302.5092318,-32768,5521.484375,49856,0,0
-0.009231849,-1,-302.5092318,-32768,5525.390625,49984,0,0
-0.009231849,-1,-302.5092318,-32768,5529.296875,50112,0,0
-0.009231849,-1,-302.5092318,-32768,5533.203125,50240,0,0
-0.009231849,-1,-302.5092318,-32768,5537.109375,50368,0,0
-0.009231849,-1,-302.5092318,-32768,5541.015625,50496,0,0
-0.009231849,-1,-302.5092318,-32768,5544.921875,50624,0,0
-0.009231849,-1,-302.5092318,-32768,5548.828125,50752,0,0
-0.009231849,-1,-302.5092318,-32768,5552.734375,50880,0,0
-0.009231849,-1,-302.5092318,-32768,5556.640625,51008,0,0
-0.009231849,-1,-302.5092318,-32768,5560.546875,51136,0,0
-0.009231849,-1,-302.5092318,-32768,5564.453125,51264,0,0
-0.009231849,-1,-302.5092318,-32768,5568.359375,51392,0,0
-0.009231849,-1,-302.5092318,-32768,5572.265625,51520,0,0
-0.009231849,-1,-302.5092318,-32768,5576.171875,51648,0,0
-0.009231849,-1,-302.5092318,-32768,5580.078125,51776,0,0
-0.009231849,-1,-302.5092318,-32768,5583.984375,51904,0,0
-0.009231849,-1,-302.5092318,-32768,5587.890625,52032,0,0
-0.009231849,-1,-302.5092318,-32768,5591.796875,52160,0,0
-0.009231849,-1,-302.5092318,-32768,5595.703125,52288,0,0
-0.009231849,-1,-302.5092318,-32768,5599.609375,52416,0,0
-0.009231849,-1,-302.5092318,-32768,5603.515625,52544,0,0
-0.009231849,-1,-302.5092318,-32768,5607.421875,52672,0,0
-0.009231849,-1,-302.5092318,-32768,5611.328125,52800,0,0
-0.009231849,-1,-302.5092318,-32768,5615.234375,52928,0,0
-0.009231849,-1,-302.5092318,-32768,5619.140625,53056,0,0
-0.009231849,-1,-302.5092318,-32768,5623.046875,53184,0,0
-0.009231849,-1,-302.5092318,-32768,5626.953125,53312,0,0
-0.009231849,-1,-302.5092318,-32768,5630.859375,53440,0,0
-0.009231849,-1,-302.5092318,-32768,5634.765625,53568,0,0
-0.009231849,-1,-302.5092318,-32768,5638.671875,53696,0,0
-0.009231849,-1,-302.5092318,-32768,5642.578125,53824,0,0
-0.009231849,-1,-302.5092318,-32768,5646.484375,53952,0,0
-0.009231849,-1,-302.5092318,-32768,5650.390625,54080,0,0
-0.009231849,-1,-302.5092318,-32768,5654.296875,54208,0,0
-0.009231849,-1,-302.5092318,-32768,5658.203125,54336,0,0
-0.009231849,-1,-302.5092318,-32768,5662.109375,54464,0,0
-0.009231849,-1,-302.5092318,-32768,5666.015625,54592,0,0
-0.009231849,-1,-302.5092318,-32768,5669.921875,54720,0,0
-0.009231849,-1,-302.5092318,-32768,5673.828125,54848,0,0
-0.009231849,-1,-302.5092318,-32768,5677.734375,54976,0,0
-0.009231849,-1,-302.5092318,-32768,5681.640625,55104,0,0
-0.009231849,-1,-302.5092318,-32768,5685.546875,55232,0,0
-0.009231849,-1,-302.5092318,-32768,5689.453125,55360,0,0
-0.009231849,-1,-302.5092318,-32768,5693.359375,55488,0,0
-0.009231849,-1,-302.5092318,-32768,5697.265625,55616,0,0
-0.009231849,-1,-302.5092318,-32768,5701.171875,55744,0,0
-0.009231849,-1,-302.5092318,-32768,5705.078125,55872,0,0
-0.009231849,-1,-302.5092318,-32768,5708.984375,56000,0,0
-0.009231849,-1,-302.5092318,-32768,5712.890625,56128,0,0
-0.009231849,-1,-302.5092318,-32768,5716.796875,56256,0,0
-0.009231849,-1,-302.5092318,-32768,5720.703125,56384,0,0
-0.009231849,-1,-302.5092318,-32768,5724.609375,56512,0,0
-0.009231849,-1,-302.5092318,-32768,5728.515625,56640,0,0
-0.009231849,-1,-302.5092318,-32768,5732.421875,56768,0,0
-0.009231849,-1,-302.5092318,-32768,5736.328125,56896,0,0
-0.009231849,-1,-302.5092318,-32768,5740.234375,57024,0,0
-0.009231849,-1,-302.5092318,-32768,5744.140625,57152,0,0
-0.009231849,-1,-302.5092318,-32768,5748.046875,57280,0,0
-0.009231849,-1,-302.5092318,-32768,5751.953125,57408,0,0
-0.009231849,-1,-302.5092318,-32768,5755.859375,57536,0,0
-0.009231849,-1,-302.5092318,-32768,5759.765625,57664,0,0
-0.009231849,-1,-302.5092318,-32768,5763.671875,57792,0,0
-0.009231849,-1,-302.5092318,-32768,5767.578125,57920,0,0
-0.009231849,-1,-302.5092318,-32768,5771.484375,58048,0,0
-0.009231849,-1,-302.5092318,-32768,5775.390625,58176,0,0
-0.009231849,-1,-302.5092318,-32768,5779.296875,58304,0,0
-0.009231849,-1,-302.5092318,-32768,5783.203125,58432,0,0
-0.009231849,-1,-302.5092318,-32768,5787.109375,58560,0,0
-0.009231849,-1,-302.5092318,-32768,5791.015625,58688,0,0
-0.009231849,-1,-302.5092318,-32768,5794.921875,58816,0,0
-0.009231849,-1,-302.5092318,-32768,5798.828125,58944,0,0
-0.009231849,-1,-302.5092318,-32768,5802.734375,59072,0,0
-0.009231849,-1,-302.5092318,-32768,5806.640625,59200,0,0
-0.009231849,-1,-302.5092318,-32768,5810.546875,59328,0,0
-0.009231849,-1,-302.5092318,-32768,5814.453125,59456,0,0
-0.009231849,-1,-302.5092318,-32768,5818.359375,59584,0,0
-0.009231849,-1,-302.5092318,-32768,5822.265625,59712,0,0
0,0,-0.009231849,-1,5826.171875,59840,-0.009231849,-1
0,0,9.444181646,1023,5830.078125,59968,-0.009231849,-1
0.009231849,1,0,0,5833.984375,60096,0,0
0,0,4.726706748,512,5837.890625,60224,-302.5092318,-32768
0,0,0,0,5841.796875,60352,-302.5092318,-32768
-0.009231849,-1,-302.5092318,-32768,5845.703125,60480,0,0
-0.009231849,-1,-302.5092318,-32768,5849.609375,60608,0,0
-0.009231849,-1,-302.5092318,-32768,5853.515625,60736,0,0
-0.009231849,-1,-302.5092318,-32768,5857.421875,60864,0,0
-0.009231849,-1,-302.5092318,-32768,5861.328125,60992,0,0
-0.009231849,-1,-302.5092318,-32768,5865.234375,61120,0,0
-0.009231849,-1,-302.5092318,-32768,5869.140625,61248,0,0
-0.009231849,-1,-302.5092318,-32768,5873.046875,61376,0,0
-0.009231849,-1,-302.5092318,-32768,5876.953125,61504,0,0
-0.009231849,-1,-302.5092318,-32768,5880.859375,61632,0,0
-0.009231849,-1,-302.5092318,-32768,5884.765625,61760,0,0
-0.009231849,-1,-302.5092318,-32768,5888.671875,61888,0,0
-0.009231849,-1,-302.5092318,-32768,5892.578125,62016,0,0
-0.009231849,-1,-302.5092318,-32768,5896.484375,62144,0,0
-0.009231849,-1,-302.5092318,-32768,5900.390625,62272,0,0
-0.009231849,-1,-302.5092318,-32768,5904.296875,62400,0,0
-0.009231849,-1,-302.5092318,-32768,5908.203125,62528,0,0
-0.009231849,-1,-302.5092318,-32768,5912.109375,62656,0,0
-0.009231849,-1,-302.5092318,-32768,5916.015625,62784,0,0
-0.009231849,-1,-302.5092318,-32768,5919.921875,62912,0,0
-0.009231849,-1,-302.5092318,-32768,5923.828125,63040,0,0
-0.009231849,-1,-302.5092318,-32768,5927.734375,63168,0,0
-0.009231849,-1,-302.5092318,-32768,5931.640625,63296,0,0
-0.009231849,-1,-302.5092318,-32768,5935.546875,63424,0,0
-0.009231849,-1,-302.5092318,-32768,5939.453125,63552,0,0
-0.009231849,-1,-302.5092318,-32768,5943.359375,63680,0,0
-0.009231849,-1,-302.5092318,-32768,5947.265625,63808,0,0
-0.009231849,-1,-302.5092318,-32768,5951.171875,63936,0,0
-0.009231849,-1,-302.5092318,-32768,5955.078125,64064,0,0
-0.009231849,-1,-302.5092318,-32768,5958.984375,64192,0,0
-0.009231849,-1,-302.5092318,-32768,5962.890625,64320,0,0
-0.009231849,-1,-302.5092318,-32768,5966.796875,64448,0,0
-0.009231849,-1,-302.5092318,-32768,5970.703125,64576,0,0
-0.009231849,-1,-302.5092318,-32768,5974.609375,64704,0,0
-0.009231849,-1,-302.5092318,-32768,5978.515625,64832,0,0
-0.009231849,-1,-302.5092318,-32768,5982.421875,64960,0,0
-0.009231849,-1,-302.5092318,-32768,5986.328125,65088,0,0
-0.009231849,-1,-302.5092318,-32768,5990.234375,65216,0,0
-0.009231849,-1,-302.5092318,-32768,5994.140625,65344,0,0
-0.009231849,-1,-302.5092318,-32768,5998.046875,65472,0,0
-0.009231849,-1,-302.5092318,-32768,6001.953125,64,0,0
-0.009231849,-1,-302.5092318,-32768,6005.859375,192,0,0
-0.009231849,-1,-302.5092318,-32768,6009.765625,320,0,0
-0.009231849,-1,-302.5092318,-32768,6013.671875,448,0,0
-0.009231849,-1,-302.5092318,-32768,6017.578125,576,0,0
-0.009231849,-1,-302.5092318,-32768,6021.484375,704,0,0
-0.009231849,-1,-302.5092318,-32768,6025.390625,832,0,0
-0.009231849,-1,-302.5092318,-32768,6029.296875,960,0,0
-0.009231849,-1,-302.5092318,-32768,6033.203125,1088,0,0
-0.009231849,-1,-302.5092318,-32768,6037.109375,1216,0,0
-0.009231849,-1,-302.5092318,-32768,6041.015625,1344,0,0
-0.009231849,-1,-302.5092318,-32768,6044.921875,1472,0,0
-0.009231849,-1,-302.5092318,-32768,6048.828125,1600,0,0
-0.009231849,-1,-302.5092318,-32768,6052.734375,1728,0,0
-0.009231849,-1,-302.5092318,-32768,6056.640625,1856,0,0
-0.009231849,-1,-302.5092318,-32768,6060.546875,1984,0,0
-0.009231849,-1,-302.5092318,-32768,6064.453125,2112,0,0
-0.009231849,-1,-302.5092318,-32768,6068.359375,2240,0,0
-0.009231849,-1,-302.5092318,-32768,6072.265625,2368,0,0
-0.009231849,-1,-302.5092318,-32768,6076.171875,2496,0,0
-0.009231849,-1,-302.5092318,-32768,6080.078125,2624,0,0
-0.009231849,-1,-302.5092318,-32768,6083.984375,2752,0,0
-0.009231849,-1,-302.5092318,-32768,6087.890625,2880,0,0
-0.009231849,-1,-302.5092318,-32768,6091.796875,3008,0,0
-0.009231849,-1,-302.5092318,-32768,6095.703125,3136,0,0
-0.009231849,-1,-302.5092318,-32768,6099.609375,3264,0,0
-0.009231849,-1,-302.5092318,-32768,6103.515625,3392,0,0
-0.009231849,-1,-302.5092318,-32768,6107.421875,3520,0,0
-0.009231849,-1,-302.5092318,-32768,6111.328125,3648,0,0
-0.009231849,-1,-302.5092318,-32768,6115.234375,3776,0,0
-0.009231849,-1,-302.5092318,-32768,6119.140625,3904,0,0
-0.009231849,-1,-302.5092318,-32768,6123.046875,4032,0,0
-0.009231849,-1,-302.5092318,-32768,6126.953125,4160,0,0
-0.009231849,-1,-302.5092318,-32768,6130.859375,4288,0,0
-0.009231849,-1,-302.5092318,-32768,6134.765625,4416,0,0
-0.009231849,-1,-302.5092318,-32768,6138.671875,4544,0,0
-0.009231849,-1,-302.5092318,-32768,6142.578125,4672,0,0
-0.009231849,-1,-302.5092318,-32768,6146.484375,4800,0,0
-0.009231849,-1,-302.5092318,-32768,6150.390625,4928,0,0
-0.009231849,-1,-302.5092318,-32768,6154.296875,5056,0,0
-0.009231849,-1,-302.5092318,-32768,6158.203125,5184,0,0
-0.009231849,-1,-302.5092318,-32768,6162.109375,5312,0,0
-0.009231849,-1,-302.5092318,-32768,6166.015625,5440,0,0
-0.009231849,-1,-302.5092318,-32768,6169.921875,5568,0,0
-0.009231849,-1,-302.5092318,-32768,6173.828125,5696,0,0
-0.009231849,-1,-302.5092318,-32768,6177.734375,5824,0,0
-0.009231849,-1,-302.5092318,-32768,6181.640625,5952,0,0
-0.009231849,-1,-302.5092318,-32768,6185.546875,6080,0,0
-0.009231849,-1,-302.5092318,-32768,6189.453125,6208,0,0
-0.009231849,-1,-302.5092318,-32768,6193.359375,6336,0,0
-0.009231849,-1,-302.5092318,-32768,6197.265625,6464,0,0
-0.009231849,-1,-302.5092318,-32768,6201.171875,6592,0,0
-0.009231849,-1,-302.5092318,-32768,6205.078125,6720,0,0
-0.009231849,-1,-302.5092318,-32768,6208.984375,6848,0,0
-0.009231849,-1,-302.5092318,-32768,6212.890625,6976,0,0
-0.009231849,-1,-302.5092318,-32768,6216.796875,7104,0,0
-0.009231849,-1,-302.5092318,-32768,6220.703125,7232,0,0
-0.009231849,-1,-302.5092318,-32768,6224.609375,7360,0,0
-0.009231849,-1,-302.5092318,-32768,6228.515625,7488,0,0
-0.009231849,-1,-302.5092318,-32768,6232.421875,7616,0,0
-0.009231849,-1,-302.5092318,-32768,6236.328125,7744,0,0
-0.009231849,-1,-302.5092318,-32768,6240.234375,7872,0,0
-0.009231849,-1,-302.5092318,-32768,6244.140625,8000,0,0
-0.009231849,-1,-302.5092318,-32768,6248.046875,8128,0,0
-0.009231849,-1,-302.5092318,-32768,6251.953125,8256,0,0
-0.009231849,-1,-302.5092318,-32768,6255.859375,8384,0,0
-0.009231849,-1,-302.5092318,-32768,6259.765625,8512,0,0
-0.009231849,-1,-302.5092318,-32768,6263.671875,8640,0,0
-0.009231849,-1,-302.5092318,-32768,6267.578125,8768,0,0
-0.009231849,-1,-302.5092318,-32768,6271.484375,8896,0,0
-0.009231849,-1,-302.5092318,-32768,6275.390625,9024,0,0
-0.009231849,-1,-302.5092318,-32768,6279.296875,9152,0,0
-0.009231849,-1,-302.5092318,-32768,6283.203125,9280,0,0
-0.009231849,-1,-302.5092318,-32768,6287.109375,9408,0,0
-0.009231849,-1,-302.5092318,-32768,6291.015625,9536,0,0
-0.009231849,-1,-302.5092318,-32768,6294.921875,9664,0,0
-0.009231849,-1,-302.5092318,-32768,6298.828125,9792,0,0
-0.009231849,-1,-302.5092318,-32768,6302.734375,9920,0,0
-0.009231849,-1,-302.5092318,-32768,6306.640625,10048,0,0
-0.009231849,-1,-302.5092318,-32768,6310.546875,10176,0,0
-0.009231849,-1,-302.5092318,-32768,6314.453125,10304,0,0
-0.009231849,-1,-302.5092318,-32768,6318.359375,10432,0,0
-0.009231849,-1,-302.5092318,-32768,6322.265625,10560,0,0
-0.009231849,-1,-302.5092318,-32768,6326.171875,10688,0,0
-0.009231849,-1,-302.5092318,-32768,6330.078125,10816,0,0
-0.009231849,-1,-302.5092318,-32768,6333.984375,10944,0,0
-0.009231849,-1,-302.5092318,-32768,6337.890625,11072,0,0
-0.009231849,-1,-302.5092318,-32768,6341.796875,11200,0,0
-0.009231849,-1,-302.5092318,-32768,6345.703125,11328,0,0
-0.009231849,-1,-302.5092318,-32768,6349.609375,11456,0,0
-0.009231849,-1,-302.5092318,-32768,6353.515625,11584,0,0
-0.009231849,-1,-302.5092318,-32768,6357.421875,11712,0,0
-0.009231849,-1,-302.5092318,-32768,6361.328125,11840,0,0
-0.009231849,-1,-302.5092318,-32768,6365.234375,11968,0,0
-0.009231849,-1,-302.5092318,-32768,6369.140625,12096,0,0
-0.009231849,-1,-302.5092318,-32768,6373.046875,12224,0,0
-0.009231849,-1,-302.5092318,-32768,6376.953125,12352,0,0
-0.009231849,-1,-302.5092318,-32768,6380.859375,12480,0,0
-0.009231849,-1,-302.5092318,-32768,6384.765625,12608,0,0
-0.009231849,-1,-302.5092318,-32768,6388.671875,12736,0,0
-0.009231849,-1,-302.5092318,-32768,6392.578125,12864,0,0
-0.009231849,-1,-302.5092318,-32768,6396.484375,12992,0,0
-0.009231849,-1,-302.5092318,-32768,6400.390625,13120,0,0
-0.009231849,-1,-302.5092318,-32768,6404.296875,13248,0,0
-0.009231849,-1,-302.5092318,-32768,6408.203125,13376,0,0
-0.009231849,-1,-302.5092318,-32768,6412.109375,13504,0,0
-0.009231849,-1,-302.5092318,-32768,6416.015625,13632,0,0
-0.009231849,-1,-302.5092318,-32768,6419.921875,13760,0,0
-0.009231849,-1,-302.5092318,-32768,6423.828125,13888,0,0
-0.009231849,-1,-302.5092318,-32768,6427.734375,14016,0,0
-0.009231849,-1,-302.5092318,-32768,6431.640625,14144,0,0
-0.009231849,-1,-302.5092318,-32768,6435.546875,14272,0,0
-0.009231849,-1,-302.5092318,-32768,6439.453125,14400,0,0
-0.009231849,-1,-302.5092318,-32768,6443.359375,14528,0,0
-0.009231849,-1,-302.5092318,-32768,6447.265625,14656,0,0
-0.009231849,-1,-302.5092318,-32768,6451.171875,14784,0,0
-0.009231849,-1,-302.5092318,-32768,6455.078125,14912,0,0
-0.009231849,-1,-302.5092318,-32768,6458.984375,15040,0,0
-0.009231849,-1,-302.5092318,-32768,6462.890625,15168,0,0
-0.009231849,-1,-302.5092318,-32768,6466.796875,15296,0,0
-0.009231849,-1,-302.5092318,-32768,6470.703125,15424,0,0
-0.009231849,-1,-302.5092318,-32768,6474.609375,15552,0,0
-0.009231849,-1,-302.5092318,-32768,6478.515625,15680,0,0
-0.009231849,-1,-302.5092318,-32768,6482.421875,15808,0,0
-0.009231849,-1,-302.5092318,-32768,6486.328125,15936,0,0
-0.009231849,-1,-302.5092318,-32768,6490.234375,16064,0,0
-0.009231849,-1,-302.5092318,-32768,6494.140625,16192,0,0
-0.009231849,-1,-302.5092318,-32768,6498.046875,16320,0,0
-0.009231849,-1,-302.5092318,-32768,6501.953125,16448,0,0
-0.009231849,-1,-302.5092318,-32768,6505.859375,16576,0,0
-0.009231849,-1,-302.5092318,-32768,6509.765625,16704,0,0
-0.009231849,-1,-302.5092318,-32768,6513.671875,16832,0,0
-0.009231849,-1,-302.5092318,-32768,6517.578125,16960,0,0
-0.009231849,-1,-302.5092318,-32768,6521.484375,17088,0,0
-0.009231849,-1,-302.5092318,-32768,6525.390625,17216,0,0
-0.009231849,-1,-302.5092318,-32768,6529.296875,17344,0,0
-0.009231849,-1,-302.5092318,-32768,6533.203125,17472,0,0
-0.009231849,-1,-302.5092318,-32768,6537.109375,17600,0,0
-0.009231849,-1,-302.5092318,-32768,6541.015625,17728,0,0
-0.009231849,-1,-302.5092318,-32768,6544.921875,17856,0,0
-0.009231849,-1,-302.5092318,-32768,6548.828125,17984,0,0
-0.009231849,-1,-302.5092318,-32768,6552.734375,18112,0,0
-0.009231849,-1,-302.5092318,-32768,6556.640625,18240,0,0
-0.009231849,-1,-302.5092318,-32768,6560.546875,18368,0,0
-0.009231849,-1,-302.5092318,-32768,6564.453125,18496,0,0
-0.009231849,-1,-302.5092318,-32768,6568.359375,18624,0,0
-0.009231849,-1,-302.5092318,-32768,6572.265625,18752,0,0
-0.009231849,-1,-302.5092318,-32768,6576.171875,18880,0,0
-0.009231849,-1,-302.5092318,-32768,6580.078125,19008,0,0
-0.009231849,-1,-302.5092318,-32768,6583.984375,19136,0,0
-0.009231849,-1,-302.5092318,-32768,6587.890625,19264,0,0
-0.009231849,-1,-302.5092318,-32768,6591.796875,19392,0,0
-0.009231849,-1,-302.5092318,-32768,6595.703125,19520,0,0
-0.009231849,-1,-302.5092318,-32768,6599.609375,19648,0,0
-0.009231849,-1,-302.5092318,-32768,6603.515625,19776,0,0
-0.009231849,-1,-302.5092318,-32768,6607.421875,19904,0,0
-0.009231849,-1,-302.5092318,-32768,6611.328125,20032,0,0
-0.009231849,-1,-302.5092318,-32768,6615.234375,20160,0,0
-0.009231849,-1,-302.5092318,-32768,6619.140625,20288,0,0
-0.009231849,-1,-302.5092318,-32768,6623.046875,20416,0,0
-0.009231849,-1,-302.5092318,-32768,6626.953125,20544,0,0
-0.009231849,-1,-302.5092318,-32768,6630.859375,20672,0,0
-0.009231849,-1,-302.5092318,-32768,6634.765625,20800,0,0
-0.009231849,-1,-302.5092318,-32768,6638.671875,20928,0,0
-0.009231849,-1,-302.5092318,-32768,6642.578125,21056,0,0
-0.009231849,-1,-302.5092318,-32768,6646.484375,21184,0,0
-0.009231849,-1,-302.5092318,-32768,6650.390625,21312,0,0
-0.009231849,-1,-302.5092318,-32768,6654.296875,21440,0,0
-0.009231849,-1,-302.5092318,-32768,6658.203125,21568,0,0
-0.009231849,-1,-0.590838343,-64,6662.109375,21696,0,0
0,0,-0.009231849,-1,6666.015625,21824,-0.009231849,-1
3.545030061,384,2.354121525,255,6669.921875,21952,2.354121525,255
3.545030061,384,0,0,6673.828125,22080,2.354121525,255
-2.363353374,-256,1.77251503,192,6677.734375,22208,3.545030061,384
-0.009231849,-1,-302.5092318,-32768,6681.640625,22336,0,0
-0.009231849,-1,-302.5092318,-32768,6685.546875,22464,0,0
-0.009231849,-1,-302.5092318,-32768,6689.453125,22592,0,0
-0.009231849,-1,-302.5092318,-32768,6693.359375,22720,0,0
-0.009231849,-1,-302.5092318,-32768,6697.265625,22848,0,0
-0.009231849,-1,-302.5092318,-32768,6701.171875,22976,0,0
-0.009231849,-1,-302.5092318,-32768,6705.078125,23104,0,0
-0.009231849,-1,-302.5092318,-32768,6708.984375,23232,0,0
-0.009231849,-1,-302.5092318,-32768,6712.890625,23360,0,0
-0.009231849,-1,-302.5092318,-32768,6716.796875,23488,0,0
-0.009231849,-1,-302.5092318,-32768,6720.703125,23616,0,0
-0.009231849,-1,-302.5092318,-32768,6724.609375,23744,0,0
-0.009231849,-1,-302.5092318,-32768,6728.515625,23872,0,0
-0.009231849,-1,-302.5092318,-32768,6732.421875,24000,0,0
-0.009231849,-1,-302.5092318,-32768,6736.328125,24128,0,0
-0.009231849,-1,-302.5092318,-32768,6740.234375,24256,0,0
-0.009231849,-1,-302.5092318,-32768,6744.140625,24384,0,0
-0.009231849,-1,-302.5092318,-32768,6748.046875,24512,0,0
-0.009231849,-1,-302.5092318,-32768,6751.953125,24640,0,0
-0.009231849,-1,-302.5092318,-32768,6755.859375,24768,0,0
-0.009231849,-1,-302.5092318,-32768,6759.765625,24896,0,0
-0.009231849,-1,-302.5092318,-32768,6763.671875,25024,0,0
-0.009231849,-1,-302.5092318,-32768,6767.578125,25152,0,0
-0.009231849,-1,-302.5092318,-32768,6771.484375,25280,0,0
-0.009231849,-1,-302.5092318,-32768,6775.390625,25408,0,0
-0.009231849,-1,-302.5092318,-32768,6779.296875,25536,0,0
-0.009231849,-1,-302.5092318,-32768,6783.203125,25664,0,0
-0.009231849,-1,-302.5092318,-32768,6787.109375,25792,0,0
-0.009231849,-1,-302.5092318,-32768,6791.015625,25920,0,0
-0.009231849,-1,-302.5092318,-32768,6794.921875,26048,0,0
-0.009231849,-1,-302.5092318,-32768,6798.828125,26176,0,0
-0.009231849,-1,-302.5092318,-32768,6802.734375,26304,0,0
-0.009231849,-1,-302.5092318,-32768,6806.640625,26432,0,0
-0.009231849,-1,-302.5092318,-32768,6810.546875,26560,0,0
-0.009231849,-1,-302.5092318,-32768,6814.453125,26688,0,0
-0.009231849,-1,-302.5092318,-32768,6818.359375,26816,0,0
-0.009231849,-1,-302.5092318,-32768,6822.265625,26944,0,0
-0.009231849,-1,-302.5092318,-32768,6826.171875,27072,0,0
-0.009231849,-1,-302.5092318,-32768,6830.078125,27200,0,0
-0.009231849,-1,-302.5092318,-32768,6833.984375,27328,0,0
-0.009231849,-1,-302.5092318,-32768,6837.890625,27456,0,0
-0.009231849,-1,-302.5092318,-32768,6841.796875,27584,0,0
-0.009231849,-1,-302.5092318,-32768,6845.703125,27712,0,0
-0.009231849,-1,-302.5092318,-32768,6849.609375,27840,0,0
-0.009231849,-1,-302.5092318,-32768,6853.515625,27968,0,0
-0.009231849,-1,-302.5092318,-32768,6857.421875,28096,0,0
-0.009231849,-1,-302.5092318,-32768,6861.328125,28224,0,0
-0.009231849,-1,-302.5092318,-32768,6865.234375,28352,0,0
-0.009231849,-1,-302.5092318,-32768,6869.140625,28480,0,0
-0.009231849,-1,-302.5092318,-32768,6873.046875,28608,0,0
-0.009231849,-1,-302.5092318,-32768,6876.953125,28736,0,0
-0.009231849,-1,-302.5092318,-32768,6880.859375,28864,0,0
-0.009231849,-1,-302.5092318,-32768,6884.765625,28992,0,0
-0.009231849,-1,-302.5092318,-32768,6888.671875,29120,0,0
-0.009231849,-1,-302.5092318,-32768,6892.578125,29248,0,0
-0.009231849,-1,-302.5092318,-32768,6896.484375,29376,0,0
-0.009231849,-1,-302.5092318,-32768,6900.390625,29504,0,0
-0.009231849,-1,-302.5092318,-32768,6904.296875,29632,0,0
-0.009231849,-1,-302.5092318,-32768,6908.203125,29760,0,0
-0.009231849,-1,-302.5092318,-32768,6912.109375,29888,0,0
-0.009231849,-1,-302.5092318,-32768,6916.015625,30016,0,0
-0.009231849,-1,-302.5092318,-32768,6919.921875,30144,0,0
-0.009231849,-1,-302.5092318,-32768,6923.828125,30272,0,0
-0.009231849,-1,-302.5092318,-32768,6927.734375,30400,0,0
-0.009231849,-1,-302.5092318,-32768,6931.640625,30528,0,0
-0.009231849,-1,-302.5092318,-32768,6935.546875,30656,0,0
-0.009231849,-1,-302.5092318,-32768,6939.453125,30784,0,0
-0.009231849,-1,-302.5092318,-32768,6943.359375,30912,0,0
-0.009231849,-1,-302.5092318,-32768,6947.265625,31040,0,0
-0.009231849,-1,-302.5092318,-32768,6951.171875,31168,0,0
-0.009231849,-1,-302.5092318,-32768,6955.078125,31296,0,0
-0.009231849,-1,-302.5092318,-32768,6958.984375,31424,0,0
-0.009231849,-1,-302.5092318,-32768,6962.890625,31552,0,0
-0.009231849,-1,-302.5092318,-32768,6966.796875,31680,0,0
-0.009231849,-1,-302.5092318,-32768,6970.703125,31808,0,0
-0.009231849,-1,-302.5092318,-32768,6974.609375,31936,0,0
-0.009231849,-1,-302.5092318,-32768,6978.515625,32064,0,0
-0.009231849,-1,-302.5092318,-32768,6982.421875,32192,0,0
-0.009231849,-1,-302.5092318,-32768,6986.328125,32320,0,0
-0.009231849,-1,-302.5092318,-32768,6990.234375,32448,0,0
-0.009231849,-1,-302.5092318,-32768,6994.140625,32576,0,0
-0.009231849,-1,-302.5092318,-32768,6998.046875,32704,0,0
-0.009231849,-1,-302.5092318,-32768,7001.953125,32832,0,0
-0.009231849,-1,-302.5092318,-32768,7005.859375,32960,0,0
-0.009231849,-1,-302.5092318,-32768,7009.765625,33088,0,0
-0.009231849,-1,-302.5092318,-32768,7013.671875,33216,0,0
-0.009231849,-1,-302.5092318,-32768,7017.578125,33344,0,0
-0.009231849,-1,-302.5092318,-32768,7021.484375,33472,0,0
-0.009231849,-1,-302.5092318,-32768,7025.390625,33600,0,0
-0.009231849,-1,-302.5092318,-32768,7029.296875,33728,0,0
-0.009231849,-1,-302.5092318,-32768,7033.203125,33856,0,0
-0.009231849,-1,-302.5092318,-32768,7037.109375,33984,0,0
-0.009231849,-1,-302.5092318,-32768,7041.015625,34112,0,0
-0.009231849,-1,-302.5092318,-32768,7044.921875,34240,0,0
-0.009231849,-1,-302.5092318,-32768,7048.828125,34368,0,0
-0.009231849,-1,-302.5092318,-32768,7052.734375,34496,0,0
-0.009231849,-1,-302.5092318,-32768,7056.640625,34624,0,0
-0.009231849,-1,-302.5092318,-32768,7060.546875,34752,0,0
-0.009231849,-1,-302.5092318,-32768,7064.453125,34880,0,0
-0.009231849,-1,-302.5092318,-32768,7068.359375,35008,0,0
-0.009231849,-1,-302.5092318,-32768,7072.265625,35136,0,0
-0.009231849,-1,-302.5092318,-32768,7076.171875,35264,0,0
-0.009231849,-1,-302.5092318,-32768,7080.078125,35392,0,0
-0.009231849,-1,-302.5092318,-32768,7083.984375,35520,0,0
-0.009231849,-1,-302.5092318,-32768,7087.890625,35648,0,0
-0.009231849,-1,-302.5092318,-32768,7091.796875,35776,0,0
-0.009231849,-1,-302.5092318,-32768,7095.703125,35904,0,0
-0.009231849,-1,-302.5092318,-32768,7099.609375,36032,0,0
-0.009231849,-1,-302.5092318,-32768,7103.515625,36160,0,0
-0.009231849,-1,-302.5092318,-32768,7107.421875,36288,0,0
-0.009231849,-1,-302.5092318,-32768,7111.328125,36416,0,0
-0.009231849,-1,-302.5092318,-32768,7115.234375,36544,0,0
-0.009231849,-1,-302.5092318,-32768,7119.140625,36672,0,0
-0.009231849,-1,-302.5092318,-32768,7123.046875,36800,0,0
-0.009231849,-1,-302.5092318,-32768,7126.953125,36928,0,0
-0.009231849,-1,-302.5092318,-32768,7130.859375,37056,0,0
-0.009231849,-1,-302.5092318,-32768,7134.765625,37184,0,0
-0.009231849,-1,-302.5092318,-32768,7138.671875,37312,0,0
-0.009231849,-1,-302.5092318,-32768,7142.578125,37440,0,0
-0.009231849,-1,-302.5092318,-32768,7146.484375,37568,0,0
-0.009231849,-1,-302.5092318,-32768,7150.390625,37696,0,0
-0.009231849,-1,-302.5092318,-32768,7154.296875,37824,0,0
-0.009231849,-1,-302.5092318,-32768,7158.203125,37952,0,0
-0.009231849,-1,-302.5092318,-32768,7162.109375,38080,0,0
-0.009231849,-1,-302.5092318,-32768,7166.015625,38208,0,0
-0.009231849,-1,-302.5092318,-32768,7169.921875,38336,0,0
-0.009231849,-1,-302.5092318,-32768,7173.828125,38464,0,0
-0.009231849,-1,-302.5092318,-32768,7177.734375,38592,0,0
-0.009231849,-1,-302.5092318,-32768,7181.640625,38720,0,0
-0.009231849,-1,-302.5092318,-32768,7185.546875,38848,0,0
-0.009231849,-1,-302.5092318,-32768,7189.453125,38976,0,0
-0.009231849,-1,-302.5092318,-32768,7193.359375,39104,0,0
-0.009231849,-1,-302.5092318,-32768,7197.265625,39232,0,0
-0.009231849,-1,-302.5092318,-32768,7201.171875,39360,0,0
-0.009231849,-1,-302.5092318,-32768,7205.078125,39488,0,0
-0.009231849,-1,-302.5092318,-32768,7208.984375,39616,0,0
-0.009231849,-1,-302.5092318,-32768,7212.890625,39744,0,0
-0.009231849,-1,-302.5092318,-32768,7216.796875,39872,0,0
-0.009231849,-1,-302.5092318,-32768,7220.703125,40000,0,0
-0.009231849,-1,-302.5092318,-32768,7224.609375,40128,0,0
-0.009231849,-1,-302.5092318,-32768,7228.515625,40256,0,0
-0.009231849,-1,-302.5092318,-32768,7232.421875,40384,0,0
-0.009231849,-1,-302.5092318,-32768,7236.328125,40512,0,0
-0.009231849,-1,-302.5092318,-32768,7240.234375,40640,0,0
-0.009231849,-1,-302.5092318,-32768,7244.140625,40768,0,0
-0.009231849,-1,-302.5092318,-32768,7248.046875,40896,0,0
-0.009231849,-1,-302.5092318,-32768,7251.953125,41024,0,0
-0.009231849,-1,-302.5092318,-32768,7255.859375,41152,0,0
-0.009231849,-1,-302.5092318,-32768,7259.765625,41280,0,0
-0.009231849,-1,-302.5092318,-32768,7263.671875,41408,0,0
-0.009231849,-1,-302.5092318,-32768,7267.578125,41536,0,0
-0.009231849,-1,-302.5092318,-32768,7271.484375,41664,0,0
-0.009231849,-1,-302.5092318,-32768,7275.390625,41792,0,0
-0.009231849,-1,-302.5092318,-32768,7279.296875,41920,0,0
-0.009231849,-1,-302.5092318,-32768,7283.203125,42048,0,0
-0.009231849,-1,-302.5092318,-32768,7287.109375,42176,0,0
-0.009231849,-1,-302.5092318,-32768,7291.015625,42304,0,0
-0.009231849,-1,-302.5092318,-32768,7294.921875,42432,0,0
-0.009231849,-1,-302.5092318,-32768,7298.828125,42560,0,0
-0.009231849,-1,-302.5092318,-32768,7302.734375,42688,0,0
-0.009231849,-1,-302.5092318,-32768,7306.640625,42816,0,0
-0.009231849,-1,-302.5092318,-32768,7310.546875,42944,0,0
-0.009231849,-1,-302.5092318,-32768,7314.453125,43072,0,0
-0.009231849,-1,-302.5092318,-32768,7318.359375,43200,0,0
-0.009231849,-1,-302.5092318,-32768,7322.265625,43328,0,0
-0.009231849,-1,-302.5092318,-32768,7326.171875,43456,0,0
-0.009231849,-1,-302.5092318,-32768,7330.078125,43584,0,0
-0.009231849,-1,-302.5092318,-32768,7333.984375,43712,0,0
-0.009231849,-1,-302.5092318,-32768,7337.890625,43840,0,0
-0.009231849,-1,-302.5092318,-32768,7341.796875,43968,0,0
-0.009231849,-1,-302.5092318,-32768,7345.703125,44096,0,0
-0.009231849,-1,-302.5092318,-32768,7349.609375,44224,0,0
-0.009231849,-1,-302.5092318,-32768,7353.515625,44352,0,0
-0.009231849,-1,-302.5092318,-32768,7357.421875,44480,0,0
-0.009231849,-1,-302.5092318,-32768,7361.328125,44608,0,0
-0.009231849,-1,-302.5092318,-32768,7365.234375,44736,0,0
-0.009231849,-1,-302.5092318,-32768,7369.140625,44864,0,0
-0.009231849,-1,-302.5092318,-32768,7373.046875,44992,0,0
-0.009231849,-1,-302.5092318,-32768,7376.953125,45120,0,0
-0.009231849,-1,-302.5092318,-32768,7380.859375,45248,0,0
-0.009231849,-1,-302.5092318,-32768,7384.765625,45376,0,0
-0.009231849,-1,-302.5092318,-32768,7388.671875,45504,0,0
-0.009231849,-1,-302.5092318,-32768,7392.578125,45632,0,0
-0.009231849,-1,-302.5092318,-32768,7396.484375,45760,0,0
-0.009231849,-1,-302.5092318,-32768,7400.390625,45888,0,0
-0.009231849,-1,-302.5092318,-32768,7404.296875,46016,0,0
-0.009231849,-1,-302.5092318,-32768,7408.203125,46144,0,0
-0.009231849,-1,-302.5092318,-32768,7412.109375,46272,0,0
-0.009231849,-1,-302.5092318,-32768,7416.015625,46400,0,0
-0.009231849,-1,-302.5092318,-32768,7419.921875,46528,0,0
-0.009231849,-1,-302.5092318,-32768,7423.828125,46656,0,0
-0.009231849,-1,-302.5092318,-32768,7427.734375,46784,0,0
-0.009231849,-1,-302.5092318,-32768,7431.640625,46912,0,0
-0.009231849,-1,-302.5092318,-32768,7435.546875,47040,0,0
-0.009231849,-1,-302.5092318,-32768,7439.453125,47168,0,0
-0.009231849,-1,-302.5092318,-32768,7443.359375,47296,0,0
-0.009231849,-1,-302.5092318,-32768,7447.265625,47424,0,0
-0.009231849,-1,-302.5092318,-32768,7451.171875,47552,0,0
-0.009231849,-1,-302.5092318,-32768,7455.078125,47680,0,0
-0.009231849,-1,-302.5092318,-32768,7458.984375,47808,0,0
-0.009231849,-1,-302.5092318,-32768,7462.890625,47936,0,0
-0.009231849,-1,-302.5092318,-32768,7466.796875,48064,0,0
-0.009231849,-1,-302.5092318,-32768,7470.703125,48192,0,0
-0.009231849,-1,-302.5092318,-32768,7474.609375,48320,0,0
-0.009231849,-1,-302.5092318,-32768,7478.515625,48448,0,0
-0.009231849,-1,-302.5092318,-32768,7482.421875,48576,0,0
-0.009231849,-1,-302.5092318,-32768,7486.328125,48704,0,0
-0.009231849,-1,-302.5092318,-32768,7490.234375,48832,0,0
-0.009231849,-1,-302.5092318,-32768,7494.140625,48960,0,0
-0.009231849,-1,-302.5092318,-32768,7498.046875,49088,0,0
0,0,-0.009231849,-1,7501.953125,49216,-0.009231849,-1
0,0,9.444181646,1023,7505.859375,49344,-0.009231849,-1
0,0,2.354121525,255,7509.765625,49472,-0.009231849,-1
0,0,0,0,7513.671875,49600,-302.5092318,-32768
-2.363353374,-256,0.221564379,24,7517.578125,49728,3.545030061,384
-0.009231849,-1,-302.5092318,-32768,7521.484375,49856,0,0
-0.009231849,-1,-302.5092318,-32768,7525.390625,49984,0,0
-0.009231849,-1,-302.5092318,-32768,7529.296875,50112,0,0
-0.009231849,-1,-302.5092318,-32768,7533.203125,50240,0,0
-0.009231849,-1,-302.5092318,-32768,7537.109375,50368,0,0
-0.009231849,-1,-302.5092318,-32768,7541.015625,50496,0,0
-0.009231849,-1,-302.5092318,-32768,7544.921875,50624,0,0
-0.009231849,-1,-302.5092318,-32768,7548.828125,50752,0,0
-0.009231849,-1,-302.5092318,-32768,7552.734375,50880,0,0
-0.009231849,-1,-302.5092318,-32768,7556.640625,51008,0,0
-0.009231849,-1,-302.5092318,-32768,7560.546875,51136,0,0
-0.009231849,-1,-302.5092318,-32768,7564.453125,51264,0,0
-0.009231849,-1,-302.5092318,-32768,7568.359375,51392,0,0
-0.009231849,-1,-302.5092318,-32768,7572.265625,51520,0,0
-0.009231849,-1,-302.5092318,-32768,7576.171875,51648,0,0
-0.009231849,-1,-302.5092318,-32768,7580.078125,51776,0,0
-0.009231849,-1,-302.5092318,-32768,7583.984375,51904,0,0
-0.009231849,-1,-302.5092318,-32768,7587.890625,52032,0,0
-0.009231849,-1,-302.5092318,-32768,7591.796875,52160,0,0
-0.009231849,-1,-302.5092318,-32768,7595.703125,52288,0,0
-0.009231849,-1,-302.5092318,-32768,7599.609375,52416,0,0
-0.009231849,-1,-302.5092318,-32768,7603.515625,52544,0,0
-0.009231849,-1,-302.5092318,-32768,7607.421875,52672,0,0
-0.009231849,-1,-302.5092318,-32768,7611.328125,52800,0,0
-0.009231849,-1,-302.5092318,-32768,7615.234375,52928,0,0
-0.009231849,-1,-302.5092318,-32768,7619.140625,53056,0,0
-0.009231849,-1,-302.5092318,-32768,7623.046875,53184,0,0
-0.009231849,-1,-302.5092318,-32768,7626.953125,53312,0,0
-0.009231849,-1,-302.5092318,-32768,7630.859375,53440,0,0
-0.009231849,-1,-302.5092318,-32768,7634.765625,53568,0,0
-0.009231849,-1,-302.5092318,-32768,7638.671875,53696,0,0
-0.009231849,-1,-302.5092318,-32768,7642.578125,53824,0,0
-0.009231849,-1,-302.5092318,-32768,7646.484375,53952,0,0
-0.009231849,-1,-302.5092318,-32768,7650.390625,54080,0,0
-0.009231849,-1,-302.5092318,-32768,7654.296875,54208,0,0
-0.009231849,-1,-302.5092318,-32768,7658.203125,54336,0,0
-0.009231849,-1,-302.5092318,-32768,7662.109375,54464,0,0
-0.009231849,-1,-302.5092318,-32768,7666.015625,54592,0,0
-0.009231849,-1,-302.5092318,-32768,7669.921875,54720,0,0
-0.009231849,-1,-302.5092318,-32768,7673.828125,54848,0,0
-0.009231849,-1,-302.5092318,-32768,7677.734375,54976,0,0
-0.009231849,-1,-302.5092318,-32768,7681.640625,55104,0,0
-0.009231849,-1,-302.5092318,-32768,7685.546875,55232,0,0
-0.009231849,-1,-302.5092318,-32768,7689.453125,55360,0,0
-0.009231849,-1,-302.5092318,-32768,7693.359375,55488,0,0
-0.009231849,-1,-302.5092318,-32768,7697.265625,55616,0,0
-0.009231849,-1,-302.5092318,-32768,7701.171875,55744,0,0
-0.009231849,-1,-302.5092318,-32768,7705.078125,55872,0,0
-0.009231849,-1,-302.5092318,-32768,7708.984375,56000,0,0
-0.009231849,-1,-302.5092318,-32768,7712.890625,56128,0,0
-0.009231849,-1,-302.5092318,-32768,7716.796875,56256,0,0
-0.009231849,-1,-302.5092318,-32768,7720.703125,56384,0,0
-0.009231849,-1,-302.5092318,-32768,7724.609375,56512,0,0
-0.009231849,-1,-302.5092318,-32768,7728.515625,56640,0,0
-0.009231849,-1,-302.5092318,-32768,7732.421875,56768,0,0
-0.009231849,-1,-302.5092318,-32768,7736.328125,56896,0,0
-0.009231849,-1,-302.5092318,-32768,7740.234375,57024,0,0
-0.009231849,-1,-302.5092318,-32768,7744.140625,57152,0,0
-0.009231849,-1,-302.5092318,-32768,7748.046875,57280,0,0
-0.009231849,-1,-302.5092318,-32768,7751.953125,57408,0,0
-0.009231849,-1,-302.5092318,-32768,7755.859375,57536,0,0
-0.009231849,-1,-302.5092318,-32768,7759.765625,57664,0,0
-0.009231849,-1,-302.5092318,-32768,7763.671875,57792,0,0
-0.009231849,-1,-302.5092318,-32768,7767.578125,57920,0,0
-0.009231849,-1,-302.5092318,-32768,7771.484375,58048,0,0
-0.009231849,-1,-302.5092318,-32768,7775.390625,58176,0,0
-0.009231849,-1,-302.5092318,-32768,7779.296875,58304,0,0
-0.009231849,-1,-302.5092318,-32768,7783.203125,58432,0,0
-0.009231849,-1,-302.5092318,-32768,7787.109375,58560,0,0
-0.009231849,-1,-302.5092318,-32768,7791.015625,58688,0,0
-0.009231849,-1,-302.5092318,-32768,7794.921875,58816,0,0
-0.009231849,-1,-302.5092318,-32768,7798.828125,58944,0,0
-0.009231849,-1,-302.5092318,-32768,7802.734375,59072,0,0
-0.009231849,-1,-302.5092318,-32768,7806.640625,59200,0,0
-0.009231849,-1,-302.5092318,-32768,7810.546875,59328,0,0
-0.009231849,-1,-302.5092318,-32768,7814.453125,59456,0,0
-0.009231849,-1,-302.5092318,-32768,7818.359375,59584,0,0
-0.009231849,-1,-302.5092318,-32768,7822.265625,59712,0,0
-0.009231849,-1,-302.5092318,-32768,7826.171875,59840,0,0
-0.009231849,-1,-302.5092318,-32768,7830.078125,59968,0,0
-0.009231849,-1,-302.5092318,-32768,7833.984375,60096,0,0
-0.009231849,-1,-302.5092318,-32768,7837.890625,60224,0,0
-0.009231849,-1,-302.5092318,-32768,7841.796875,60352,0,0
-0.009231849,-1,-302.5092318,-32768,7845.703125,60480,0,0
-0.009231849,-1,-302.5092318,-32768,7849.609375,60608,0,0
-0.009231849,-1,-302.5092318,-32768,7853.515625,60736,0,0
-0.009231849,-1,-302.5092318,-32768,7857.421875,60864,0,0
-0.009231849,-1,-302.5092318,-32768,7861.328125,60992,0,0
-0.009231849,-1,-302.5092318,-32768,7865.234375,61120,0,0
-0.009231849,-1,-302.5092318,-32768,7869.140625,61248,0,0
-0.009231849,-1,-302.5092318,-32768,7873.046875,61376,0,0
-0.009231849,-1,-302.5092318,-32768,7876.953125,61504,0,0
-0.009231849,-1,-302.5092318,-32768,7880.859375,61632,0,0
-0.009231849,-1,-302.5092318,-32768,7884.765625,61760,0,0
-0.009231849,-1,-302.5092318,-32768,7888.671875,61888,0,0
-0.009231849,-1,-302.5092318,-32768,7892.578125,62016,0,0
-0.009231849,-1,-302.5092318,-32768,7896.484375,62144,0,0
-0.009231849,-1,-302.5092318,-32768,7900.390625,62272,0,0
-0.009231849,-1,-302.5092318,-32768,7904.296875,62400,0,0
-0.009231849,-1,-302.5092318,-32768,7908.203125,62528,0,0
-0.009231849,-1,-302.5092318,-32768,7912.109375,62656,0,0
-0.009231849,-1,-302.5092318,-32768,7916.015625,62784,0,0
-0.009231849,-1,-302.5092318,-32768,7919.921875,62912,0,0
-0.009231849,-1,-302.5092318,-32768,7923.828125,63040,0,0
-0.009231849,-1,-302.5092318,-32768,7927.734375,63168,0,0
-0.009231849,-1,-302.5092318,-32768,7931.640625,63296,0,0
-0.009231849,-1,-302.5092318,-32768,7935.546875,63424,0,0
-0.009231849,-1,-302.5092318,-32768,7939.453125,63552,0,0
-0.009231849,-1,-302.5092318,-32768,7943.359375,63680,0,0
-0.009231849,-1,-302.5092318,-32768,7947.265625,63808,0,0
-0.009231849,-1,-302.5092318,-32768,7951.171875,63936,0,0
-0.009231849,-1,-302.5092318,-32768,7955.078125,64064,0,0
-0.009231849,-1,-302.5092318,-32768,7958.984375,64192,0,0
-0.009231849,-1,-302.5092318,-32768,7962.890625,64320,0,0
-0.009231849,-1,-302.5092318,-32768,7966.796875,64448,0,0
-0.009231849,-1,-302.5092318,-32768,7970.703125,64576,0,0
-0.009231849,-1,-302.5092318,-32768,7974.609375,64704,0,0
-0.009231849,-1,-302.5092318,-32768,7978.515625,64832,0,0
-0.009231849,-1,-302.5092318,-32768,7982.421875,64960,0,0
-0.009231849,-1,-302.5092318,-32768,7986.328125,65088,0,0
-0.009231849,-1,-302.5092318,-32768,7990.234375,65216,0,0
-0.009231849,-1,-302.5092318,-32768,7994.140625,65344,0,0
-0.009231849,-1,-302.5092318,-32768,7998.046875,65472,0,0
