Device,Device,Device,Device,Device,Device,Device,Device
ECG LL-RA,ECG LL-RA,ECG LA-RA,ECG LA-RA,ECG Vx-RL,ECG Vx-RL,Timestamp,Timestamp
CAL,RAW,CAL,RAW,RAW,CAL,CAL,RAW
mV,No Units,mV,No Units,No Units,mV,mSecs,No Units
-3.631540374,-50353,-455.5821598,-6316859,-44585,-3.215542819,1.953125,64
-181.6219505,-2518273,-313.1762008,-4342334,-3236173,-233.3980678,3.90625,128
-3.631540374,-50353,-455.5821598,-6316859,0,0,5.859375,192
-181.6219505,-2518273,-313.1762008,-4342334,0,0,7.8125,256
605,8388607,-605.0000721,-8388608,-8388608,-605.0000721,9.765625,320
605,8388607,-605.0000721,-8388608,-8388608,-605.0000721,11.71875,384
605,8388607,-605.0000721,-8388608,-8388608,-605.0000721,13.671875,448
2.36320941,32767,-2.363281532,-32768,-32768,-2.363281532,15.625,512
2.36320941,32767,-2.363281532,-32768,-32768,-2.363281532,17.578125,576
2.36320941,32767,-2.363281532,-32768,-128,-0.009231568,19.53125,640
2.36320941,32767,-2.363281532,-32768,65535,4.726490942,21.484375,704
3.544922298,49152,2.36320941,32767,2047,0.147632974,23.4375,768
0.013847353,192,0.009159447,127,63,0.004543663,25.390625,832
-605.0000721,-8388608,-302.5000361,-4194304,0,0,27.34375,896
-605.0000721,-8388608,-302.5000361,-4194304,0,0,29.296875,960
-605.0000721,-8388608,-302.5000361,-4194304,49152,3.544922298,31.25,1024
-605.0000721,-8388608,-302.5000361,-4194304,240,0.017309191,33.203125,1088
605,8388607,-605.0000721,-8388608,-8388608,-605.0000721,35.15625,1152
605,8388607,-605.0000721,-8388608,-8388608,-605.0000721,37.109375,1216
605,8388607,-605.0000721,-8388608,-8388608,-605.0000721,39.0625,1280
605,8388607,-605.0000721,-8388608,-8388608,-605.0000721,41.015625,1344
605,8388607,-605.0000721,-8388608,-8388608,-605.0000721,42.96875,1408
605,8388607,-605.0000721,-8388608,-8388608,-605.0000721,44.921875,1472
605,8388607,-605.0000721,-8388608,-8388608,-605.0000721,46.875,1536
605,8388607,-605.0000721,-8388608,-8388608,-605.0000721,48.828125,1600
605,8388607,-605.0000721,-8388608,-8388608,-605.0000721,50.78125,1664
605,8388607,-605.0000721,-8388608,-8388608,-605.0000721,52.734375,1728
605,8388607,-605.0000721,-8388608,-8388608,-605.0000721,54.6875,1792
605,8388607,-605.0000721,-8388608,-8388608,-605.0000721,56.640625,1856
605,8388607,-605.0000721,-8388608,-8388608,-605.0000721,58.59375,1920
605,8388607,-605.0000721,-8388608,-8388608,-605.0000721,60.546875,1984
605,8388607,-605.0000721,-8388608,-8388608,-605.0000721,62.5,2048
605,8388607,-605.0000721,-8388608,-8388608,-605.0000721,64.453125,2112
605,8388607,-605.0000721,-8388608,-8388608,-605.0000721,66.40625,2176
605,8388607,-605.0000721,-8388608,-8388608,-605.0000721,68.359375,2240
605,8388607,-605.0000721,-8388608,-8388608,-605.0000721,70.3125,2304
605,8388607,-605.0000721,-8388608,-8388608,-605.0000721,72.265625,2368
605,8388607,-605.0000721,-8388608,-8388608,-605.0000721,74.21875,2432
605,8388607,-605.0000721,-8388608,-8388608,-605.0000721,76.171875,2496
605,8388607,-605.0000721,-8388608,-8388608,-605.0000721,78.125,2560
605,8388607,-605.0000721,-8388608,-8388608,-605.0000721,80.078125,2624
605,8388607,-605.0000721,-8388608,-8388608,-605.0000721,82.03125,2688
605,8388607,-605.0000721,-8388608,-8388608,-605.0000721,83.984375,2752
605,8388607,-605.0000721,-8388608,-8388608,-605.0000721,85.9375,2816
605,8388607,-605.0000721,-8388608,-8388608,-605.0000721,87.890625,2880
605,8388607,-605.0000721,-8388608,-8388608,-605.0000721,89.84375,2944
605,8388607,-605.0000721,-8388608,-8388608,-605.0000721,91.796875,3008
605,8388607,-605.0000721,-8388608,-8388608,-605.0000721,93.75,3072
605,8388607,-605.0000721,-8388608,-8388608,-605.0000721,95.703125,3136
605,8388607,-605.0000721,-8388608,-8388608,-605.0000721,97.65625,3200
605,8388607,-605.0000721,-8388608,-8388608,-605.0000721,99.609375,3264
605,8388607,-605.0000721,-8388608,-8388608,-605.0000721,101.5625,3328
605,8388607,-605.0000721,-8388608,-8388608,-605.0000721,103.515625,3392
605,8388607,-605.0000721,-8388608,-8388608,-605.0000721,105.46875,3456
605,8388607,-605.0000721,-8388608,-8388608,-605.0000721,107.421875,3520
605,8388607,-605.0000721,-8388608,-8388608,-605.0000721,109.375,3584
605,8388607,-605.0000721,-8388608,-8388608,-605.0000721,111.328125,3648
605,8388607,-605.0000721,-8388608,-8388608,-605.0000721,113.28125,3712
605,8388607,-605.0000721,-8388608,-8388608,-605.0000721,115.234375,3776
605,8388607,-605.0000721,-8388608,-8388608,-605.0000721,117.1875,3840
605,8388607,-605.0000721,-8388608,-8388608,-605.0000721,119.140625,3904
605,8388607,-605.0000721,-8388608,-8388608,-605.0000721,121.09375,3968
605,8388607,-605.0000721,-8388608,-8388608,-605.0000721,123.046875,4032
605,8388607,-605.0000721,-8388608,-8388608,-605.0000721,125,4096
605,8388607,-605.0000721,-8388608,-8388608,-605.0000721,126.953125,4160
605,8388607,-605.0000721,-8388608,-8388608,-605.0000721,128.90625,4224
605,8388607,-605.0000721,-8388608,-8388608,-605.0000721,130.859375,4288
605,8388607,-605.0000721,-8388608,-8388608,-605.0000721,132.8125,4352
605,8388607,-605.0000721,-8388608,-8388608,-605.0000721,134.765625,4416
605,8388607,-605.0000721,-8388608,-8388608,-605.0000721,136.71875,4480
605,8388607,-605.0000721,-8388608,-8388608,-605.0000721,138.671875,4544
605,8388607,-605.0000721,-8388608,-8388608,-605.0000721,140.625,4608
605,8388607,-605.0000721,-8388608,-8388608,-605.0000721,142.578125,4672
605,8388607,-605.0000721,-8388608,-8388608,-605.0000721,144.53125,4736
605,8388607,-605.0000721,-8388608,-8388608,-605.0000721,146.484375,4800
605,8388607,-605.0000721,-8388608,-8388608,-605.0000721,148.4375,4864
605,8388607,-605.0000721,-8388608,-8388608,-605.0000721,150.390625,4928
605,8388607,-605.0000721,-8388608,-8388608,-605.0000721,152.34375,4992
605,8388607,-605.0000721,-8388608,-8388608,-605.0000721,154.296875,5056
605,8388607,-605.0000721,-8388608,-8388608,-605.0000721,156.25,5120
605,8388607,-605.0000721,-8388608,-8388608,-605.0000721,158.203125,5184
605,8388607,-605.0000721,-8388608,-8388608,-605.0000721,160.15625,5248
605,8388607,-605.0000721,-8388608,-8388608,-605.0000721,162.109375,5312
605,8388607,-605.0000721,-8388608,-8388608,-605.0000721,164.0625,5376
605,8388607,-605.0000721,-8388608,-8388608,-605.0000721,166.015625,5440
605,8388607,-605.0000721,-8388608,-8388608,-605.0000721,167.96875,5504
605,8388607,-605.0000721,-8388608,-8388608,-605.0000721,169.921875,5568
605,8388607,-605.0000721,-8388608,-8388608,-605.0000721,171.875,5632
605,8388607,-605.0000721,-8388608,-8388608,-605.0000721,173.828125,5696
605,8388607,-605.0000721,-8388608,-8388608,-605.0000721,175.78125,5760
605,8388607,-605.0000721,-8388608,-8388608,-605.0000721,177.734375,5824
605,8388607,-605.0000721,-8388608,-8388608,-605.0000721,179.6875,5888
605,8388607,-605.0000721,-8388608,-8388608,-605.0000721,181.640625,5952
605,8388607,-605.0000721,-8388608,-8388608,-605.0000721,183.59375,6016
605,8388607,-605.0000721,-8388608,-8388608,-605.0000721,185.546875,6080
605,8388607,-605.0000721,-8388608,-8388608,-605.0000721,187.5,6144
605,8388607,-605.0000721,-8388608,-8388608,-605.0000721,189.453125,6208
605,8388607,-605.0000721,-8388608,-8388608,-605.0000721,191.40625,6272
605,8388607,-605.0000721,-8388608,-8388608,-605.0000721,193.359375,6336
605,8388607,-605.0000721,-8388608,-8388608,-605.0000721,195.3125,6400
605,8388607,-605.0000721,-8388608,-8388608,-605.0000721,197.265625,6464
605,8388607,-605.0000721,-8388608,-8388608,-605.0000721,199.21875,6528
605,8388607,-605.0000721,-8388608,-8388608,-605.0000721,201.171875,6592
605,8388607,-605.0000721,-8388608,-8388608,-605.0000721,203.125,6656
605,8388607,-605.0000721,-8388608,-8388608,-605.0000721,205.078125,6720
605,8388607,-605.0000721,-8388608,-8388608,-605.0000721,207.03125,6784
605,8388607,-605.0000721,-8388608,-8388608,-605.0000721,208.984375,6848
605,8388607,-605.0000721,-8388608,-8388608,-605.0000721,210.9375,6912
605,8388607,-605.0000721,-8388608,-8388608,-605.0000721,212.890625,6976
605,8388607,-605.0000721,-8388608,-8388608,-605.0000721,214.84375,7040
605,8388607,-605.0000721,-8388608,-8388608,-605.0000721,216.796875,7104
605,8388607,-605.0000721,-8388608,-8388608,-605.0000721,218.75,7168
605,8388607,-605.0000721,-8388608,-8388608,-605.0000721,220.703125,7232
605,8388607,-605.0000721,-8388608,-8388608,-605.0000721,222.65625,7296
605,8388607,-605.0000721,-8388608,-8388608,-605.0000721,224.609375,7360
605,8388607,-605.0000721,-8388608,-8388608,-605.0000721,226.5625,7424
605,8388607,-605.0000721,-8388608,-8388608,-605.0000721,228.515625,7488
605,8388607,-605.0000721,-8388608,-8388608,-605.0000721,230.46875,7552
605,8388607,-605.0000721,-8388608,-8388608,-605.0000721,232.421875,7616
605,8388607,-605.0000721,-8388608,-8388608,-605.0000721,234.375,7680
605,8388607,-605.0000721,-8388608,-8388608,-605.0000721,236.328125,7744
605,8388607,-605.0000721,-8388608,-8388608,-605.0000721,238.28125,7808
605,8388607,-605.0000721,-8388608,-8388608,-605.0000721,240.234375,7872
605,8388607,-605.0000721,-8388608,-8388608,-605.0000721,242.1875,7936
605,8388607,-605.0000721,-8388608,-8388608,-605.0000721,244.140625,8000
605,8388607,-605.0000721,-8388608,-8388608,-605.0000721,246.09375,8064
605,8388607,-605.0000721,-8388608,-8388608,-605.0000721,248.046875,8128
605,8388607,-605.0000721,-8388608,-8388608,-605.0000721,250,8192
605,8388607,-605.0000721,-8388608,-8388608,-605.0000721,251.953125,8256
605,8388607,-605.0000721,-8388608,-8388608,-605.0000721,253.90625,8320
605,8388607,-605.0000721,-8388608,-8388608,-605.0000721,255.859375,8384
605,8388607,-605.0000721,-8388608,-8388608,-605.0000721,257.8125,8448
605,8388607,-605.0000721,-8388608,-8388608,-605.0000721,259.765625,8512
605,8388607,-605.0000721,-8388608,-8388608,-605.0000721,261.71875,8576
605,8388607,-605.0000721,-8388608,-8388608,-605.0000721,263.671875,8640
605,8388607,-605.0000721,-8388608,-8388608,-605.0000721,265.625,8704
605,8388607,-605.0000721,-8388608,-8388608,-605.0000721,267.578125,8768
605,8388607,-605.0000721,-8388608,-8388608,-605.0000721,269.53125,8832
605,8388607,-605.0000721,-8388608,-8388608,-605.0000721,271.484375,8896
605,8388607,-605.0000721,-8388608,-8388608,-605.0000721,273.4375,8960
605,8388607,-605.0000721,-8388608,-8388608,-605.0000721,275.390625,9024
605,8388607,-605.0000721,-8388608,-8388608,-605.0000721,277.34375,9088
605,8388607,-605.0000721,-8388608,-8388608,-605.0000721,279.296875,9152
605,8388607,-605.0000721,-8388608,-8388608,-605.0000721,281.25,9216
605,8388607,-605.0000721,-8388608,-8388608,-605.0000721,283.203125,9280
605,8388607,-605.0000721,-8388608,-8388608,-605.0000721,285.15625,9344
605,8388607,-605.0000721,-8388608,-8388608,-605.0000721,287.109375,9408
605,8388607,-605.0000721,-8388608,-8388608,-605.0000721,289.0625,9472
605,8388607,-605.0000721,-8388608,-8388608,-605.0000721,291.015625,9536
605,8388607,-605.0000721,-8388608,-8388608,-605.0000721,292.96875,9600
605,8388607,-605.0000721,-8388608,-8388608,-605.0000721,294.921875,9664
605,8388607,-605.0000721,-8388608,-8388608,-605.0000721,296.875,9728
605,8388607,-605.0000721,-8388608,-8388608,-605.0000721,298.828125,9792
605,8388607,-605.0000721,-8388608,-8388608,-605.0000721,300.78125,9856
605,8388607,-605.0000721,-8388608,-8388608,-605.0000721,302.734375,9920
605,8388607,-605.0000721,-8388608,-8388608,-605.0000721,304.6875,9984
605,8388607,-605.0000721,-8388608,-8388608,-605.0000721,306.640625,10048
605,8388607,-605.0000721,-8388608,-8388608,-605.0000721,308.59375,10112
605,8388607,-605.0000721,-8388608,-8388608,-605.0000721,310.546875,10176
605,8388607,-605.0000721,-8388608,-8388608,-605.0000721,312.5,10240
605,8388607,-605.0000721,-8388608,-8388608,-605.0000721,314.453125,10304
605,8388607,-605.0000721,-8388608,-8388608,-605.0000721,316.40625,10368
605,8388607,-605.0000721,-8388608,-8388608,-605.0000721,318.359375,10432
605,8388607,-605.0000721,-8388608,-8388608,-605.0000721,320.3125,10496
605,8388607,-605.0000721,-8388608,-8388608,-605.0000721,322.265625,10560
605,8388607,-605.0000721,-8388608,-8388608,-605.0000721,324.21875,10624
605,8388607,-605.0000721,-8388608,-8388608,-605.0000721,326.171875,10688
605,8388607,-605.0000721,-8388608,-8388608,-605.0000721,328.125,10752
605,8388607,-605.0000721,-8388608,-8388608,-605.0000721,330.078125,10816
605,8388607,-605.0000721,-8388608,-8388608,-605.0000721,332.03125,10880
605,8388607,-605.0000721,-8388608,-8388608,-605.0000721,333.984375,10944
605,8388607,-605.0000721,-8388608,-8388608,-605.0000721,335.9375,11008
605,8388607,-605.0000721,-8388608,-8388608,-605.0000721,337.890625,11072
605,8388607,-605.0000721,-8388608,-8388608,-605.0000721,339.84375,11136
605,8388607,-605.0000721,-8388608,-8388608,-605.0000721,341.796875,11200
605,8388607,-605.0000721,-8388608,-8388608,-605.0000721,343.75,11264
605,8388607,-605.0000721,-8388608,-8388608,-605.0000721,345.703125,11328
605,8388607,-605.0000721,-8388608,-8388608,-605.0000721,347.65625,11392
605,8388607,-605.0000721,-8388608,-8388608,-605.0000721,349.609375,11456
605,8388607,-605.0000721,-8388608,-8388608,-605.0000721,351.5625,11520
605,8388607,-605.0000721,-8388608,-8388608,-605.0000721,353.515625,11584
605,8388607,-605.0000721,-8388608,-8388608,-605.0000721,355.46875,11648
605,8388607,-605.0000721,-8388608,-8388608,-605.0000721,357.421875,11712
605,8388607,-605.0000721,-8388608,-8388608,-605.0000721,359.375,11776
605,8388607,-605.0000721,-8388608,-8388608,-605.0000721,361.328125,11840
605,8388607,-605.0000721,-8388608,-8388608,-605.0000721,363.28125,11904
605,8388607,-605.0000721,-8388608,-8388608,-605.0000721,365.234375,11968
605,8388607,-605.0000721,-8388608,-8388608,-605.0000721,367.1875,12032
605,8388607,-605.0000721,-8388608,-8388608,-605.0000721,369.140625,12096
605,8388607,-605.0000721,-8388608,-8388608,-605.0000721,371.09375,12160
605,8388607,-605.0000721,-8388608,-8388608,-605.0000721,373.046875,12224
605,8388607,-605.0000721,-8388608,-8388608,-605.0000721,375,12288
605,8388607,-605.0000721,-8388608,-8388608,-605.0000721,376.953125,12352
605,8388607,-605.0000721,-8388608,-8388608,-605.0000721,378.90625,12416
605,8388607,-605.0000721,-8388608,-8388608,-605.0000721,380.859375,12480
605,8388607,-605.0000721,-8388608,-8388608,-605.0000721,382.8125,12544
605,8388607,-605.0000721,-8388608,-8388608,-605.0000721,384.765625,12608
605,8388607,-605.0000721,-8388608,-8388608,-605.0000721,386.71875,12672
605,8388607,-605.0000721,-8388608,-8388608,-605.0000721,388.671875,12736
605,8388607,-605.0000721,-8388608,-8388608,-605.0000721,390.625,12800
605,8388607,-605.0000721,-8388608,-8388608,-605.0000721,392.578125,12864
605,8388607,-605.0000721,-8388608,-8388608,-605.0000721,394.53125,12928
605,8388607,-605.0000721,-8388608,-8388608,-605.0000721,396.484375,12992
605,8388607,-605.0000721,-8388608,-8388608,-605.0000721,398.4375,13056
605,8388607,-605.0000721,-8388608,-8388608,-605.0000721,400.390625,13120
605,8388607,-605.0000721,-8388608,-8388608,-605.0000721,402.34375,13184
605,8388607,-605.0000721,-8388608,-8388608,-605.0000721,404.296875,13248
605,8388607,-605.0000721,-8388608,-8388608,-605.0000721,406.25,13312
605,8388607,-605.0000721,-8388608,-8388608,-605.0000721,408.203125,13376
605,8388607,-605.0000721,-8388608,-8388608,-605.0000721,410.15625,13440
605,8388607,-605.0000721,-8388608,-8388608,-605.0000721,412.109375,13504
605,8388607,-605.0000721,-8388608,-8388608,-605.0000721,414.0625,13568
605,8388607,-605.0000721,-8388608,-8388608,-605.0000721,416.015625,13632
605,8388607,-605.0000721,-8388608,-8388608,-605.0000721,417.96875,13696
605,8388607,-605.0000721,-8388608,-8388608,-605.0000721,419.921875,13760
605,8388607,-605.0000721,-8388608,-8388608,-605.0000721,421.875,13824
605,8388607,-605.0000721,-8388608,-8388608,-605.0000721,423.828125,13888
605,8388607,-605.0000721,-8388608,-8388608,-605.0000721,425.78125,13952
605,8388607,-605.0000721,-8388608,-8388608,-605.0000721,427.734375,14016
605,8388607,-605.0000721,-8388608,-8388608,-605.0000721,429.6875,14080
605,8388607,-605.0000721,-8388608,-8388608,-605.0000721,431.640625,14144
605,8388607,-605.0000721,-8388608,-8388608,-605.0000721,433.59375,14208
605,8388607,-605.0000721,-8388608,-8388608,-605.0000721,435.546875,14272
605,8388607,-605.0000721,-8388608,-8388608,-605.0000721,437.5,14336
605,8388607,-605.0000721,-8388608,-8388608,-605.0000721,439.453125,14400
605,8388607,-605.0000721,-8388608,-8388608,-605.0000721,441.40625,14464
605,8388607,-605.0000721,-8388608,-8388608,-605.0000721,443.359375,14528
605,8388607,-605.0000721,-8388608,-8388608,-605.0000721,445.3125,14592
605,8388607,-605.0000721,-8388608,-8388608,-605.0000721,447.265625,14656
605,8388607,-605.0000721,-8388608,-8388608,-605.0000721,449.21875,14720
605,8388607,-605.0000721,-8388608,-8388608,-605.0000721,451.171875,14784
605,8388607,-605.0000721,-8388608,-8388608,-605.0000721,453.125,14848
605,8388607,-605.0000721,-8388608,-8388608,-605.0000721,455.078125,14912
605,8388607,-605.0000721,-8388608,-8388608,-605.0000721,457.03125,14976
605,8388607,-605.0000721,-8388608,-8388608,-605.0000721,458.984375,15040
605,8388607,-605.0000721,-8388608,-8388608,-605.0000721,460.9375,15104
605,8388607,-605.0000721,-8388608,-8388608,-605.0000721,462.890625,15168
605,8388607,-605.0000721,-8388608,-8388608,-605.0000721,464.84375,15232
605,8388607,-605.0000721,-8388608,-8388608,-605.0000721,466.796875,15296
605,8388607,-605.0000721,-8388608,-8388608,-605.0000721,468.75,15360
605,8388607,-605.0000721,-8388608,-8388608,-605.0000721,470.703125,15424
605,8388607,-605.0000721,-8388608,-8388608,-605.0000721,472.65625,15488
605,8388607,-605.0000721,-8388608,-8388608,-605.0000721,474.609375,15552
605,8388607,-605.0000721,-8388608,-8388608,-605.0000721,476.5625,15616
605,8388607,-605.0000721,-8388608,-8388608,-605.0000721,478.515625,15680
605,8388607,-605.0000721,-8388608,-8388608,-605.0000721,480.46875,15744
605,8388607,-605.0000721,-8388608,-8388608,-605.0000721,482.421875,15808
605,8388607,-605.0000721,-8388608,-8388608,-605.0000721,484.375,15872
605,8388607,-605.0000721,-8388608,-8388608,-605.0000721,486.328125,15936
605,8388607,-605.0000721,-8388608,-8388608,-605.0000721,488.28125,16000
605,8388607,-605.0000721,-8388608,-8388608,-605.0000721,490.234375,16064
605,8388607,-605.0000721,-8388608,-8388608,-605.0000721,492.1875,16128
605,8388607,-605.0000721,-8388608,-8388608,-605.0000721,494.140625,16192
605,8388607,-605.0000721,-8388608,-8388608,-605.0000721,496.09375,16256
605,8388607,-605.0000721,-8388608,-8388608,-605.0000721,498.046875,16320
605,8388607,-605.0000721,-8388608,-8388608,-605.0000721,500,16384
605,8388607,-605.0000721,-8388608,-8388608,-605.0000721,501.953125,16448
605,8388607,-605.0000721,-8388608,-8388608,-605.0000721,503.90625,16512
605,8388607,-605.0000721,-8388608,-8388608,-605.0000721,505.859375,16576
605,8388607,-605.0000721,-8388608,-8388608,-605.0000721,507.8125,16640
605,8388607,-605.0000721,-8388608,-8388608,-605.0000721,509.765625,16704
605,8388607,-605.0000721,-8388608,-8388608,-605.0000721,511.71875,16768
605,8388607,-605.0000721,-8388608,-8388608,-605.0000721,513.671875,16832
605,8388607,-605.0000721,-8388608,-8388608,-605.0000721,515.625,16896
605,8388607,-605.0000721,-8388608,-8388608,-605.0000721,517.578125,16960
605,8388607,-605.0000721,-8388608,-8388608,-605.0000721,519.53125,17024
605,8388607,-605.0000721,-8388608,-8388608,-605.0000721,521.484375,17088
605,8388607,-605.0000721,-8388608,-8388608,-605.0000721,523.4375,17152
605,8388607,-605.0000721,-8388608,-8388608,-605.0000721,525.390625,17216
605,8388607,-605.0000721,-8388608,-8388608,-605.0000721,527.34375,17280
605,8388607,-605.0000721,-8388608,-8388608,-605.0000721,529.296875,17344
605,8388607,-605.0000721,-8388608,-8388608,-605.0000721,531.25,17408
605,8388607,-605.0000721,-8388608,-8388608,-605.0000721,533.203125,17472
605,8388607,-605.0000721,-8388608,-8388608,-605.0000721,535.15625,17536
605,8388607,-605.0000721,-8388608,-8388608,-605.0000721,537.109375,17600
605,8388607,-605.0000721,-8388608,-8388608,-605.0000721,539.0625,17664
605,8388607,-605.0000721,-8388608,-8388608,-605.0000721,541.015625,17728
605,8388607,-605.0000721,-8388608,-8388608,-605.0000721,542.96875,17792
605,8388607,-605.0000721,-8388608,-8388608,-605.0000721,544.921875,17856
605,8388607,-605.0000721,-8388608,-8388608,-605.0000721,546.875,17920
605,8388607,-605.0000721,-8388608,-8388608,-605.0000721,548.828125,17984
605,8388607,-605.0000721,-8388608,-8388608,-605.0000721,550.78125,18048
605,8388607,-605.0000721,-8388608,-8388608,-605.0000721,552.734375,18112
605,8388607,-605.0000721,-8388608,-8388608,-605.0000721,554.6875,18176
605,8388607,-605.0000721,-8388608,-8388608,-605.0000721,556.640625,18240
605,8388607,-605.0000721,-8388608,-8388608,-605.0000721,558.59375,18304
605,8388607,-605.0000721,-8388608,-8388608,-605.0000721,560.546875,18368
605,8388607,-605.0000721,-8388608,-8388608,-605.0000721,562.5,18432
605,8388607,-605.0000721,-8388608,-8388608,-605.0000721,564.453125,18496
605,8388607,-605.0000721,-8388608,-8388608,-605.0000721,566.40625,18560
605,8388607,-605.0000721,-8388608,-8388608,-605.0000721,568.359375,18624
605,8388607,-605.0000721,-8388608,-8388608,-605.0000721,570.3125,18688
605,8388607,-605.0000721,-8388608,-8388608,-605.0000721,572.265625,18752
605,8388607,-605.0000721,-8388608,-8388608,-605.0000721,574.21875,18816
605,8388607,-605.0000721,-8388608,-8388608,-605.0000721,576.171875,18880
605,8388607,-605.0000721,-8388608,-8388608,-605.0000721,578.125,18944
605,8388607,-605.0000721,-8388608,-8388608,-605.0000721,580.078125,19008
605,8388607,-605.0000721,-8388608,-8388608,-605.0000721,582.03125,19072
605,8388607,-605.0000721,-8388608,-8388608,-605.0000721,583.984375,19136
605,8388607,-605.0000721,-8388608,-8388608,-605.0000721,585.9375,19200
605,8388607,-605.0000721,-8388608,-8388608,-605.0000721,587.890625,19264
605,8388607,-605.0000721,-8388608,-8388608,-605.0000721,589.84375,19328
605,8388607,-605.0000721,-8388608,-8388608,-605.0000721,591.796875,19392
605,8388607,-605.0000721,-8388608,-8388608,-605.0000721,593.75,19456
605,8388607,-605.0000721,-8388608,-8388608,-605.0000721,595.703125,19520
605,8388607,-605.0000721,-8388608,-8388608,-605.0000721,597.65625,19584
605,8388607,-605.0000721,-8388608,-8388608,-605.0000721,599.609375,19648
605,8388607,-605.0000721,-8388608,-8388608,-605.0000721,601.5625,19712
605,8388607,-605.0000721,-8388608,-8388608,-605.0000721,603.515625,19776
605,8388607,-605.0000721,-8388608,-8388608,-605.0000721,605.46875,19840
605,8388607,-605.0000721,-8388608,-8388608,-605.0000721,607.421875,19904
605,8388607,-605.0000721,-8388608,-8388608,-605.0000721,609.375,19968
605,8388607,-605.0000721,-8388608,-8388608,-605.0000721,611.328125,20032
605,8388607,-605.0000721,-8388608,-8388608,-605.0000721,613.28125,20096
605,8388607,-605.0000721,-8388608,-8388608,-605.0000721,615.234375,20160
605,8388607,-605.0000721,-8388608,-8388608,-605.0000721,617.1875,20224
605,8388607,-605.0000721,-8388608,-8388608,-605.0000721,619.140625,20288
605,8388607,-605.0000721,-8388608,-8388608,-605.0000721,621.09375,20352
605,8388607,-605.0000721,-8388608,-8388608,-605.0000721,623.046875,20416
605,8388607,-605.0000721,-8388608,-8388608,-605.0000721,625,20480
605,8388607,-605.0000721,-8388608,-8388608,-605.0000721,626.953125,20544
605,8388607,-605.0000721,-8388608,-8388608,-605.0000721,628.90625,20608
605,8388607,-605.0000721,-8388608,-8388608,-605.0000721,630.859375,20672
605,8388607,-605.0000721,-8388608,-8388608,-605.0000721,632.8125,20736
605,8388607,-605.0000721,-8388608,-8388608,-605.0000721,634.765625,20800
605,8388607,-605.0000721,-8388608,-8388608,-605.0000721,636.71875,20864
605,8388607,-605.0000721,-8388608,-8388608,-605.0000721,638.671875,20928
605,8388607,-605.0000721,-8388608,-8388608,-605.0000721,640.625,20992
605,8388607,-605.0000721,-8388608,-8388608,-605.0000721,642.578125,21056
605,8388607,-605.0000721,-8388608,-8388608,-605.0000721,644.53125,21120
605,8388607,-605.0000721,-8388608,-8388608,-605.0000721,646.484375,21184
605,8388607,-605.0000721,-8388608,-8388608,-605.0000721,648.4375,21248
605,8388607,-605.0000721,-8388608,-8388608,-605.0000721,650.390625,21312
605,8388607,-605.0000721,-8388608,-8388608,-605.0000721,652.34375,21376
605,8388607,-605.0000721,-8388608,-8388608,-605.0000721,654.296875,21440
605,8388607,-605.0000721,-8388608,-8388608,-605.0000721,656.25,21504
605,8388607,-605.0000721,-8388608,-8388608,-605.0000721,658.203125,21568
605,8388607,-605.0000721,-8388608,-8388608,-605.0000721,660.15625,21632
605,8388607,-605.0000721,-8388608,-8388608,-605.0000721,662.109375,21696
605,8388607,-605.0000721,-8388608,-8388608,-605.0000721,664.0625,21760
605,8388607,-605.0000721,-8388608,-8388608,-605.0000721,666.015625,21824
605,8388607,-605.0000721,-8388608,-8388608,-605.0000721,667.96875,21888
605,8388607,-605.0000721,-8388608,-8388608,-605.0000721,669.921875,21952
605,8388607,-605.0000721,-8388608,-8388608,-605.0000721,671.875,22016
605,8388607,-605.0000721,-8388608,-8388608,-605.0000721,673.828125,22080
605,8388607,-605.0000721,-8388608,-8388608,-605.0000721,675.78125,22144
605,8388607,-605.0000721,-8388608,-8388608,-605.0000721,677.734375,22208
605,8388607,-605.0000721,-8388608,-8388608,-605.0000721,679.6875,22272
605,8388607,-605.0000721,-8388608,-8388608,-605.0000721,681.640625,22336
605,8388607,-605.0000721,-8388608,-8388608,-605.0000721,683.59375,22400
605,8388607,-605.0000721,-8388608,-8388608,-605.0000721,685.546875,22464
605,8388607,-605.0000721,-8388608,-8388608,-605.0000721,687.5,22528
605,8388607,-605.0000721,-8388608,-8388608,-605.0000721,689.453125,22592
605,8388607,-605.0000721,-8388608,-8388608,-605.0000721,691.40625,22656
605,8388607,-605.0000721,-8388608,-8388608,-605.0000721,693.359375,22720
605,8388607,-605.0000721,-8388608,-8388608,-605.0000721,695.3125,22784
605,8388607,-605.0000721,-8388608,-8388608,-605.0000721,697.265625,22848
605,8388607,-605.0000721,-8388608,-8388608,-605.0000721,699.21875,22912
605,8388607,-605.0000721,-8388608,-8388608,-605.0000721,701.171875,22976
605,8388607,-605.0000721,-8388608,-8388608,-605.0000721,703.125,23040
605,8388607,-605.0000721,-8388608,-8388608,-605.0000721,705.078125,23104
605,8388607,-605.0000721,-8388608,-8388608,-605.0000721,707.03125,23168
605,8388607,-605.0000721,-8388608,-8388608,-605.0000721,708.984375,23232
605,8388607,-605.0000721,-8388608,-8388608,-605.0000721,710.9375,23296
605,8388607,-605.0000721,-8388608,-8388608,-605.0000721,712.890625,23360
605,8388607,-605.0000721,-8388608,-8388608,-605.0000721,714.84375,23424
605,8388607,-605.0000721,-8388608,-8388608,-605.0000721,716.796875,23488
605,8388607,-605.0000721,-8388608,-8388608,-605.0000721,718.75,23552
605,8388607,-605.0000721,-8388608,-8388608,-605.0000721,720.703125,23616
605,8388607,-605.0000721,-8388608,-8388608,-605.0000721,722.65625,23680
605,8388607,-605.0000721,-8388608,-8388608,-605.0000721,724.609375,23744
605,8388607,-605.0000721,-8388608,-8388608,-605.0000721,726.5625,23808
605,8388607,-605.0000721,-8388608,-8388608,-605.0000721,728.515625,23872
605,8388607,-605.0000721,-8388608,-8388608,-605.0000721,730.46875,23936
605,8388607,-605.0000721,-8388608,-8388608,-605.0000721,732.421875,24000
605,8388607,-605.0000721,-8388608,-8388608,-605.0000721,734.375,24064
605,8388607,-605.0000721,-8388608,-8388608,-605.0000721,736.328125,24128
605,8388607,-605.0000721,-8388608,-8388608,-605.0000721,738.28125,24192
605,8388607,-605.0000721,-8388608,-8388608,-605.0000721,740.234375,24256
605,8388607,-605.0000721,-8388608,-8388608,-605.0000721,742.1875,24320
605,8388607,-605.0000721,-8388608,-8388608,-605.0000721,744.140625,24384
605,8388607,-605.0000721,-8388608,-8388608,-605.0000721,746.09375,24448
605,8388607,-605.0000721,-8388608,-8388608,-605.0000721,748.046875,24512
605,8388607,-605.0000721,-8388608,-8388608,-605.0000721,750,24576
605,8388607,-605.0000721,-8388608,-8388608,-605.0000721,751.953125,24640
605,8388607,-605.0000721,-8388608,-8388608,-605.0000721,753.90625,24704
605,8388607,-605.0000721,-8388608,-8388608,-605.0000721,755.859375,24768
605,8388607,-605.0000721,-8388608,-8388608,-605.0000721,757.8125,24832
605,8388607,-605.0000721,-8388608,-8388608,-605.0000721,759.765625,24896
605,8388607,-605.0000721,-8388608,-8388608,-605.0000721,761.71875,24960
605,8388607,-605.0000721,-8388608,-8388608,-605.0000721,763.671875,25024
605,8388607,-605.0000721,-8388608,-8388608,-605.0000721,765.625,25088
605,8388607,-605.0000721,-8388608,-8388608,-605.0000721,767.578125,25152
605,8388607,-605.0000721,-8388608,-8388608,-605.0000721,769.53125,25216
605,8388607,-605.0000721,-8388608,-8388608,-605.0000721,771.484375,25280
605,8388607,-605.0000721,-8388608,-8388608,-605.0000721,773.4375,25344
605,8388607,-605.0000721,-8388608,-8388608,-605.0000721,775.390625,25408
605,8388607,-605.0000721,-8388608,-8388608,-605.0000721,777.34375,25472
605,8388607,-605.0000721,-8388608,-8388608,-605.0000721,779.296875,25536
605,8388607,-605.0000721,-8388608,-8388608,-605.0000721,781.25,25600
605,8388607,-605.0000721,-8388608,-8388608,-605.0000721,783.203125,25664
605,8388607,-605.0000721,-8388608,-8388608,-605.0000721,785.15625,25728
605,8388607,-605.0000721,-8388608,-8388608,-605.0000721,787.109375,25792
605,8388607,-605.0000721,-8388608,-8388608,-605.0000721,789.0625,25856
605,8388607,-605.0000721,-8388608,-8388608,-605.0000721,791.015625,25920
605,8388607,-605.0000721,-8388608,-8388608,-605.0000721,792.96875,25984
605,8388607,-605.0000721,-8388608,-8388608,-605.0000721,794.921875,26048
605,8388607,-605.0000721,-8388608,-8388608,-605.0000721,796.875,26112
605,8388607,-605.0000721,-8388608,-8388608,-605.0000721,798.828125,26176
605,8388607,-605.0000721,-8388608,-8388608,-605.0000721,800.78125,26240
605,8388607,-605.0000721,-8388608,-8388608,-605.0000721,802.734375,26304
605,8388607,-605.0000721,-8388608,-8388608,-605.0000721,804.6875,26368
605,8388607,-605.0000721,-8388608,-8388608,-605.0000721,806.640625,26432
605,8388607,-605.0000721,-8388608,-8388608,-605.0000721,808.59375,26496
605,8388607,-605.0000721,-8388608,-8388608,-605.0000721,810.546875,26560
605,8388607,-605.0000721,-8388608,-8388608,-605.0000721,812.5,26624
605,8388607,-605.0000721,-8388608,-8388608,-605.0000721,814.453125,26688
605,8388607,-605.0000721,-8388608,-8388608,-605.0000721,816.40625,26752
605,8388607,-605.0000721,-8388608,-8388608,-605.0000721,818.359375,26816
605,8388607,-605.0000721,-8388608,-8388608,-605.0000721,820.3125,26880
605,8388607,-605.0000721,-8388608,-8388608,-605.0000721,822.265625,26944
605,8388607,-605.0000721,-8388608,-8388608,-605.0000721,824.21875,27008
605,8388607,-605.0000721,-8388608,-8388608,-605.0000721,826.171875,27072
2.36320941,32767,-2.363281532,-32768,-32768,-2.363281532,828.125,27136
0.009159447,127,-0.009231568,-128,-128,-0.009231568,830.078125,27200
0.009159447,127,-0.009231568,-128,65535,4.726490942,832.03125,27264
0.009159447,127,-0.009231568,-128,65535,4.726490942,833.984375,27328
0.009159447,127,-0.009231568,-128,32767,2.36320941,835.9375,27392
0.009159447,127,-0.009231568,-128,31,0.00223577,837.890625,27456
-605.0000721,-8388608,-302.5000361,-4194304,0,0,839.84375,27520
-2.363281532,-32768,3.544922298,49152,49152,3.544922298,841.796875,27584
-2.363281532,-32768,3.544922298,49152,0,0,843.75,27648
-2.363281532,-32768,3.544922298,49152,0,0,845.703125,27712
605,8388607,-605.0000721,-8388608,0,0,847.65625,27776
605,8388607,-605.0000721,-8388608,-8388608,-605.0000721,849.609375,27840
605,8388607,-605.0000721,-8388608,-8388608,-605.0000721,851.5625,27904
605,8388607,-605.0000721,-8388608,-8388608,-605.0000721,853.515625,27968
605,8388607,-605.0000721,-8388608,-8388608,-605.0000721,855.46875,28032
605,8388607,-605.0000721,-8388608,-8388608,-605.0000721,857.421875,28096
605,8388607,-605.0000721,-8388608,-8388608,-605.0000721,859.375,28160
605,8388607,-605.0000721,-8388608,-8388608,-605.0000721,861.328125,28224
605,8388607,-605.0000721,-8388608,-8388608,-605.0000721,863.28125,28288
605,8388607,-605.0000721,-8388608,-8388608,-605.0000721,865.234375,28352
605,8388607,-605.0000721,-8388608,-8388608,-605.0000721,867.1875,28416
605,8388607,-605.0000721,-8388608,-8388608,-605.0000721,869.140625,28480
605,8388607,-605.0000721,-8388608,-8388608,-605.0000721,871.09375,28544
605,8388607,-605.0000721,-8388608,-8388608,-605.0000721,873.046875,28608
605,8388607,-605.0000721,-8388608,-8388608,-605.0000721,875,28672
605,8388607,-605.0000721,-8388608,-8388608,-605.0000721,876.953125,28736
605,8388607,-605.0000721,-8388608,-8388608,-605.0000721,878.90625,28800
605,8388607,-605.0000721,-8388608,-8388608,-605.0000721,880.859375,28864
605,8388607,-605.0000721,-8388608,-8388608,-605.0000721,882.8125,28928
605,8388607,-605.0000721,-8388608,-8388608,-605.0000721,884.765625,28992
605,8388607,-605.0000721,-8388608,-8388608,-605.0000721,886.71875,29056
605,8388607,-605.0000721,-8388608,-8388608,-605.0000721,888.671875,29120
605,8388607,-605.0000721,-8388608,-8388608,-605.0000721,890.625,29184
605,8388607,-605.0000721,-8388608,-8388608,-605.0000721,892.578125,29248
605,8388607,-605.0000721,-8388608,-8388608,-605.0000721,894.53125,29312
605,8388607,-605.0000721,-8388608,-8388608,-605.0000721,896.484375,29376
605,8388607,-605.0000721,-8388608,-8388608,-605.0000721,898.4375,29440
605,8388607,-605.0000721,-8388608,-8388608,-605.0000721,900.390625,29504
605,8388607,-605.0000721,-8388608,-8388608,-605.0000721,902.34375,29568
605,8388607,-605.0000721,-8388608,-8388608,-605.0000721,904.296875,29632
605,8388607,-605.0000721,-8388608,-8388608,-605.0000721,906.25,29696
605,8388607,-605.0000721,-8388608,-8388608,-605.0000721,908.203125,29760
605,8388607,-605.0000721,-8388608,-8388608,-605.0000721,910.15625,29824
605,8388607,-605.0000721,-8388608,-8388608,-605.0000721,912.109375,29888
605,8388607,-605.0000721,-8388608,-8388608,-605.0000721,914.0625,29952
605,8388607,-605.0000721,-8388608,-8388608,-605.0000721,916.015625,30016
605,8388607,-605.0000721,-8388608,-8388608,-605.0000721,917.96875,30080
605,8388607,-605.0000721,-8388608,-8388608,-605.0000721,919.921875,30144
605,8388607,-605.0000721,-8388608,-8388608,-605.0000721,921.875,30208
605,8388607,-605.0000721,-8388608,-8388608,-605.0000721,923.828125,30272
605,8388607,-605.0000721,-8388608,-8388608,-605.0000721,925.78125,30336
605,8388607,-605.0000721,-8388608,-8388608,-605.0000721,927.734375,30400
605,8388607,-605.0000721,-8388608,-8388608,-605.0000721,929.6875,30464
605,8388607,-605.0000721,-8388608,-8388608,-605.0000721,931.640625,30528
605,8388607,-605.0000721,-8388608,-8388608,-605.0000721,933.59375,30592
605,8388607,-605.0000721,-8388608,-8388608,-605.0000721,935.546875,30656
605,8388607,-605.0000721,-8388608,-8388608,-605.0000721,937.5,30720
605,8388607,-605.0000721,-8388608,-8388608,-605.0000721,939.453125,30784
605,8388607,-605.0000721,-8388608,-8388608,-605.0000721,941.40625,30848
605,8388607,-605.0000721,-8388608,-8388608,-605.0000721,943.359375,30912
605,8388607,-605.0000721,-8388608,-8388608,-605.0000721,945.3125,30976
605,8388607,-605.0000721,-8388608,-8388608,-605.0000721,947.265625,31040
605,8388607,-605.0000721,-8388608,-8388608,-605.0000721,949.21875,31104
605,8388607,-605.0000721,-8388608,-8388608,-605.0000721,951.171875,31168
605,8388607,-605.0000721,-8388608,-8388608,-605.0000721,953.125,31232
605,8388607,-605.0000721,-8388608,-8388608,-605.0000721,955.078125,31296
605,8388607,-605.0000721,-8388608,-8388608,-605.0000721,957.03125,31360
605,8388607,-605.0000721,-8388608,-8388608,-605.0000721,958.984375,31424
605,8388607,-605.0000721,-8388608,-8388608,-605.0000721,960.9375,31488
605,8388607,-605.0000721,-8388608,-8388608,-605.0000721,962.890625,31552
605,8388607,-605.0000721,-8388608,-8388608,-605.0000721,964.84375,31616
605,8388607,-605.0000721,-8388608,-8388608,-605.0000721,966.796875,31680
605,8388607,-605.0000721,-8388608,-8388608,-605.0000721,968.75,31744
605,8388607,-605.0000721,-8388608,-8388608,-605.0000721,970.703125,31808
605,8388607,-605.0000721,-8388608,-8388608,-605.0000721,972.65625,31872
605,8388607,-605.0000721,-8388608,-8388608,-605.0000721,974.609375,31936
605,8388607,-605.0000721,-8388608,-8388608,-605.0000721,976.5625,32000
605,8388607,-605.0000721,-8388608,-8388608,-605.0000721,978.515625,32064
605,8388607,-605.0000721,-8388608,-8388608,-605.0000721,980.46875,32128
605,8388607,-605.0000721,-8388608,-8388608,-605.0000721,982.421875,32192
605,8388607,-605.0000721,-8388608,-8388608,-605.0000721,984.375,32256
605,8388607,-605.0000721,-8388608,-8388608,-605.0000721,986.328125,32320
605,8388607,-605.0000721,-8388608,-8388608,-605.0000721,988.28125,32384
605,8388607,-605.0000721,-8388608,-8388608,-605.0000721,990.234375,32448
605,8388607,-605.0000721,-8388608,-8388608,-605.0000721,992.1875,32512
605,8388607,-605.0000721,-8388608,-8388608,-605.0000721,994.140625,32576
605,8388607,-605.0000721,-8388608,-8388608,-605.0000721,996.09375,32640
605,8388607,-605.0000721,-8388608,-8388608,-605.0000721,998.046875,32704
605,8388607,-605.0000721,-8388608,-8388608,-605.0000721,1000,32768
605,8388607,-605.0000721,-8388608,-8388608,-605.0000721,1001.953125,32832
605,8388607,-605.0000721,-8388608,-8388608,-605.0000721,1003.90625,32896
605,8388607,-605.0000721,-8388608,-8388608,-605.0000721,1005.859375,32960
605,8388607,-605.0000721,-8388608,-8388608,-605.0000721,1007.8125,33024
605,8388607,-605.0000721,-8388608,-8388608,-605.0000721,1009.765625,33088
605,8388607,-605.0000721,-8388608,-8388608,-605.0000721,1011.71875,33152
605,8388607,-605.0000721,-8388608,-8388608,-605.0000721,1013.671875,33216
605,8388607,-605.0000721,-8388608,-8388608,-605.0000721,1015.625,33280
605,8388607,-605.0000721,-8388608,-8388608,-605.0000721,1017.578125,33344
605,8388607,-605.0000721,-8388608,-8388608,-605.0000721,1019.53125,33408
605,8388607,-605.0000721,-8388608,-8388608,-605.0000721,1021.484375,33472
605,8388607,-605.0000721,-8388608,-8388608,-605.0000721,1023.4375,33536
605,8388607,-605.0000721,-8388608,-8388608,-605.0000721,1025.390625,33600
605,8388607,-480.669452,-6664706,-8386561,-604.8524391,1027.34375,33664
605,8388607,-442.8514663,-6140342,-8384926,-604.7345203,1029.296875,33728
605,8388607,-416.473269,-5774596,-8331204,-600.8600021,1031.25,33792
605,8388607,-358.6517726,-4972874,-8384526,-604.7056716,1033.203125,33856
605,8388607,-389.1331135,-5395512,-8355840,-602.6367906,1035.15625,33920
605,8388607,-573.1979678,-7947657,-8351885,-602.3515495,1037.109375,33984
605,8388607,-605.0000721,-8388608,-8388608,-605.0000721,1039.0625,34048
605,8388607,-605.0000721,-8388608,-8388608,-605.0000721,1041.015625,34112
605,8388607,-605.0000721,-8388608,-8388608,-605.0000721,1042.96875,34176
605,8388607,-605.0000721,-8388608,-8388608,-605.0000721,1044.921875,34240
605,8388607,-605.0000721,-8388608,-8388608,-605.0000721,1046.875,34304
605,8388607,-605.0000721,-8388608,-8388608,-605.0000721,1048.828125,34368
605,8388607,-605.0000721,-8388608,-8388608,-605.0000721,1050.78125,34432
605,8388607,-605.0000721,-8388608,-8388608,-605.0000721,1052.734375,34496
605,8388607,-605.0000721,-8388608,-8388608,-605.0000721,1054.6875,34560
605,8388607,-605.0000721,-8388608,-8388608,-605.0000721,1056.640625,34624
605,8388607,-605.0000721,-8388608,-8388608,-605.0000721,1058.59375,34688
605,8388607,-605.0000721,-8388608,-8388608,-605.0000721,1060.546875,34752
605,8388607,-605.0000721,-8388608,-8388608,-605.0000721,1062.5,34816
605,8388607,-605.0000721,-8388608,-8388608,-605.0000721,1064.453125,34880
605,8388607,-605.0000721,-8388608,-8388608,-605.0000721,1066.40625,34944
605,8388607,-605.0000721,-8388608,-8388608,-605.0000721,1068.359375,35008
605,8388607,-605.0000721,-8388608,-8388608,-605.0000721,1070.3125,35072
605,8388607,-605.0000721,-8388608,-8388608,-605.0000721,1072.265625,35136
605,8388607,-605.0000721,-8388608,-8388608,-605.0000721,1074.21875,35200
605,8388607,-605.0000721,-8388608,-8388608,-605.0000721,1076.171875,35264
605,8388607,-605.0000721,-8388608,-8388608,-605.0000721,1078.125,35328
605,8388607,-605.0000721,-8388608,-8388608,-605.0000721,1080.078125,35392
605,8388607,-605.0000721,-8388608,-8388608,-605.0000721,1082.03125,35456
605,8388607,-605.0000721,-8388608,-8388608,-605.0000721,1083.984375,35520
605,8388607,-605.0000721,-8388608,-8388608,-605.0000721,1085.9375,35584
605,8388607,-605.0000721,-8388608,-8388608,-605.0000721,1087.890625,35648
605,8388607,-605.0000721,-8388608,-8388608,-605.0000721,1089.84375,35712
605,8388607,-605.0000721,-8388608,-8388608,-605.0000721,1091.796875,35776
605,8388607,-605.0000721,-8388608,-8388608,-605.0000721,1093.75,35840
605,8388607,-605.0000721,-8388608,-8388608,-605.0000721,1095.703125,35904
605,8388607,-605.0000721,-8388608,-8388608,-605.0000721,1097.65625,35968
605,8388607,-605.0000721,-8388608,-8388608,-605.0000721,1099.609375,36032
605,8388607,-605.0000721,-8388608,-8388608,-605.0000721,1101.5625,36096
605,8388607,-605.0000721,-8388608,-8388608,-605.0000721,1103.515625,36160
605,8388607,-605.0000721,-8388608,-8388608,-605.0000721,1105.46875,36224
605,8388607,-605.0000721,-8388608,-8388608,-605.0000721,1107.421875,36288
605,8388607,-605.0000721,-8388608,-8388608,-605.0000721,1109.375,36352
605,8388607,-605.0000721,-8388608,-8388608,-605.0000721,1111.328125,36416
605,8388607,-605.0000721,-8388608,-8388608,-605.0000721,1113.28125,36480
605,8388607,-605.0000721,-8388608,-8388608,-605.0000721,1115.234375,36544
605,8388607,-605.0000721,-8388608,-8388608,-605.0000721,1117.1875,36608
605,8388607,-605.0000721,-8388608,-8388608,-605.0000721,1119.140625,36672
605,8388607,-605.0000721,-8388608,-8388608,-605.0000721,1121.09375,36736
605,8388607,-605.0000721,-8388608,-8388608,-605.0000721,1123.046875,36800
605,8388607,-605.0000721,-8388608,-8388608,-605.0000721,1125,36864
605,8388607,-605.0000721,-8388608,-8388608,-605.0000721,1126.953125,36928
605,8388607,-605.0000721,-8388608,-8388608,-605.0000721,1128.90625,36992
605,8388607,-605.0000721,-8388608,-8388608,-605.0000721,1130.859375,37056
605,8388607,-605.0000721,-8388608,-8388608,-605.0000721,1132.8125,37120
605,8388607,-605.0000721,-8388608,-8388608,-605.0000721,1134.765625,37184
605,8388607,-605.0000721,-8388608,-8388608,-605.0000721,1136.71875,37248
605,8388607,-605.0000721,-8388608,-8388608,-605.0000721,1138.671875,37312
605,8388607,-605.0000721,-8388608,-8388608,-605.0000721,1140.625,37376
605,8388607,-605.0000721,-8388608,-8388608,-605.0000721,1142.578125,37440
605,8388607,-605.0000721,-8388608,-8388608,-605.0000721,1144.53125,37504
605,8388607,-605.0000721,-8388608,-8388608,-605.0000721,1146.484375,37568
605,8388607,-605.0000721,-8388608,-8388608,-605.0000721,1148.4375,37632
605,8388607,-605.0000721,-8388608,-8388608,-605.0000721,1150.390625,37696
605,8388607,-605.0000721,-8388608,-8388608,-605.0000721,1152.34375,37760
605,8388607,-605.0000721,-8388608,-8388608,-605.0000721,1154.296875,37824
605,8388607,-605.0000721,-8388608,-8388608,-605.0000721,1156.25,37888
605,8388607,-605.0000721,-8388608,-8388608,-605.0000721,1158.203125,37952
605,8388607,-605.0000721,-8388608,-8388608,-605.0000721,1160.15625,38016
605,8388607,-605.0000721,-8388608,-8388608,-605.0000721,1162.109375,38080
605,8388607,-605.0000721,-8388608,-8388608,-605.0000721,1164.0625,38144
605,8388607,-605.0000721,-8388608,-8388608,-605.0000721,1166.015625,38208
605,8388607,-605.0000721,-8388608,-8388608,-605.0000721,1167.96875,38272
605,8388607,-605.0000721,-8388608,-8388608,-605.0000721,1169.921875,38336
605,8388607,-605.0000721,-8388608,-8388608,-605.0000721,1171.875,38400
605,8388607,-605.0000721,-8388608,-8388608,-605.0000721,1173.828125,38464
605,8388607,-605.0000721,-8388608,-8388608,-605.0000721,1175.78125,38528
605,8388607,-605.0000721,-8388608,-8388608,-605.0000721,1177.734375,38592
605,8388607,-605.0000721,-8388608,-8388608,-605.0000721,1179.6875,38656
605,8388607,-605.0000721,-8388608,-8388608,-605.0000721,1181.640625,38720
605,8388607,-605.0000721,-8388608,-8388608,-605.0000721,1183.59375,38784
605,8388607,-605.0000721,-8388608,-8388608,-605.0000721,1185.546875,38848
605,8388607,-605.0000721,-8388608,-8388608,-605.0000721,1187.5,38912
605,8388607,-605.0000721,-8388608,-8388608,-605.0000721,1189.453125,38976
605,8388607,-605.0000721,-8388608,-8388608,-605.0000721,1191.40625,39040
605,8388607,-605.0000721,-8388608,-8388608,-605.0000721,1193.359375,39104
605,8388607,-605.0000721,-8388608,-8388608,-605.0000721,1195.3125,39168
605,8388607,-605.0000721,-8388608,-8388608,-605.0000721,1197.265625,39232
605,8388607,-605.0000721,-8388608,-8388608,-605.0000721,1199.21875,39296
605,8388607,-605.0000721,-8388608,-8388608,-605.0000721,1201.171875,39360
605,8388607,-605.0000721,-8388608,-8388608,-605.0000721,1203.125,39424
605,8388607,-605.0000721,-8388608,-8388608,-605.0000721,1205.078125,39488
605,8388607,-605.0000721,-8388608,-8388608,-605.0000721,1207.03125,39552
605,8388607,-605.0000721,-8388608,-8388608,-605.0000721,1208.984375,39616
605,8388607,-605.0000721,-8388608,-8388608,-605.0000721,1210.9375,39680
605,8388607,-605.0000721,-8388608,-8388608,-605.0000721,1212.890625,39744
605,8388607,-605.0000721,-8388608,-8388608,-605.0000721,1214.84375,39808
605,8388607,-605.0000721,-8388608,-8388608,-605.0000721,1216.796875,39872
605,8388607,-605.0000721,-8388608,-8388608,-605.0000721,1218.75,39936
605,8388607,-605.0000721,-8388608,-8388608,-605.0000721,1220.703125,40000
605,8388607,-605.0000721,-8388608,-8388608,-605.0000721,1222.65625,40064
605,8388607,-605.0000721,-8388608,-8388608,-605.0000721,1224.609375,40128
605,8388607,-605.0000721,-8388608,-8388608,-605.0000721,1226.5625,40192
605,8388607,-605.0000721,-8388608,-8388608,-605.0000721,1228.515625,40256
605,8388607,-605.0000721,-8388608,-8388608,-605.0000721,1230.46875,40320
605,8388607,-605.0000721,-8388608,-8388608,-605.0000721,1232.421875,40384
605,8388607,-605.0000721,-8388608,-8388608,-605.0000721,1234.375,40448
605,8388607,-605.0000721,-8388608,-8388608,-605.0000721,1236.328125,40512
605,8388607,-605.0000721,-8388608,-8388608,-605.0000721,1238.28125,40576
605,8388607,-605.0000721,-8388608,-8388608,-605.0000721,1240.234375,40640
605,8388607,-605.0000721,-8388608,-8388608,-605.0000721,1242.1875,40704
605,8388607,-605.0000721,-8388608,-8388608,-605.0000721,1244.140625,40768
605,8388607,-605.0000721,-8388608,-8388608,-605.0000721,1246.09375,40832
605,8388607,-605.0000721,-8388608,-8388608,-605.0000721,1248.046875,40896
605,8388607,-605.0000721,-8388608,-8388608,-605.0000721,1250,40960
605,8388607,-605.0000721,-8388608,-8388608,-605.0000721,1251.953125,41024
605,8388607,-605.0000721,-8388608,-8388608,-605.0000721,1253.90625,41088
605,8388607,-605.0000721,-8388608,-8388608,-605.0000721,1255.859375,41152
605,8388607,-605.0000721,-8388608,-8388608,-605.0000721,1257.8125,41216
605,8388607,-605.0000721,-8388608,-8388608,-605.0000721,1259.765625,41280
605,8388607,-605.0000721,-8388608,-8388608,-605.0000721,1261.71875,41344
605,8388607,-605.0000721,-8388608,-8388608,-605.0000721,1263.671875,41408
605,8388607,-605.0000721,-8388608,-8388608,-605.0000721,1265.625,41472
605,8388607,-605.0000721,-8388608,-8388608,-605.0000721,1267.578125,41536
605,8388607,-605.0000721,-8388608,-8388608,-605.0000721,1269.53125,41600
605,8388607,-605.0000721,-8388608,-8388608,-605.0000721,1271.484375,41664
605,8388607,-605.0000721,-8388608,-8388608,-605.0000721,1273.4375,41728
605,8388607,-605.0000721,-8388608,-8388608,-605.0000721,1275.390625,41792
605,8388607,-605.0000721,-8388608,-8388608,-605.0000721,1277.34375,41856
605,8388607,-605.0000721,-8388608,-8388608,-605.0000721,1279.296875,41920
605,8388607,-605.0000721,-8388608,-8388608,-605.0000721,1281.25,41984
605,8388607,-605.0000721,-8388608,-8388608,-605.0000721,1283.203125,42048
605,8388607,-605.0000721,-8388608,-8388608,-605.0000721,1285.15625,42112
605,8388607,-605.0000721,-8388608,-8388608,-605.0000721,1287.109375,42176
605,8388607,-605.0000721,-8388608,-8388608,-605.0000721,1289.0625,42240
605,8388607,-605.0000721,-8388608,-8388608,-605.0000721,1291.015625,42304
605,8388607,-605.0000721,-8388608,-8388608,-605.0000721,1292.96875,42368
605,8388607,-605.0000721,-8388608,-8388608,-605.0000721,1294.921875,42432
605,8388607,-605.0000721,-8388608,-8388608,-605.0000721,1296.875,42496
605,8388607,-605.0000721,-8388608,-8388608,-605.0000721,1298.828125,42560
605,8388607,-605.0000721,-8388608,-8388608,-605.0000721,1300.78125,42624
605,8388607,-605.0000721,-8388608,-8388608,-605.0000721,1302.734375,42688
605,8388607,-605.0000721,-8388608,-8388608,-605.0000721,1304.6875,42752
605,8388607,-605.0000721,-8388608,-8388608,-605.0000721,1306.640625,42816
605,8388607,-605.0000721,-8388608,-8388608,-605.0000721,1308.59375,42880
605,8388607,-605.0000721,-8388608,-8388608,-605.0000721,1310.546875,42944
605,8388607,-605.0000721,-8388608,-8388608,-605.0000721,1312.5,43008
605,8388607,-605.0000721,-8388608,-8388608,-605.0000721,1314.453125,43072
605,8388607,-605.0000721,-8388608,-8388608,-605.0000721,1316.40625,43136
605,8388607,-605.0000721,-8388608,-8388608,-605.0000721,1318.359375,43200
605,8388607,-605.0000721,-8388608,-8388608,-605.0000721,1320.3125,43264
605,8388607,-605.0000721,-8388608,-8388608,-605.0000721,1322.265625,43328
605,8388607,-605.0000721,-8388608,-8388608,-605.0000721,1324.21875,43392
605,8388607,-605.0000721,-8388608,-8388608,-605.0000721,1326.171875,43456
605,8388607,-605.0000721,-8388608,-8388608,-605.0000721,1328.125,43520
605,8388607,-605.0000721,-8388608,-8388608,-605.0000721,1330.078125,43584
605,8388607,-605.0000721,-8388608,-8388608,-605.0000721,1332.03125,43648
605,8388607,-605.0000721,-8388608,-8388608,-605.0000721,1333.984375,43712
605,8388607,-605.0000721,-8388608,-8388608,-605.0000721,1335.9375,43776
605,8388607,-605.0000721,-8388608,-8388608,-605.0000721,1337.890625,43840
605,8388607,-605.0000721,-8388608,-8388608,-605.0000721,1339.84375,43904
605,8388607,-605.0000721,-8388608,-8388608,-605.0000721,1341.796875,43968
605,8388607,-605.0000721,-8388608,-8388608,-605.0000721,1343.75,44032
605,8388607,-605.0000721,-8388608,-8388608,-605.0000721,1345.703125,44096
605,8388607,-605.0000721,-8388608,-8388608,-605.0000721,1347.65625,44160
605,8388607,-605.0000721,-8388608,-8388608,-605.0000721,1349.609375,44224
605,8388607,-605.0000721,-8388608,-8388608,-605.0000721,1351.5625,44288
605,8388607,-605.0000721,-8388608,-8388608,-605.0000721,1353.515625,44352
605,8388607,-605.0000721,-8388608,-8388608,-605.0000721,1355.46875,44416
605,8388607,-605.0000721,-8388608,-8388608,-605.0000721,1357.421875,44480
605,8388607,-605.0000721,-8388608,-8388608,-605.0000721,1359.375,44544
605,8388607,-605.0000721,-8388608,-8388608,-605.0000721,1361.328125,44608
605,8388607,-605.0000721,-8388608,-8388608,-605.0000721,1363.28125,44672
605,8388607,-605.0000721,-8388608,-8388608,-605.0000721,1365.234375,44736
605,8388607,-605.0000721,-8388608,-8388608,-605.0000721,1367.1875,44800
605,8388607,-605.0000721,-8388608,-8388608,-605.0000721,1369.140625,44864
605,8388607,-605.0000721,-8388608,-8388608,-605.0000721,1371.09375,44928
605,8388607,-605.0000721,-8388608,-8388608,-605.0000721,1373.046875,44992
605,8388607,-605.0000721,-8388608,-8388608,-605.0000721,1375,45056
605,8388607,-605.0000721,-8388608,-8388608,-605.0000721,1376.953125,45120
605,8388607,-605.0000721,-8388608,-8388608,-605.0000721,1378.90625,45184
605,8388607,-605.0000721,-8388608,-8388608,-605.0000721,1380.859375,45248
605,8388607,-605.0000721,-8388608,-8388608,-605.0000721,1382.8125,45312
605,8388607,-605.0000721,-8388608,-8388608,-605.0000721,1384.765625,45376
605,8388607,-605.0000721,-8388608,-8388608,-605.0000721,1386.71875,45440
605,8388607,-605.0000721,-8388608,-8388608,-605.0000721,1388.671875,45504
605,8388607,-605.0000721,-8388608,-8388608,-605.0000721,1390.625,45568
605,8388607,-605.0000721,-8388608,-8388608,-605.0000721,1392.578125,45632
605,8388607,-605.0000721,-8388608,-8388608,-605.0000721,1394.53125,45696
605,8388607,-605.0000721,-8388608,-8388608,-605.0000721,1396.484375,45760
605,8388607,-605.0000721,-8388608,-8388608,-605.0000721,1398.4375,45824
605,8388607,-605.0000721,-8388608,-8388608,-605.0000721,1400.390625,45888
605,8388607,-605.0000721,-8388608,-8388608,-605.0000721,1402.34375,45952
605,8388607,-605.0000721,-8388608,-8388608,-605.0000721,1404.296875,46016
605,8388607,-605.0000721,-8388608,-8388608,-605.0000721,1406.25,46080
605,8388607,-605.0000721,-8388608,-8388608,-605.0000721,1408.203125,46144
605,8388607,-605.0000721,-8388608,-8388608,-605.0000721,1410.15625,46208
605,8388607,-605.0000721,-8388608,-8388608,-605.0000721,1412.109375,46272
605,8388607,-605.0000721,-8388608,-8388608,-605.0000721,1414.0625,46336
605,8388607,-605.0000721,-8388608,-8388608,-605.0000721,1416.015625,46400
605,8388607,-605.0000721,-8388608,-8388608,-605.0000721,1417.96875,46464
605,8388607,-605.0000721,-8388608,-8388608,-605.0000721,1419.921875,46528
605,8388607,-605.0000721,-8388608,-8388608,-605.0000721,1421.875,46592
605,8388607,-605.0000721,-8388608,-8388608,-605.0000721,1423.828125,46656
605,8388607,-605.0000721,-8388608,-8388608,-605.0000721,1425.78125,46720
605,8388607,-605.0000721,-8388608,-8388608,-605.0000721,1427.734375,46784
605,8388607,-605.0000721,-8388608,-8388608,-605.0000721,1429.6875,46848
605,8388607,-605.0000721,-8388608,-8388608,-605.0000721,1431.640625,46912
605,8388607,-605.0000721,-8388608,-8388608,-605.0000721,1433.59375,46976
605,8388607,-605.0000721,-8388608,-8388608,-605.0000721,1435.546875,47040
605,8388607,-605.0000721,-8388608,-8388608,-605.0000721,1437.5,47104
605,8388607,-605.0000721,-8388608,-8388608,-605.0000721,1439.453125,47168
605,8388607,-605.0000721,-8388608,-8388608,-605.0000721,1441.40625,47232
605,8388607,-605.0000721,-8388608,-8388608,-605.0000721,1443.359375,47296
605,8388607,-605.0000721,-8388608,-8388608,-605.0000721,1445.3125,47360
605,8388607,-605.0000721,-8388608,-8388608,-605.0000721,1447.265625,47424
605,8388607,-605.0000721,-8388608,-8388608,-605.0000721,1449.21875,47488
605,8388607,-605.0000721,-8388608,-8388608,-605.0000721,1451.171875,47552
605,8388607,-605.0000721,-8388608,-8388608,-605.0000721,1453.125,47616
605,8388607,-605.0000721,-8388608,-8388608,-605.0000721,1455.078125,47680
605,8388607,-605.0000721,-8388608,-8388608,-605.0000721,1457.03125,47744
605,8388607,-605.0000721,-8388608,-8388608,-605.0000721,1458.984375,47808
605,8388607,-605.0000721,-8388608,-8388608,-605.0000721,1460.9375,47872
605,8388607,-605.0000721,-8388608,-8388608,-605.0000721,1462.890625,47936
605,8388607,-605.0000721,-8388608,-8388608,-605.0000721,1464.84375,48000
605,8388607,-605.0000721,-8388608,-8388608,-605.0000721,1466.796875,48064
605,8388607,-605.0000721,-8388608,-8388608,-605.0000721,1468.75,48128
605,8388607,-605.0000721,-8388608,-8388608,-605.0000721,1470.703125,48192
605,8388607,-605.0000721,-8388608,-8388608,-605.0000721,1472.65625,48256
605,8388607,-605.0000721,-8388608,-8388608,-605.0000721,1474.609375,48320
605,8388607,-605.0000721,-8388608,-8388608,-605.0000721,1476.5625,48384
605,8388607,-605.0000721,-8388608,-8388608,-605.0000721,1478.515625,48448
605,8388607,-605.0000721,-8388608,-8388608,-605.0000721,1480.46875,48512
605,8388607,-605.0000721,-8388608,-8388608,-605.0000721,1482.421875,48576
605,8388607,-605.0000721,-8388608,-8388608,-605.0000721,1484.375,48640
605,8388607,-605.0000721,-8388608,-8388608,-605.0000721,1486.328125,48704
605,8388607,-605.0000721,-8388608,-8388608,-605.0000721,1488.28125,48768
605,8388607,-605.0000721,-8388608,-8388608,-605.0000721,1490.234375,48832
605,8388607,-605.0000721,-8388608,-8388608,-605.0000721,1492.1875,48896
605,8388607,-605.0000721,-8388608,-8388608,-605.0000721,1494.140625,48960
605,8388607,-605.0000721,-8388608,-8388608,-605.0000721,1496.09375,49024
605,8388607,-605.0000721,-8388608,-8388608,-605.0000721,1498.046875,49088
605,8388607,-605.0000721,-8388608,-8388608,-605.0000721,1500,49152
605,8388607,-605.0000721,-8388608,-8388608,-605.0000721,1501.953125,49216
605,8388607,-605.0000721,-8388608,-8388608,-605.0000721,1503.90625,49280
605,8388607,-605.0000721,-8388608,-8388608,-605.0000721,1505.859375,49344
605,8388607,-605.0000721,-8388608,-8388608,-605.0000721,1507.8125,49408
605,8388607,-605.0000721,-8388608,-8388608,-605.0000721,1509.765625,49472
605,8388607,-605.0000721,-8388608,-8388608,-605.0000721,1511.71875,49536
605,8388607,-605.0000721,-8388608,-8388608,-605.0000721,1513.671875,49600
605,8388607,-605.0000721,-8388608,-8388608,-605.0000721,1515.625,49664
605,8388607,-605.0000721,-8388608,-8388608,-605.0000721,1517.578125,49728
605,8388607,-605.0000721,-8388608,-8388608,-605.0000721,1519.53125,49792
605,8388607,-605.0000721,-8388608,-8388608,-605.0000721,1521.484375,49856
605,8388607,-605.0000721,-8388608,-8388608,-605.0000721,1523.4375,49920
605,8388607,-605.0000721,-8388608,-8388608,-605.0000721,1525.390625,49984
605,8388607,-605.0000721,-8388608,-8388608,-605.0000721,1527.34375,50048
605,8388607,-605.0000721,-8388608,-8388608,-605.0000721,1529.296875,50112
605,8388607,-605.0000721,-8388608,-8388608,-605.0000721,1531.25,50176
605,8388607,-605.0000721,-8388608,-8388608,-605.0000721,1533.203125,50240
605,8388607,-605.0000721,-8388608,-8388608,-605.0000721,1535.15625,50304
605,8388607,-605.0000721,-8388608,-8388608,-605.0000721,1537.109375,50368
605,8388607,-605.0000721,-8388608,-8388608,-605.0000721,1539.0625,50432
605,8388607,-605.0000721,-8388608,-8388608,-605.0000721,1541.015625,50496
605,8388607,-605.0000721,-8388608,-8388608,-605.0000721,1542.96875,50560
605,8388607,-605.0000721,-8388608,-8388608,-605.0000721,1544.921875,50624
605,8388607,-605.0000721,-8388608,-8388608,-605.0000721,1546.875,50688
605,8388607,-605.0000721,-8388608,-8388608,-605.0000721,1548.828125,50752
605,8388607,-605.0000721,-8388608,-8388608,-605.0000721,1550.78125,50816
605,8388607,-605.0000721,-8388608,-8388608,-605.0000721,1552.734375,50880
605,8388607,-605.0000721,-8388608,-8388608,-605.0000721,1554.6875,50944
605,8388607,-605.0000721,-8388608,-8388608,-605.0000721,1556.640625,51008
605,8388607,-605.0000721,-8388608,-8388608,-605.0000721,1558.59375,51072
605,8388607,-605.0000721,-8388608,-8388608,-605.0000721,1560.546875,51136
605,8388607,-605.0000721,-8388608,-8388608,-605.0000721,1562.5,51200
605,8388607,-605.0000721,-8388608,-8388608,-605.0000721,1564.453125,51264
605,8388607,-605.0000721,-8388608,-8388608,-605.0000721,1566.40625,51328
605,8388607,-605.0000721,-8388608,-8388608,-605.0000721,1568.359375,51392
605,8388607,-605.0000721,-8388608,-8388608,-605.0000721,1570.3125,51456
605,8388607,-605.0000721,-8388608,-8388608,-605.0000721,1572.265625,51520
605,8388607,-605.0000721,-8388608,-8388608,-605.0000721,1574.21875,51584
605,8388607,-605.0000721,-8388608,-8388608,-605.0000721,1576.171875,51648
605,8388607,-605.0000721,-8388608,-8388608,-605.0000721,1578.125,51712
605,8388607,-605.0000721,-8388608,-8388608,-605.0000721,1580.078125,51776
605,8388607,-605.0000721,-8388608,-8388608,-605.0000721,1582.03125,51840
605,8388607,-605.0000721,-8388608,-8388608,-605.0000721,1583.984375,51904
605,8388607,-605.0000721,-8388608,-8388608,-605.0000721,1585.9375,51968
605,8388607,-605.0000721,-8388608,-8388608,-605.0000721,1587.890625,52032
605,8388607,-605.0000721,-8388608,-8388608,-605.0000721,1589.84375,52096
605,8388607,-605.0000721,-8388608,-8388608,-605.0000721,1591.796875,52160
605,8388607,-605.0000721,-8388608,-8388608,-605.0000721,1593.75,52224
605,8388607,-605.0000721,-8388608,-8388608,-605.0000721,1595.703125,52288
605,8388607,-605.0000721,-8388608,-8388608,-605.0000721,1597.65625,52352
605,8388607,-605.0000721,-8388608,-8388608,-605.0000721,1599.609375,52416
605,8388607,-605.0000721,-8388608,-8388608,-605.0000721,1601.5625,52480
605,8388607,-605.0000721,-8388608,-8388608,-605.0000721,1603.515625,52544
605,8388607,-605.0000721,-8388608,-8388608,-605.0000721,1605.46875,52608
605,8388607,-605.0000721,-8388608,-8388608,-605.0000721,1607.421875,52672
605,8388607,-605.0000721,-8388608,-8388608,-605.0000721,1609.375,52736
605,8388607,-605.0000721,-8388608,-8388608,-605.0000721,1611.328125,52800
605,8388607,-605.0000721,-8388608,-8388608,-605.0000721,1613.28125,52864
605,8388607,-605.0000721,-8388608,-8388608,-605.0000721,1615.234375,52928
605,8388607,-605.0000721,-8388608,-8388608,-605.0000721,1617.1875,52992
605,8388607,-605.0000721,-8388608,-8388608,-605.0000721,1619.140625,53056
605,8388607,-605.0000721,-8388608,-8388608,-605.0000721,1621.09375,53120
605,8388607,-605.0000721,-8388608,-8388608,-605.0000721,1623.046875,53184
605,8388607,-605.0000721,-8388608,-8388608,-605.0000721,1625,53248
605,8388607,-605.0000721,-8388608,-8388608,-605.0000721,1626.953125,53312
605,8388607,-605.0000721,-8388608,-8388608,-605.0000721,1628.90625,53376
605,8388607,-605.0000721,-8388608,-8388608,-605.0000721,1630.859375,53440
605,8388607,-605.0000721,-8388608,-8388608,-605.0000721,1632.8125,53504
605,8388607,-605.0000721,-8388608,-8388608,-605.0000721,1634.765625,53568
605,8388607,-605.0000721,-8388608,-8388608,-605.0000721,1636.71875,53632
605,8388607,-605.0000721,-8388608,-8388608,-605.0000721,1638.671875,53696
605,8388607,-605.0000721,-8388608,-8388608,-605.0000721,1640.625,53760
605,8388607,-605.0000721,-8388608,-8388608,-605.0000721,1642.578125,53824
605,8388607,-605.0000721,-8388608,-8388608,-605.0000721,1644.53125,53888
605,8388607,-605.0000721,-8388608,-8388608,-605.0000721,1646.484375,53952
605,8388607,-605.0000721,-8388608,-8388608,-605.0000721,1648.4375,54016
605,8388607,-605.0000721,-8388608,-8388608,-605.0000721,1650.390625,54080
2.36320941,32767,-2.363281532,-32768,-1024,-0.073852548,1652.34375,54144
2.36320941,32767,-2.363281532,-32768,-512,-0.036926274,1654.296875,54208
2.36320941,32767,-2.363281532,-32768,-128,-0.009231568,1656.25,54272
2.36320941,32767,-2.363281532,-32768,32767,2.36320941,1658.203125,54336
3.544922298,49152,2.36320941,32767,32767,2.36320941,1660.15625,54400
0.013847353,192,0.009159447,127,31,0.00223577,1662.109375,54464
-605.0000721,-8388608,-302.5000361,-4194304,0,0,1664.0625,54528
-605.0000721,-8388608,-302.5000361,-4194304,0,0,1666.015625,54592
-605.0000721,-8388608,-302.5000361,-4194304,0,0,1667.96875,54656
-605.0000721,-8388608,-302.5000361,-4194304,64,0.004615784,1669.921875,54720
605,8388607,-605.0000721,-8388608,0,0,1671.875,54784
605,8388607,-605.0000721,-8388608,-8388608,-605.0000721,1673.828125,54848
605,8388607,-605.0000721,-8388608,-8388608,-605.0000721,1675.78125,54912
605,8388607,-605.0000721,-8388608,-8388608,-605.0000721,1677.734375,54976
605,8388607,-605.0000721,-8388608,-8388608,-605.0000721,1679.6875,55040
605,8388607,-605.0000721,-8388608,-8388608,-605.0000721,1681.640625,55104
605,8388607,-605.0000721,-8388608,-8388608,-605.0000721,1683.59375,55168
605,8388607,-605.0000721,-8388608,-8388608,-605.0000721,1685.546875,55232
605,8388607,-605.0000721,-8388608,-8388608,-605.0000721,1687.5,55296
605,8388607,-605.0000721,-8388608,-8388608,-605.0000721,1689.453125,55360
605,8388607,-605.0000721,-8388608,-8388608,-605.0000721,1691.40625,55424
605,8388607,-605.0000721,-8388608,-8388608,-605.0000721,1693.359375,55488
605,8388607,-605.0000721,-8388608,-8388608,-605.0000721,1695.3125,55552
605,8388607,-605.0000721,-8388608,-8388608,-605.0000721,1697.265625,55616
605,8388607,-605.0000721,-8388608,-8388608,-605.0000721,1699.21875,55680
605,8388607,-605.0000721,-8388608,-8388608,-605.0000721,1701.171875,55744
605,8388607,-605.0000721,-8388608,-8388608,-605.0000721,1703.125,55808
605,8388607,-605.0000721,-8388608,-8388608,-605.0000721,1705.078125,55872
605,8388607,-605.0000721,-8388608,-8388608,-605.0000721,1707.03125,55936
605,8388607,-572.0023354,-7931079,-8355848,-602.6373676,1708.984375,56000
605,8388607,-502.0647659,-6961362,-8337474,-601.3122048,1710.9375,56064
605,8388607,-429.1820376,-5950809,-8388576,-604.9977642,1712.890625,56128
605,8388607,-431.7810847,-5986846,-8354305,-602.5260839,1714.84375,56192
605,8388607,-481.2175764,-6672306,-8388544,-604.9954563,1716.796875,56256
605,8388607,-605.0000721,-8388608,-8388608,-605.0000721,1718.75,56320
605,8388607,-605.0000721,-8388608,-8388608,-605.0000721,1720.703125,56384
605,8388607,-605.0000721,-8388608,-8388608,-605.0000721,1722.65625,56448
605,8388607,-605.0000721,-8388608,-8388608,-605.0000721,1724.609375,56512
605,8388607,-605.0000721,-8388608,-8388608,-605.0000721,1726.5625,56576
605,8388607,-605.0000721,-8388608,-8388608,-605.0000721,1728.515625,56640
605,8388607,-605.0000721,-8388608,-8388608,-605.0000721,1730.46875,56704
605,8388607,-605.0000721,-8388608,-8388608,-605.0000721,1732.421875,56768
605,8388607,-605.0000721,-8388608,-8388608,-605.0000721,1734.375,56832
605,8388607,-605.0000721,-8388608,-8388608,-605.0000721,1736.328125,56896
605,8388607,-605.0000721,-8388608,-8388608,-605.0000721,1738.28125,56960
605,8388607,-605.0000721,-8388608,-8388608,-605.0000721,1740.234375,57024
605,8388607,-605.0000721,-8388608,-8388608,-605.0000721,1742.1875,57088
605,8388607,-605.0000721,-8388608,-8388608,-605.0000721,1744.140625,57152
605,8388607,-605.0000721,-8388608,-8388608,-605.0000721,1746.09375,57216
605,8388607,-605.0000721,-8388608,-8388608,-605.0000721,1748.046875,57280
605,8388607,-605.0000721,-8388608,-8388608,-605.0000721,1750,57344
605,8388607,-605.0000721,-8388608,-8388608,-605.0000721,1751.953125,57408
605,8388607,-605.0000721,-8388608,-8388608,-605.0000721,1753.90625,57472
605,8388607,-605.0000721,-8388608,-8388608,-605.0000721,1755.859375,57536
605,8388607,-605.0000721,-8388608,-8388608,-605.0000721,1757.8125,57600
605,8388607,-605.0000721,-8388608,-8388608,-605.0000721,1759.765625,57664
605,8388607,-605.0000721,-8388608,-8388608,-605.0000721,1761.71875,57728
605,8388607,-605.0000721,-8388608,-8388608,-605.0000721,1763.671875,57792
605,8388607,-605.0000721,-8388608,-8388608,-605.0000721,1765.625,57856
605,8388607,-605.0000721,-8388608,-8388608,-605.0000721,1767.578125,57920
605,8388607,-605.0000721,-8388608,-8388608,-605.0000721,1769.53125,57984
605,8388607,-605.0000721,-8388608,-8388608,-605.0000721,1771.484375,58048
605,8388607,-605.0000721,-8388608,-8388608,-605.0000721,1773.4375,58112
605,8388607,-605.0000721,-8388608,-8388608,-605.0000721,1775.390625,58176
605,8388607,-605.0000721,-8388608,-8388608,-605.0000721,1777.34375,58240
605,8388607,-605.0000721,-8388608,-8388608,-605.0000721,1779.296875,58304
605,8388607,-605.0000721,-8388608,-8388608,-605.0000721,1781.25,58368
605,8388607,-605.0000721,-8388608,-8388608,-605.0000721,1783.203125,58432
605,8388607,-605.0000721,-8388608,-8388608,-605.0000721,1785.15625,58496
605,8388607,-605.0000721,-8388608,-8388608,-605.0000721,1787.109375,58560
605,8388607,-605.0000721,-8388608,-8388608,-605.0000721,1789.0625,58624
605,8388607,-605.0000721,-8388608,-8388608,-605.0000721,1791.015625,58688
605,8388607,-605.0000721,-8388608,-8388608,-605.0000721,1792.96875,58752
605,8388607,-605.0000721,-8388608,-8388608,-605.0000721,1794.921875,58816
605,8388607,-605.0000721,-8388608,-8388608,-605.0000721,1796.875,58880
605,8388607,-605.0000721,-8388608,-8388608,-605.0000721,1798.828125,58944
605,8388607,-605.0000721,-8388608,-8388608,-605.0000721,1800.78125,59008
605,8388607,-605.0000721,-8388608,-8388608,-605.0000721,1802.734375,59072
605,8388607,-605.0000721,-8388608,-8388608,-605.0000721,1804.6875,59136
605,8388607,-605.0000721,-8388608,-8388608,-605.0000721,1806.640625,59200
605,8388607,-605.0000721,-8388608,-8388608,-605.0000721,1808.59375,59264
605,8388607,-605.0000721,-8388608,-8388608,-605.0000721,1810.546875,59328
605,8388607,-605.0000721,-8388608,-8388608,-605.0000721,1812.5,59392
605,8388607,-605.0000721,-8388608,-8388608,-605.0000721,1814.453125,59456
605,8388607,-605.0000721,-8388608,-8388608,-605.0000721,1816.40625,59520
605,8388607,-605.0000721,-8388608,-8388608,-605.0000721,1818.359375,59584
605,8388607,-605.0000721,-8388608,-8388608,-605.0000721,1820.3125,59648
605,8388607,-605.0000721,-8388608,-8388608,-605.0000721,1822.265625,59712
605,8388607,-605.0000721,-8388608,-8388608,-605.0000721,1824.21875,59776
605,8388607,-605.0000721,-8388608,-8388608,-605.0000721,1826.171875,59840
605,8388607,-605.0000721,-8388608,-8388608,-605.0000721,1828.125,59904
605,8388607,-605.0000721,-8388608,-8388608,-605.0000721,1830.078125,59968
605,8388607,-605.0000721,-8388608,-8388608,-605.0000721,1832.03125,60032
605,8388607,-605.0000721,-8388608,-8388608,-605.0000721,1833.984375,60096
605,8388607,-605.0000721,-8388608,-8388608,-605.0000721,1835.9375,60160
605,8388607,-605.0000721,-8388608,-8388608,-605.0000721,1837.890625,60224
605,8388607,-605.0000721,-8388608,-8388608,-605.0000721,1839.84375,60288
605,8388607,-605.0000721,-8388608,-8388608,-605.0000721,1841.796875,60352
605,8388607,-605.0000721,-8388608,-8388608,-605.0000721,1843.75,60416
605,8388607,-605.0000721,-8388608,-8388608,-605.0000721,1845.703125,60480
605,8388607,-605.0000721,-8388608,-8388608,-605.0000721,1847.65625,60544
605,8388607,-605.0000721,-8388608,-8388608,-605.0000721,1849.609375,60608
605,8388607,-605.0000721,-8388608,-8388608,-605.0000721,1851.5625,60672
605,8388607,-605.0000721,-8388608,-8388608,-605.0000721,1853.515625,60736
605,8388607,-605.0000721,-8388608,-8388608,-605.0000721,1855.46875,60800
605,8388607,-605.0000721,-8388608,-8388608,-605.0000721,1857.421875,60864
605,8388607,-605.0000721,-8388608,-8388608,-605.0000721,1859.375,60928
605,8388607,-605.0000721,-8388608,-8388608,-605.0000721,1861.328125,60992
605,8388607,-605.0000721,-8388608,-8388608,-605.0000721,1863.28125,61056
605,8388607,-605.0000721,-8388608,-8388608,-605.0000721,1865.234375,61120
605,8388607,-605.0000721,-8388608,-8388608,-605.0000721,1867.1875,61184
605,8388607,-605.0000721,-8388608,-8388608,-605.0000721,1869.140625,61248
605,8388607,-605.0000721,-8388608,-8388608,-605.0000721,1871.09375,61312
605,8388607,-605.0000721,-8388608,-8388608,-605.0000721,1873.046875,61376
605,8388607,-605.0000721,-8388608,-8388608,-605.0000721,1875,61440
605,8388607,-605.0000721,-8388608,-8388608,-605.0000721,1876.953125,61504
605,8388607,-605.0000721,-8388608,-8388608,-605.0000721,1878.90625,61568
605,8388607,-605.0000721,-8388608,-8388608,-605.0000721,1880.859375,61632
605,8388607,-605.0000721,-8388608,-8388608,-605.0000721,1882.8125,61696
605,8388607,-605.0000721,-8388608,-8388608,-605.0000721,1884.765625,61760
605,8388607,-605.0000721,-8388608,-8388608,-605.0000721,1886.71875,61824
605,8388607,-605.0000721,-8388608,-8388608,-605.0000721,1888.671875,61888
605,8388607,-605.0000721,-8388608,-8388608,-605.0000721,1890.625,61952
605,8388607,-605.0000721,-8388608,-8388608,-605.0000721,1892.578125,62016
605,8388607,-605.0000721,-8388608,-8388608,-605.0000721,1894.53125,62080
605,8388607,-605.0000721,-8388608,-8388608,-605.0000721,1896.484375,62144
605,8388607,-605.0000721,-8388608,-8388608,-605.0000721,1898.4375,62208
605,8388607,-605.0000721,-8388608,-8388608,-605.0000721,1900.390625,62272
605,8388607,-605.0000721,-8388608,-8388608,-605.0000721,1902.34375,62336
605,8388607,-605.0000721,-8388608,-8388608,-605.0000721,1904.296875,62400
605,8388607,-605.0000721,-8388608,-8388608,-605.0000721,1906.25,62464
605,8388607,-605.0000721,-8388608,-8388608,-605.0000721,1908.203125,62528
605,8388607,-605.0000721,-8388608,-8388608,-605.0000721,1910.15625,62592
605,8388607,-605.0000721,-8388608,-8388608,-605.0000721,1912.109375,62656
605,8388607,-605.0000721,-8388608,-8388608,-605.0000721,1914.0625,62720
605,8388607,-605.0000721,-8388608,-8388608,-605.0000721,1916.015625,62784
605,8388607,-605.0000721,-8388608,-8388608,-605.0000721,1917.96875,62848
605,8388607,-605.0000721,-8388608,-8388608,-605.0000721,1919.921875,62912
605,8388607,-605.0000721,-8388608,-8388608,-605.0000721,1921.875,62976
605,8388607,-605.0000721,-8388608,-8388608,-605.0000721,1923.828125,63040
605,8388607,-605.0000721,-8388608,-8388608,-605.0000721,1925.78125,63104
605,8388607,-605.0000721,-8388608,-8388608,-605.0000721,1927.734375,63168
605,8388607,-605.0000721,-8388608,-8388608,-605.0000721,1929.6875,63232
605,8388607,-605.0000721,-8388608,-8388608,-605.0000721,1931.640625,63296
605,8388607,-605.0000721,-8388608,-8388608,-605.0000721,1933.59375,63360
605,8388607,-605.0000721,-8388608,-8388608,-605.0000721,1935.546875,63424
605,8388607,-605.0000721,-8388608,-8388608,-605.0000721,1937.5,63488
605,8388607,-605.0000721,-8388608,-8388608,-605.0000721,1939.453125,63552
605,8388607,-605.0000721,-8388608,-8388608,-605.0000721,1941.40625,63616
605,8388607,-605.0000721,-8388608,-8388608,-605.0000721,1943.359375,63680
605,8388607,-605.0000721,-8388608,-8388608,-605.0000721,1945.3125,63744
605,8388607,-605.0000721,-8388608,-8388608,-605.0000721,1947.265625,63808
605,8388607,-605.0000721,-8388608,-8388608,-605.0000721,1949.21875,63872
605,8388607,-605.0000721,-8388608,-8388608,-605.0000721,1951.171875,63936
605,8388607,-605.0000721,-8388608,-8388608,-605.0000721,1953.125,64000
605,8388607,-605.0000721,-8388608,-8388608,-605.0000721,1955.078125,64064
605,8388607,-605.0000721,-8388608,-8388608,-605.0000721,1957.03125,64128
605,8388607,-605.0000721,-8388608,-8388608,-605.0000721,1958.984375,64192
605,8388607,-605.0000721,-8388608,-8388608,-605.0000721,1960.9375,64256
605,8388607,-605.0000721,-8388608,-8388608,-605.0000721,1962.890625,64320
605,8388607,-605.0000721,-8388608,-8388608,-605.0000721,1964.84375,64384
605,8388607,-605.0000721,-8388608,-8388608,-605.0000721,1966.796875,64448
605,8388607,-605.0000721,-8388608,-8388608,-605.0000721,1968.75,64512
605,8388607,-605.0000721,-8388608,-8388608,-605.0000721,1970.703125,64576
605,8388607,-605.0000721,-8388608,-8388608,-605.0000721,1972.65625,64640
605,8388607,-605.0000721,-8388608,-8388608,-605.0000721,1974.609375,64704
605,8388607,-605.0000721,-8388608,-8388608,-605.0000721,1976.5625,64768
605,8388607,-605.0000721,-8388608,-8388608,-605.0000721,1978.515625,64832
605,8388607,-605.0000721,-8388608,-8388608,-605.0000721,1980.46875,64896
605,8388607,-605.0000721,-8388608,-8388608,-605.0000721,1982.421875,64960
605,8388607,-605.0000721,-8388608,-8388608,-605.0000721,1984.375,65024
605,8388607,-605.0000721,-8388608,-8388608,-605.0000721,1986.328125,65088
605,8388607,-605.0000721,-8388608,-8388608,-605.0000721,1988.28125,65152
605,8388607,-605.0000721,-8388608,-8388608,-605.0000721,1990.234375,65216
605,8388607,-605.0000721,-8388608,-8388608,-605.0000721,1992.1875,65280
605,8388607,-605.0000721,-8388608,-8388608,-605.0000721,1994.140625,65344
605,8388607,-605.0000721,-8388608,-8388608,-605.0000721,1996.09375,65408
605,8388607,-605.0000721,-8388608,-8388608,-605.0000721,1998.046875,65472
605,8388607,-605.0000721,-8388608,-8388608,-605.0000721,2000,0
605,8388607,-605.0000721,-8388608,-8388608,-605.0000721,2001.953125,64
605,8388607,-605.0000721,-8388608,-8388608,-605.0000721,2003.90625,128
605,8388607,-605.0000721,-8388608,-8388608,-605.0000721,2005.859375,192
605,8388607,-605.0000721,-8388608,-8388608,-605.0000721,2007.8125,256
605,8388607,-605.0000721,-8388608,-8388608,-605.0000721,2009.765625,320
605,8388607,-605.0000721,-8388608,-8388608,-605.0000721,2011.71875,384
605,8388607,-605.0000721,-8388608,-8388608,-605.0000721,2013.671875,448
605,8388607,-605.0000721,-8388608,-8388608,-605.0000721,2015.625,512
605,8388607,-605.0000721,-8388608,-8388608,-605.0000721,2017.578125,576
605,8388607,-605.0000721,-8388608,-8388608,-605.0000721,2019.53125,640
605,8388607,-605.0000721,-8388608,-8388608,-605.0000721,2021.484375,704
605,8388607,-605.0000721,-8388608,-8388608,-605.0000721,2023.4375,768
605,8388607,-605.0000721,-8388608,-8388608,-605.0000721,2025.390625,832
605,8388607,-605.0000721,-8388608,-8388608,-605.0000721,2027.34375,896
605,8388607,-605.0000721,-8388608,-8388608,-605.0000721,2029.296875,960
605,8388607,-605.0000721,-8388608,-8388608,-605.0000721,2031.25,1024
605,8388607,-605.0000721,-8388608,-8388608,-605.0000721,2033.203125,1088
605,8388607,-605.0000721,-8388608,-8388608,-605.0000721,2035.15625,1152
605,8388607,-605.0000721,-8388608,-8388608,-605.0000721,2037.109375,1216
605,8388607,-605.0000721,-8388608,-8388608,-605.0000721,2039.0625,1280
605,8388607,-605.0000721,-8388608,-8388608,-605.0000721,2041.015625,1344
605,8388607,-605.0000721,-8388608,-8388608,-605.0000721,2042.96875,1408
605,8388607,-605.0000721,-8388608,-8388608,-605.0000721,2044.921875,1472
605,8388607,-605.0000721,-8388608,-8388608,-605.0000721,2046.875,1536
605,8388607,-605.0000721,-8388608,-8388608,-605.0000721,2048.828125,1600
605,8388607,-605.0000721,-8388608,-8388608,-605.0000721,2050.78125,1664
605,8388607,-605.0000721,-8388608,-8388608,-605.0000721,2052.734375,1728
605,8388607,-605.0000721,-8388608,-8388608,-605.0000721,2054.6875,1792
605,8388607,-605.0000721,-8388608,-8388608,-605.0000721,2056.640625,1856
605,8388607,-605.0000721,-8388608,-8388608,-605.0000721,2058.59375,1920
605,8388607,-605.0000721,-8388608,-8388608,-605.0000721,2060.546875,1984
605,8388607,-605.0000721,-8388608,-8388608,-605.0000721,2062.5,2048
605,8388607,-605.0000721,-8388608,-8388608,-605.0000721,2064.453125,2112
605,8388607,-605.0000721,-8388608,-8388608,-605.0000721,2066.40625,2176
605,8388607,-605.0000721,-8388608,-8388608,-605.0000721,2068.359375,2240
605,8388607,-605.0000721,-8388608,-8388608,-605.0000721,2070.3125,2304
605,8388607,-605.0000721,-8388608,-8388608,-605.0000721,2072.265625,2368
605,8388607,-605.0000721,-8388608,-8388608,-605.0000721,2074.21875,2432
605,8388607,-605.0000721,-8388608,-8388608,-605.0000721,2076.171875,2496
605,8388607,-605.0000721,-8388608,-8388608,-605.0000721,2078.125,2560
605,8388607,-605.0000721,-8388608,-8388608,-605.0000721,2080.078125,2624
605,8388607,-605.0000721,-8388608,-8388608,-605.0000721,2082.03125,2688
605,8388607,-605.0000721,-8388608,-8388608,-605.0000721,2083.984375,2752
605,8388607,-605.0000721,-8388608,-8388608,-605.0000721,2085.9375,2816
605,8388607,-605.0000721,-8388608,-8388608,-605.0000721,2087.890625,2880
605,8388607,-605.0000721,-8388608,-8388608,-605.0000721,2089.84375,2944
605,8388607,-605.0000721,-8388608,-8388608,-605.0000721,2091.796875,3008
605,8388607,-605.0000721,-8388608,-8388608,-605.0000721,2093.75,3072
605,8388607,-605.0000721,-8388608,-8388608,-605.0000721,2095.703125,3136
605,8388607,-605.0000721,-8388608,-8388608,-605.0000721,2097.65625,3200
605,8388607,-605.0000721,-8388608,-8388608,-605.0000721,2099.609375,3264
605,8388607,-605.0000721,-8388608,-8388608,-605.0000721,2101.5625,3328
605,8388607,-605.0000721,-8388608,-8388608,-605.0000721,2103.515625,3392
605,8388607,-605.0000721,-8388608,-8388608,-605.0000721,2105.46875,3456
605,8388607,-605.0000721,-8388608,-8388608,-605.0000721,2107.421875,3520
605,8388607,-605.0000721,-8388608,-8388608,-605.0000721,2109.375,3584
605,8388607,-605.0000721,-8388608,-8388608,-605.0000721,2111.328125,3648
605,8388607,-605.0000721,-8388608,-8388608,-605.0000721,2113.28125,3712
605,8388607,-605.0000721,-8388608,-8388608,-605.0000721,2115.234375,3776
605,8388607,-605.0000721,-8388608,-8388608,-605.0000721,2117.1875,3840
605,8388607,-605.0000721,-8388608,-8388608,-605.0000721,2119.140625,3904
605,8388607,-605.0000721,-8388608,-8388608,-605.0000721,2121.09375,3968
605,8388607,-605.0000721,-8388608,-8388608,-605.0000721,2123.046875,4032
605,8388607,-605.0000721,-8388608,-8388608,-605.0000721,2125,4096
605,8388607,-605.0000721,-8388608,-8388608,-605.0000721,2126.953125,4160
605,8388607,-605.0000721,-8388608,-8388608,-605.0000721,2128.90625,4224
605,8388607,-605.0000721,-8388608,-8388608,-605.0000721,2130.859375,4288
605,8388607,-605.0000721,-8388608,-8388608,-605.0000721,2132.8125,4352
605,8388607,-605.0000721,-8388608,-8388608,-605.0000721,2134.765625,4416
605,8388607,-605.0000721,-8388608,-8388608,-605.0000721,2136.71875,4480
605,8388607,-605.0000721,-8388608,-8388608,-605.0000721,2138.671875,4544
605,8388607,-605.0000721,-8388608,-8388608,-605.0000721,2140.625,4608
605,8388607,-605.0000721,-8388608,-8388608,-605.0000721,2142.578125,4672
605,8388607,-605.0000721,-8388608,-8388608,-605.0000721,2144.53125,4736
605,8388607,-605.0000721,-8388608,-8388608,-605.0000721,2146.484375,4800
605,8388607,-605.0000721,-8388608,-8388608,-605.0000721,2148.4375,4864
605,8388607,-605.0000721,-8388608,-8388608,-605.0000721,2150.390625,4928
605,8388607,-605.0000721,-8388608,-8388608,-605.0000721,2152.34375,4992
605,8388607,-605.0000721,-8388608,-8388608,-605.0000721,2154.296875,5056
605,8388607,-605.0000721,-8388608,-8388608,-605.0000721,2156.25,5120
605,8388607,-605.0000721,-8388608,-8388608,-605.0000721,2158.203125,5184
605,8388607,-605.0000721,-8388608,-8388608,-605.0000721,2160.15625,5248
605,8388607,-605.0000721,-8388608,-8388608,-605.0000721,2162.109375,5312
605,8388607,-605.0000721,-8388608,-8388608,-605.0000721,2164.0625,5376
605,8388607,-605.0000721,-8388608,-8388608,-605.0000721,2166.015625,5440
605,8388607,-605.0000721,-8388608,-8388608,-605.0000721,2167.96875,5504
605,8388607,-605.0000721,-8388608,-8388608,-605.0000721,2169.921875,5568
605,8388607,-605.0000721,-8388608,-8388608,-605.0000721,2171.875,5632
605,8388607,-605.0000721,-8388608,-8388608,-605.0000721,2173.828125,5696
605,8388607,-605.0000721,-8388608,-8388608,-605.0000721,2175.78125,5760
605,8388607,-605.0000721,-8388608,-8388608,-605.0000721,2177.734375,5824
605,8388607,-605.0000721,-8388608,-8388608,-605.0000721,2179.6875,5888
605,8388607,-605.0000721,-8388608,-8388608,-605.0000721,2181.640625,5952
605,8388607,-605.0000721,-8388608,-8388608,-605.0000721,2183.59375,6016
605,8388607,-605.0000721,-8388608,-8388608,-605.0000721,2185.546875,6080
605,8388607,-605.0000721,-8388608,-8388608,-605.0000721,2187.5,6144
605,8388607,-605.0000721,-8388608,-8388608,-605.0000721,2189.453125,6208
605,8388607,-605.0000721,-8388608,-8388608,-605.0000721,2191.40625,6272
605,8388607,-605.0000721,-8388608,-8388608,-605.0000721,2193.359375,6336
605,8388607,-605.0000721,-8388608,-8388608,-605.0000721,2195.3125,6400
605,8388607,-605.0000721,-8388608,-8388608,-605.0000721,2197.265625,6464
605,8388607,-605.0000721,-8388608,-8388608,-605.0000721,2199.21875,6528
605,8388607,-605.0000721,-8388608,-8388608,-605.0000721,2201.171875,6592
605,8388607,-605.0000721,-8388608,-8388608,-605.0000721,2203.125,6656
605,8388607,-605.0000721,-8388608,-8388608,-605.0000721,2205.078125,6720
605,8388607,-605.0000721,-8388608,-8388608,-605.0000721,2207.03125,6784
605,8388607,-605.0000721,-8388608,-8388608,-605.0000721,2208.984375,6848
605,8388607,-605.0000721,-8388608,-8388608,-605.0000721,2210.9375,6912
605,8388607,-605.0000721,-8388608,-8388608,-605.0000721,2212.890625,6976
605,8388607,-605.0000721,-8388608,-8388608,-605.0000721,2214.84375,7040
605,8388607,-605.0000721,-8388608,-8388608,-605.0000721,2216.796875,7104
605,8388607,-605.0000721,-8388608,-8388608,-605.0000721,2218.75,7168
605,8388607,-605.0000721,-8388608,-8388608,-605.0000721,2220.703125,7232
605,8388607,-605.0000721,-8388608,-8388608,-605.0000721,2222.65625,7296
605,8388607,-605.0000721,-8388608,-8388608,-605.0000721,2224.609375,7360
605,8388607,-605.0000721,-8388608,-8388608,-605.0000721,2226.5625,7424
605,8388607,-605.0000721,-8388608,-8388608,-605.0000721,2228.515625,7488
605,8388607,-605.0000721,-8388608,-8388608,-605.0000721,2230.46875,7552
605,8388607,-605.0000721,-8388608,-8388608,-605.0000721,2232.421875,7616
605,8388607,-605.0000721,-8388608,-8388608,-605.0000721,2234.375,7680
605,8388607,-605.0000721,-8388608,-8388608,-605.0000721,2236.328125,7744
605,8388607,-605.0000721,-8388608,-8388608,-605.0000721,2238.28125,7808
605,8388607,-605.0000721,-8388608,-8388608,-605.0000721,2240.234375,7872
605,8388607,-605.0000721,-8388608,-8388608,-605.0000721,2242.1875,7936
605,8388607,-605.0000721,-8388608,-8388608,-605.0000721,2244.140625,8000
605,8388607,-605.0000721,-8388608,-8388608,-605.0000721,2246.09375,8064
605,8388607,-605.0000721,-8388608,-8388608,-605.0000721,2248.046875,8128
605,8388607,-605.0000721,-8388608,-8388608,-605.0000721,2250,8192
605,8388607,-605.0000721,-8388608,-8388608,-605.0000721,2251.953125,8256
605,8388607,-605.0000721,-8388608,-8388608,-605.0000721,2253.90625,8320
605,8388607,-605.0000721,-8388608,-8388608,-605.0000721,2255.859375,8384
605,8388607,-605.0000721,-8388608,-8388608,-605.0000721,2257.8125,8448
605,8388607,-605.0000721,-8388608,-8388608,-605.0000721,2259.765625,8512
605,8388607,-605.0000721,-8388608,-8388608,-605.0000721,2261.71875,8576
605,8388607,-605.0000721,-8388608,-8388608,-605.0000721,2263.671875,8640
605,8388607,-605.0000721,-8388608,-8388608,-605.0000721,2265.625,8704
605,8388607,-605.0000721,-8388608,-8388608,-605.0000721,2267.578125,8768
605,8388607,-605.0000721,-8388608,-8388608,-605.0000721,2269.53125,8832
605,8388607,-605.0000721,-8388608,-8388608,-605.0000721,2271.484375,8896
605,8388607,-605.0000721,-8388608,-8388608,-605.0000721,2273.4375,8960
605,8388607,-605.0000721,-8388608,-8388608,-605.0000721,2275.390625,9024
605,8388607,-605.0000721,-8388608,-8388608,-605.0000721,2277.34375,9088
605,8388607,-605.0000721,-8388608,-8388608,-605.0000721,2279.296875,9152
605,8388607,-605.0000721,-8388608,-8388608,-605.0000721,2281.25,9216
605,8388607,-605.0000721,-8388608,-8388608,-605.0000721,2283.203125,9280
605,8388607,-605.0000721,-8388608,-8388608,-605.0000721,2285.15625,9344
605,8388607,-605.0000721,-8388608,-8388608,-605.0000721,2287.109375,9408
605,8388607,-605.0000721,-8388608,-8388608,-605.0000721,2289.0625,9472
605,8388607,-605.0000721,-8388608,-8388608,-605.0000721,2291.015625,9536
605,8388607,-605.0000721,-8388608,-8388608,-605.0000721,2292.96875,9600
605,8388607,-605.0000721,-8388608,-8388608,-605.0000721,2294.921875,9664
605,8388607,-605.0000721,-8388608,-8388608,-605.0000721,2296.875,9728
605,8388607,-605.0000721,-8388608,-8388608,-605.0000721,2298.828125,9792
605,8388607,-605.0000721,-8388608,-8388608,-605.0000721,2300.78125,9856
605,8388607,-605.0000721,-8388608,-8388608,-605.0000721,2302.734375,9920
605,8388607,-605.0000721,-8388608,-8388608,-605.0000721,2304.6875,9984
605,8388607,-605.0000721,-8388608,-8388608,-605.0000721,2306.640625,10048
605,8388607,-605.0000721,-8388608,-8388608,-605.0000721,2308.59375,10112
605,8388607,-605.0000721,-8388608,-8388608,-605.0000721,2310.546875,10176
605,8388607,-605.0000721,-8388608,-8388608,-605.0000721,2312.5,10240
605,8388607,-605.0000721,-8388608,-8388608,-605.0000721,2314.453125,10304
605,8388607,-605.0000721,-8388608,-8388608,-605.0000721,2316.40625,10368
605,8388607,-605.0000721,-8388608,-8388608,-605.0000721,2318.359375,10432
605,8388607,-605.0000721,-8388608,-8388608,-605.0000721,2320.3125,10496
605,8388607,-605.0000721,-8388608,-8388608,-605.0000721,2322.265625,10560
605,8388607,-605.0000721,-8388608,-8388608,-605.0000721,2324.21875,10624
605,8388607,-605.0000721,-8388608,-8388608,-605.0000721,2326.171875,10688
605,8388607,-605.0000721,-8388608,-8388608,-605.0000721,2328.125,10752
605,8388607,-605.0000721,-8388608,-8388608,-605.0000721,2330.078125,10816
605,8388607,-605.0000721,-8388608,-8388608,-605.0000721,2332.03125,10880
605,8388607,-605.0000721,-8388608,-8388608,-605.0000721,2333.984375,10944
605,8388607,-605.0000721,-8388608,-8388608,-605.0000721,2335.9375,11008
605,8388607,-605.0000721,-8388608,-8388608,-605.0000721,2337.890625,11072
605,8388607,-605.0000721,-8388608,-8388608,-605.0000721,2339.84375,11136
605,8388607,-605.0000721,-8388608,-8388608,-605.0000721,2341.796875,11200
605,8388607,-605.0000721,-8388608,-8388608,-605.0000721,2343.75,11264
605,8388607,-605.0000721,-8388608,-8388608,-605.0000721,2345.703125,11328
605,8388607,-605.0000721,-8388608,-8388608,-605.0000721,2347.65625,11392
605,8388607,-605.0000721,-8388608,-8388608,-605.0000721,2349.609375,11456
605,8388607,-605.0000721,-8388608,-8388608,-605.0000721,2351.5625,11520
605,8388607,-605.0000721,-8388608,-8388608,-605.0000721,2353.515625,11584
605,8388607,-605.0000721,-8388608,-8388608,-605.0000721,2355.46875,11648
605,8388607,-605.0000721,-8388608,-8388608,-605.0000721,2357.421875,11712
605,8388607,-605.0000721,-8388608,-8388608,-605.0000721,2359.375,11776
605,8388607,-605.0000721,-8388608,-8388608,-605.0000721,2361.328125,11840
605,8388607,-605.0000721,-8388608,-8388608,-605.0000721,2363.28125,11904
605,8388607,-605.0000721,-8388608,-8388608,-605.0000721,2365.234375,11968
605,8388607,-605.0000721,-8388608,-8388608,-605.0000721,2367.1875,12032
605,8388607,-605.0000721,-8388608,-8388608,-605.0000721,2369.140625,12096
605,8388607,-605.0000721,-8388608,-8388608,-605.0000721,2371.09375,12160
605,8388607,-605.0000721,-8388608,-8388608,-605.0000721,2373.046875,12224
605,8388607,-605.0000721,-8388608,-8388608,-605.0000721,2375,12288
605,8388607,-605.0000721,-8388608,-8388608,-605.0000721,2376.953125,12352
605,8388607,-605.0000721,-8388608,-8388608,-605.0000721,2378.90625,12416
605,8388607,-605.0000721,-8388608,-8388608,-605.0000721,2380.859375,12480
605,8388607,-605.0000721,-8388608,-8388608,-605.0000721,2382.8125,12544
605,8388607,-605.0000721,-8388608,-8388608,-605.0000721,2384.765625,12608
605,8388607,-605.0000721,-8388608,-8388608,-605.0000721,2386.71875,12672
605,8388607,-605.0000721,-8388608,-8388608,-605.0000721,2388.671875,12736
605,8388607,-605.0000721,-8388608,-8388608,-605.0000721,2390.625,12800
605,8388607,-605.0000721,-8388608,-8388608,-605.0000721,2392.578125,12864
605,8388607,-605.0000721,-8388608,-8388608,-605.0000721,2394.53125,12928
605,8388607,-605.0000721,-8388608,-8388608,-605.0000721,2396.484375,12992
605,8388607,-605.0000721,-8388608,-8388608,-605.0000721,2398.4375,13056
605,8388607,-605.0000721,-8388608,-8388608,-605.0000721,2400.390625,13120
605,8388607,-571.3013132,-7921359,-8372424,-603.8328557,2402.34375,13184
605,8388607,-600.0562066,-8320059,-8384569,-604.7087729,2404.296875,13248
605,8388607,-605.0000721,-8388608,-8388608,-605.0000721,2406.25,13312
605,8388607,-605.0000721,-8388608,-8388608,-605.0000721,2408.203125,13376
605,8388607,-605.0000721,-8388608,-8388608,-605.0000721,2410.15625,13440
605,8388607,-605.0000721,-8388608,-8388608,-605.0000721,2412.109375,13504
605,8388607,-605.0000721,-8388608,-8388608,-605.0000721,2414.0625,13568
605,8388607,-605.0000721,-8388608,-8388608,-605.0000721,2416.015625,13632
605,8388607,-605.0000721,-8388608,-8388608,-605.0000721,2417.96875,13696
605,8388607,-605.0000721,-8388608,-8388608,-605.0000721,2419.921875,13760
605,8388607,-605.0000721,-8388608,-8388608,-605.0000721,2421.875,13824
605,8388607,-605.0000721,-8388608,-8388608,-605.0000721,2423.828125,13888
605,8388607,-605.0000721,-8388608,-8388608,-605.0000721,2425.78125,13952
605,8388607,-605.0000721,-8388608,-8388608,-605.0000721,2427.734375,14016
605,8388607,-605.0000721,-8388608,-8388608,-605.0000721,2429.6875,14080
605,8388607,-605.0000721,-8388608,-8388608,-605.0000721,2431.640625,14144
605,8388607,-605.0000721,-8388608,-8388608,-605.0000721,2433.59375,14208
605,8388607,-605.0000721,-8388608,-8388608,-605.0000721,2435.546875,14272
605,8388607,-605.0000721,-8388608,-8388608,-605.0000721,2437.5,14336
605,8388607,-605.0000721,-8388608,-8388608,-605.0000721,2439.453125,14400
605,8388607,-605.0000721,-8388608,-8388608,-605.0000721,2441.40625,14464
605,8388607,-605.0000721,-8388608,-8388608,-605.0000721,2443.359375,14528
605,8388607,-605.0000721,-8388608,-8388608,-605.0000721,2445.3125,14592
605,8388607,-605.0000721,-8388608,-8388608,-605.0000721,2447.265625,14656
605,8388607,-605.0000721,-8388608,-8388608,-605.0000721,2449.21875,14720
605,8388607,-605.0000721,-8388608,-8388608,-605.0000721,2451.171875,14784
605,8388607,-605.0000721,-8388608,-8388608,-605.0000721,2453.125,14848
605,8388607,-605.0000721,-8388608,-8388608,-605.0000721,2455.078125,14912
605,8388607,-605.0000721,-8388608,-8388608,-605.0000721,2457.03125,14976
605,8388607,-605.0000721,-8388608,-8388608,-605.0000721,2458.984375,15040
605,8388607,-605.0000721,-8388608,-8388608,-605.0000721,2460.9375,15104
605,8388607,-605.0000721,-8388608,-8388608,-605.0000721,2462.890625,15168
605,8388607,-605.0000721,-8388608,-8388608,-605.0000721,2464.84375,15232
605,8388607,-605.0000721,-8388608,-8388608,-605.0000721,2466.796875,15296
605,8388607,-605.0000721,-8388608,-8388608,-605.0000721,2468.75,15360
605,8388607,-605.0000721,-8388608,-8388608,-605.0000721,2470.703125,15424
605,8388607,-605.0000721,-8388608,-8388608,-605.0000721,2472.65625,15488
605,8388607,-605.0000721,-8388608,-8388608,-605.0000721,2474.609375,15552
605,8388607,-605.0000721,-8388608,-8388608,-605.0000721,2476.5625,15616
605,8388607,-605.0000721,-8388608,-8388608,-605.0000721,2478.515625,15680
605,8388607,-605.0000721,-8388608,-8388608,-605.0000721,2480.46875,15744
605,8388607,-605.0000721,-8388608,-1048576,-75.62500902,2482.421875,15808
605,8388607,-605.0000721,-8388608,-4096,-0.295410191,2484.375,15872
0.009159447,127,-0.009231568,-128,-32,-0.002307892,2486.328125,15936
-302.5000361,-4194304,605,8388607,32767,2.36320941,2488.28125,16000
-302.5000361,-4194304,605,8388607,32767,2.36320941,2490.234375,16064
-302.5000361,-4194304,605,8388607,16383,1.181568644,2492.1875,16128
-302.5000361,-4194304,605,8388607,7,5.05E-04,2494.140625,16192
-605.0000721,-8388608,-302.5000361,-4194304,0,0,2496.09375,16256
-2.363281532,-32768,3.544922298,49152,31744,2.289428984,2498.046875,16320
-0.009231568,-128,0.013847353,192,0,0,2500,16384
-0.009231568,-128,0.013847353,192,0,0,2501.953125,16448
605,8388607,-605.0000721,-8388608,-8388608,-605.0000721,2503.90625,16512
605,8388607,-605.0000721,-8388608,-8388608,-605.0000721,2505.859375,16576
605,8388607,-605.0000721,-8388608,-8388608,-605.0000721,2507.8125,16640
605,8388607,-605.0000721,-8388608,-8388608,-605.0000721,2509.765625,16704
605,8388607,-605.0000721,-8388608,-8388608,-605.0000721,2511.71875,16768
605,8388607,-605.0000721,-8388608,-8388608,-605.0000721,2513.671875,16832
605,8388607,-605.0000721,-8388608,-8388608,-605.0000721,2515.625,16896
605,8388607,-605.0000721,-8388608,-8388608,-605.0000721,2517.578125,16960
605,8388607,-605.0000721,-8388608,-8388608,-605.0000721,2519.53125,17024
605,8388607,-605.0000721,-8388608,-8388608,-605.0000721,2521.484375,17088
605,8388607,-605.0000721,-8388608,-8388608,-605.0000721,2523.4375,17152
605,8388607,-605.0000721,-8388608,-8388608,-605.0000721,2525.390625,17216
605,8388607,-605.0000721,-8388608,-8388608,-605.0000721,2527.34375,17280
605,8388607,-605.0000721,-8388608,-8388608,-605.0000721,2529.296875,17344
605,8388607,-605.0000721,-8388608,-8388608,-605.0000721,2531.25,17408
605,8388607,-605.0000721,-8388608,-8388608,-605.0000721,2533.203125,17472
605,8388607,-605.0000721,-8388608,-8388608,-605.0000721,2535.15625,17536
605,8388607,-605.0000721,-8388608,-8388608,-605.0000721,2537.109375,17600
605,8388607,-605.0000721,-8388608,-8388608,-605.0000721,2539.0625,17664
605,8388607,-605.0000721,-8388608,-8388608,-605.0000721,2541.015625,17728
605,8388607,-605.0000721,-8388608,-8388608,-605.0000721,2542.96875,17792
605,8388607,-605.0000721,-8388608,-8388608,-605.0000721,2544.921875,17856
605,8388607,-605.0000721,-8388608,-8388608,-605.0000721,2546.875,17920
605,8388607,-605.0000721,-8388608,-8388608,-605.0000721,2548.828125,17984
605,8388607,-605.0000721,-8388608,-8388608,-605.0000721,2550.78125,18048
605,8388607,-605.0000721,-8388608,-8388608,-605.0000721,2552.734375,18112
605,8388607,-605.0000721,-8388608,-8388608,-605.0000721,2554.6875,18176
605,8388607,-605.0000721,-8388608,-8388608,-605.0000721,2556.640625,18240
605,8388607,-605.0000721,-8388608,-8388608,-605.0000721,2558.59375,18304
605,8388607,-605.0000721,-8388608,-8388608,-605.0000721,2560.546875,18368
605,8388607,-605.0000721,-8388608,-8388608,-605.0000721,2562.5,18432
605,8388607,-605.0000721,-8388608,-8388608,-605.0000721,2564.453125,18496
605,8388607,-605.0000721,-8388608,-8388608,-605.0000721,2566.40625,18560
605,8388607,-605.0000721,-8388608,-8388608,-605.0000721,2568.359375,18624
605,8388607,-605.0000721,-8388608,-8388608,-605.0000721,2570.3125,18688
605,8388607,-605.0000721,-8388608,-8388608,-605.0000721,2572.265625,18752
605,8388607,-605.0000721,-8388608,-8388608,-605.0000721,2574.21875,18816
605,8388607,-605.0000721,-8388608,-8388608,-605.0000721,2576.171875,18880
605,8388607,-605.0000721,-8388608,-8388608,-605.0000721,2578.125,18944
605,8388607,-605.0000721,-8388608,-8388608,-605.0000721,2580.078125,19008
605,8388607,-605.0000721,-8388608,-8388608,-605.0000721,2582.03125,19072
605,8388607,-605.0000721,-8388608,-8388608,-605.0000721,2583.984375,19136
605,8388607,-605.0000721,-8388608,-8388608,-605.0000721,2585.9375,19200
605,8388607,-605.0000721,-8388608,-8388608,-605.0000721,2587.890625,19264
605,8388607,-605.0000721,-8388608,-8388608,-605.0000721,2589.84375,19328
605,8388607,-605.0000721,-8388608,-8388608,-605.0000721,2591.796875,19392
605,8388607,-605.0000721,-8388608,-8388608,-605.0000721,2593.75,19456
605,8388607,-605.0000721,-8388608,-8388608,-605.0000721,2595.703125,19520
605,8388607,-605.0000721,-8388608,-8388608,-605.0000721,2597.65625,19584
605,8388607,-605.0000721,-8388608,-8388608,-605.0000721,2599.609375,19648
605,8388607,-605.0000721,-8388608,-8388608,-605.0000721,2601.5625,19712
605,8388607,-605.0000721,-8388608,-8388608,-605.0000721,2603.515625,19776
605,8388607,-605.0000721,-8388608,-8388608,-605.0000721,2605.46875,19840
605,8388607,-605.0000721,-8388608,-8388608,-605.0000721,2607.421875,19904
605,8388607,-605.0000721,-8388608,-8388608,-605.0000721,2609.375,19968
605,8388607,-605.0000721,-8388608,-8388608,-605.0000721,2611.328125,20032
605,8388607,-605.0000721,-8388608,-8388608,-605.0000721,2613.28125,20096
605,8388607,-605.0000721,-8388608,-8388608,-605.0000721,2615.234375,20160
605,8388607,-605.0000721,-8388608,-8388608,-605.0000721,2617.1875,20224
605,8388607,-605.0000721,-8388608,-8388608,-605.0000721,2619.140625,20288
605,8388607,-605.0000721,-8388608,-8388608,-605.0000721,2621.09375,20352
605,8388607,-605.0000721,-8388608,-8388608,-605.0000721,2623.046875,20416
605,8388607,-605.0000721,-8388608,-8388608,-605.0000721,2625,20480
605,8388607,-605.0000721,-8388608,-8388608,-605.0000721,2626.953125,20544
605,8388607,-605.0000721,-8388608,-8388608,-605.0000721,2628.90625,20608
605,8388607,-605.0000721,-8388608,-8388608,-605.0000721,2630.859375,20672
605,8388607,-605.0000721,-8388608,-8388608,-605.0000721,2632.8125,20736
605,8388607,-605.0000721,-8388608,-8388608,-605.0000721,2634.765625,20800
605,8388607,-605.0000721,-8388608,-8388608,-605.0000721,2636.71875,20864
605,8388607,-605.0000721,-8388608,-8388608,-605.0000721,2638.671875,20928
605,8388607,-605.0000721,-8388608,-8388608,-605.0000721,2640.625,20992
605,8388607,-605.0000721,-8388608,-8388608,-605.0000721,2642.578125,21056
605,8388607,-605.0000721,-8388608,-8388608,-605.0000721,2644.53125,21120
605,8388607,-605.0000721,-8388608,-8388608,-605.0000721,2646.484375,21184
605,8388607,-605.0000721,-8388608,-8388608,-605.0000721,2648.4375,21248
605,8388607,-605.0000721,-8388608,-8388608,-605.0000721,2650.390625,21312
605,8388607,-605.0000721,-8388608,-8388608,-605.0000721,2652.34375,21376
605,8388607,-605.0000721,-8388608,-8388608,-605.0000721,2654.296875,21440
605,8388607,-605.0000721,-8388608,-8388608,-605.0000721,2656.25,21504
605,8388607,-605.0000721,-8388608,-8388608,-605.0000721,2658.203125,21568
605,8388607,-605.0000721,-8388608,-8388608,-605.0000721,2660.15625,21632
605,8388607,-605.0000721,-8388608,-8388608,-605.0000721,2662.109375,21696
605,8388607,-605.0000721,-8388608,-8388608,-605.0000721,2664.0625,21760
605,8388607,-605.0000721,-8388608,-8388608,-605.0000721,2666.015625,21824
605,8388607,-605.0000721,-8388608,-8388608,-605.0000721,2667.96875,21888
605,8388607,-605.0000721,-8388608,-8388608,-605.0000721,2669.921875,21952
605,8388607,-605.0000721,-8388608,-8388608,-605.0000721,2671.875,22016
605,8388607,-605.0000721,-8388608,-8388608,-605.0000721,2673.828125,22080
605,8388607,-605.0000721,-8388608,-8388608,-605.0000721,2675.78125,22144
605,8388607,-605.0000721,-8388608,-8388608,-605.0000721,2677.734375,22208
605,8388607,-605.0000721,-8388608,-8388608,-605.0000721,2679.6875,22272
605,8388607,-605.0000721,-8388608,-8388608,-605.0000721,2681.640625,22336
605,8388607,-605.0000721,-8388608,-8388608,-605.0000721,2683.59375,22400
605,8388607,-605.0000721,-8388608,-8388608,-605.0000721,2685.546875,22464
605,8388607,-605.0000721,-8388608,-8388608,-605.0000721,2687.5,22528
605,8388607,-605.0000721,-8388608,-8388608,-605.0000721,2689.453125,22592
605,8388607,-605.0000721,-8388608,-8388608,-605.0000721,2691.40625,22656
605,8388607,-605.0000721,-8388608,-8388608,-605.0000721,2693.359375,22720
605,8388607,-605.0000721,-8388608,-8388608,-605.0000721,2695.3125,22784
605,8388607,-605.0000721,-8388608,-8388608,-605.0000721,2697.265625,22848
605,8388607,-605.0000721,-8388608,-8388608,-605.0000721,2699.21875,22912
605,8388607,-605.0000721,-8388608,-8388608,-605.0000721,2701.171875,22976
605,8388607,-605.0000721,-8388608,-8388608,-605.0000721,2703.125,23040
605,8388607,-605.0000721,-8388608,-8388608,-605.0000721,2705.078125,23104
605,8388607,-605.0000721,-8388608,-8388608,-605.0000721,2707.03125,23168
605,8388607,-605.0000721,-8388608,-8388608,-605.0000721,2708.984375,23232
605,8388607,-605.0000721,-8388608,-8388608,-605.0000721,2710.9375,23296
605,8388607,-605.0000721,-8388608,-8388608,-605.0000721,2712.890625,23360
605,8388607,-605.0000721,-8388608,-8388608,-605.0000721,2714.84375,23424
605,8388607,-605.0000721,-8388608,-8388608,-605.0000721,2716.796875,23488
605,8388607,-605.0000721,-8388608,-8388608,-605.0000721,2718.75,23552
605,8388607,-605.0000721,-8388608,-8388608,-605.0000721,2720.703125,23616
605,8388607,-605.0000721,-8388608,-8388608,-605.0000721,2722.65625,23680
605,8388607,-605.0000721,-8388608,-8388608,-605.0000721,2724.609375,23744
605,8388607,-605.0000721,-8388608,-8388608,-605.0000721,2726.5625,23808
605,8388607,-605.0000721,-8388608,-8388608,-605.0000721,2728.515625,23872
605,8388607,-605.0000721,-8388608,-8388608,-605.0000721,2730.46875,23936
605,8388607,-605.0000721,-8388608,-8388608,-605.0000721,2732.421875,24000
605,8388607,-605.0000721,-8388608,-8388608,-605.0000721,2734.375,24064
605,8388607,-605.0000721,-8388608,-8388608,-605.0000721,2736.328125,24128
605,8388607,-605.0000721,-8388608,-8388608,-605.0000721,2738.28125,24192
605,8388607,-605.0000721,-8388608,-8388608,-605.0000721,2740.234375,24256
605,8388607,-605.0000721,-8388608,-8388608,-605.0000721,2742.1875,24320
605,8388607,-605.0000721,-8388608,-8388608,-605.0000721,2744.140625,24384
605,8388607,-605.0000721,-8388608,-8388608,-605.0000721,2746.09375,24448
605,8388607,-605.0000721,-8388608,-8388608,-605.0000721,2748.046875,24512
605,8388607,-605.0000721,-8388608,-8388608,-605.0000721,2750,24576
605,8388607,-605.0000721,-8388608,-8388608,-605.0000721,2751.953125,24640
605,8388607,-605.0000721,-8388608,-8388608,-605.0000721,2753.90625,24704
605,8388607,-605.0000721,-8388608,-8388608,-605.0000721,2755.859375,24768
605,8388607,-605.0000721,-8388608,-8388608,-605.0000721,2757.8125,24832
605,8388607,-605.0000721,-8388608,-8388608,-605.0000721,2759.765625,24896
605,8388607,-605.0000721,-8388608,-8388608,-605.0000721,2761.71875,24960
605,8388607,-605.0000721,-8388608,-8388608,-605.0000721,2763.671875,25024
605,8388607,-605.0000721,-8388608,-8388608,-605.0000721,2765.625,25088
605,8388607,-605.0000721,-8388608,-8388608,-605.0000721,2767.578125,25152
605,8388607,-605.0000721,-8388608,-8388608,-605.0000721,2769.53125,25216
605,8388607,-605.0000721,-8388608,-8388608,-605.0000721,2771.484375,25280
605,8388607,-605.0000721,-8388608,-8388608,-605.0000721,2773.4375,25344
605,8388607,-605.0000721,-8388608,-8388608,-605.0000721,2775.390625,25408
605,8388607,-605.0000721,-8388608,-8388608,-605.0000721,2777.34375,25472
605,8388607,-605.0000721,-8388608,-8388608,-605.0000721,2779.296875,25536
605,8388607,-605.0000721,-8388608,-8388608,-605.0000721,2781.25,25600
605,8388607,-605.0000721,-8388608,-8388608,-605.0000721,2783.203125,25664
605,8388607,-605.0000721,-8388608,-8388608,-605.0000721,2785.15625,25728
605,8388607,-605.0000721,-8388608,-8388608,-605.0000721,2787.109375,25792
605,8388607,-605.0000721,-8388608,-8388608,-605.0000721,2789.0625,25856
605,8388607,-605.0000721,-8388608,-8388608,-605.0000721,2791.015625,25920
605,8388607,-605.0000721,-8388608,-8388608,-605.0000721,2792.96875,25984
605,8388607,-605.0000721,-8388608,-8388608,-605.0000721,2794.921875,26048
605,8388607,-605.0000721,-8388608,-8388608,-605.0000721,2796.875,26112
605,8388607,-605.0000721,-8388608,-8388608,-605.0000721,2798.828125,26176
605,8388607,-605.0000721,-8388608,-8388608,-605.0000721,2800.78125,26240
605,8388607,-605.0000721,-8388608,-8388608,-605.0000721,2802.734375,26304
605,8388607,-605.0000721,-8388608,-8388608,-605.0000721,2804.6875,26368
605,8388607,-605.0000721,-8388608,-8388608,-605.0000721,2806.640625,26432
605,8388607,-605.0000721,-8388608,-8388608,-605.0000721,2808.59375,26496
605,8388607,-605.0000721,-8388608,-8388608,-605.0000721,2810.546875,26560
605,8388607,-605.0000721,-8388608,-8388608,-605.0000721,2812.5,26624
605,8388607,-605.0000721,-8388608,-8388608,-605.0000721,2814.453125,26688
605,8388607,-605.0000721,-8388608,-8388608,-605.0000721,2816.40625,26752
605,8388607,-605.0000721,-8388608,-8388608,-605.0000721,2818.359375,26816
605,8388607,-605.0000721,-8388608,-8388608,-605.0000721,2820.3125,26880
605,8388607,-605.0000721,-8388608,-8388608,-605.0000721,2822.265625,26944
605,8388607,-605.0000721,-8388608,-8388608,-605.0000721,2824.21875,27008
605,8388607,-605.0000721,-8388608,-8388608,-605.0000721,2826.171875,27072
605,8388607,-605.0000721,-8388608,-8388608,-605.0000721,2828.125,27136
605,8388607,-605.0000721,-8388608,-8388608,-605.0000721,2830.078125,27200
605,8388607,-605.0000721,-8388608,-8388608,-605.0000721,2832.03125,27264
605,8388607,-605.0000721,-8388608,-8388608,-605.0000721,2833.984375,27328
605,8388607,-605.0000721,-8388608,-8388608,-605.0000721,2835.9375,27392
605,8388607,-605.0000721,-8388608,-8388608,-605.0000721,2837.890625,27456
605,8388607,-605.0000721,-8388608,-8388608,-605.0000721,2839.84375,27520
605,8388607,-605.0000721,-8388608,-8388608,-605.0000721,2841.796875,27584
605,8388607,-605.0000721,-8388608,-8388608,-605.0000721,2843.75,27648
605,8388607,-605.0000721,-8388608,-8388608,-605.0000721,2845.703125,27712
605,8388607,-605.0000721,-8388608,-8388608,-605.0000721,2847.65625,27776
605,8388607,-605.0000721,-8388608,-8388608,-605.0000721,2849.609375,27840
605,8388607,-605.0000721,-8388608,-8388608,-605.0000721,2851.5625,27904
605,8388607,-605.0000721,-8388608,-8388608,-605.0000721,2853.515625,27968
605,8388607,-605.0000721,-8388608,-8388608,-605.0000721,2855.46875,28032
605,8388607,-605.0000721,-8388608,-8388608,-605.0000721,2857.421875,28096
605,8388607,-605.0000721,-8388608,-8388608,-605.0000721,2859.375,28160
605,8388607,-605.0000721,-8388608,-8388608,-605.0000721,2861.328125,28224
605,8388607,-605.0000721,-8388608,-8388608,-605.0000721,2863.28125,28288
605,8388607,-605.0000721,-8388608,-8388608,-605.0000721,2865.234375,28352
605,8388607,-605.0000721,-8388608,-8388608,-605.0000721,2867.1875,28416
605,8388607,-605.0000721,-8388608,-8388608,-605.0000721,2869.140625,28480
605,8388607,-605.0000721,-8388608,-8388608,-605.0000721,2871.09375,28544
605,8388607,-605.0000721,-8388608,-8388608,-605.0000721,2873.046875,28608
605,8388607,-605.0000721,-8388608,-8388608,-605.0000721,2875,28672
605,8388607,-605.0000721,-8388608,-8388608,-605.0000721,2876.953125,28736
605,8388607,-605.0000721,-8388608,-8388608,-605.0000721,2878.90625,28800
605,8388607,-605.0000721,-8388608,-8388608,-605.0000721,2880.859375,28864
605,8388607,-605.0000721,-8388608,-8388608,-605.0000721,2882.8125,28928
605,8388607,-605.0000721,-8388608,-8388608,-605.0000721,2884.765625,28992
605,8388607,-605.0000721,-8388608,-8388608,-605.0000721,2886.71875,29056
605,8388607,-605.0000721,-8388608,-8388608,-605.0000721,2888.671875,29120
605,8388607,-605.0000721,-8388608,-8388608,-605.0000721,2890.625,29184
605,8388607,-605.0000721,-8388608,-8388608,-605.0000721,2892.578125,29248
605,8388607,-605.0000721,-8388608,-8388608,-605.0000721,2894.53125,29312
605,8388607,-605.0000721,-8388608,-8388608,-605.0000721,2896.484375,29376
605,8388607,-605.0000721,-8388608,-8388608,-605.0000721,2898.4375,29440
605,8388607,-605.0000721,-8388608,-8388608,-605.0000721,2900.390625,29504
605,8388607,-605.0000721,-8388608,-8388608,-605.0000721,2902.34375,29568
605,8388607,-605.0000721,-8388608,-8388608,-605.0000721,2904.296875,29632
605,8388607,-605.0000721,-8388608,-8388608,-605.0000721,2906.25,29696
605,8388607,-605.0000721,-8388608,-8388608,-605.0000721,2908.203125,29760
605,8388607,-605.0000721,-8388608,-8388608,-605.0000721,2910.15625,29824
605,8388607,-605.0000721,-8388608,-8388608,-605.0000721,2912.109375,29888
605,8388607,-605.0000721,-8388608,-8388608,-605.0000721,2914.0625,29952
605,8388607,-605.0000721,-8388608,-8388608,-605.0000721,2916.015625,30016
605,8388607,-605.0000721,-8388608,-8388608,-605.0000721,2917.96875,30080
605,8388607,-605.0000721,-8388608,-8388608,-605.0000721,2919.921875,30144
605,8388607,-605.0000721,-8388608,-8388608,-605.0000721,2921.875,30208
605,8388607,-605.0000721,-8388608,-8388608,-605.0000721,2923.828125,30272
605,8388607,-605.0000721,-8388608,-8388608,-605.0000721,2925.78125,30336
605,8388607,-605.0000721,-8388608,-8388608,-605.0000721,2927.734375,30400
605,8388607,-605.0000721,-8388608,-8388608,-605.0000721,2929.6875,30464
605,8388607,-605.0000721,-8388608,-8388608,-605.0000721,2931.640625,30528
605,8388607,-605.0000721,-8388608,-8388608,-605.0000721,2933.59375,30592
605,8388607,-605.0000721,-8388608,-8388608,-605.0000721,2935.546875,30656
605,8388607,-605.0000721,-8388608,-8388608,-605.0000721,2937.5,30720
605,8388607,-605.0000721,-8388608,-8388608,-605.0000721,2939.453125,30784
605,8388607,-605.0000721,-8388608,-8388608,-605.0000721,2941.40625,30848
605,8388607,-605.0000721,-8388608,-8388608,-605.0000721,2943.359375,30912
605,8388607,-605.0000721,-8388608,-8388608,-605.0000721,2945.3125,30976
605,8388607,-605.0000721,-8388608,-8388608,-605.0000721,2947.265625,31040
605,8388607,-605.0000721,-8388608,-8388608,-605.0000721,2949.21875,31104
605,8388607,-605.0000721,-8388608,-8388608,-605.0000721,2951.171875,31168
605,8388607,-605.0000721,-8388608,-8388608,-605.0000721,2953.125,31232
605,8388607,-605.0000721,-8388608,-8388608,-605.0000721,2955.078125,31296
605,8388607,-605.0000721,-8388608,-8388608,-605.0000721,2957.03125,31360
605,8388607,-605.0000721,-8388608,-8388608,-605.0000721,2958.984375,31424
605,8388607,-605.0000721,-8388608,-8388608,-605.0000721,2960.9375,31488
605,8388607,-605.0000721,-8388608,-8388608,-605.0000721,2962.890625,31552
605,8388607,-605.0000721,-8388608,-8388608,-605.0000721,2964.84375,31616
605,8388607,-605.0000721,-8388608,-8388608,-605.0000721,2966.796875,31680
605,8388607,-605.0000721,-8388608,-8388608,-605.0000721,2968.75,31744
605,8388607,-605.0000721,-8388608,-8388608,-605.0000721,2970.703125,31808
605,8388607,-605.0000721,-8388608,-8388608,-605.0000721,2972.65625,31872
605,8388607,-605.0000721,-8388608,-8388608,-605.0000721,2974.609375,31936
605,8388607,-605.0000721,-8388608,-8388608,-605.0000721,2976.5625,32000
605,8388607,-605.0000721,-8388608,-8388608,-605.0000721,2978.515625,32064
605,8388607,-605.0000721,-8388608,-8388608,-605.0000721,2980.46875,32128
605,8388607,-605.0000721,-8388608,-8388608,-605.0000721,2982.421875,32192
605,8388607,-605.0000721,-8388608,-8388608,-605.0000721,2984.375,32256
605,8388607,-605.0000721,-8388608,-8388608,-605.0000721,2986.328125,32320
605,8388607,-605.0000721,-8388608,-8388608,-605.0000721,2988.28125,32384
605,8388607,-605.0000721,-8388608,-8388608,-605.0000721,2990.234375,32448
605,8388607,-605.0000721,-8388608,-8388608,-605.0000721,2992.1875,32512
605,8388607,-605.0000721,-8388608,-8388608,-605.0000721,2994.140625,32576
605,8388607,-605.0000721,-8388608,-8388608,-605.0000721,2996.09375,32640
605,8388607,-605.0000721,-8388608,-8388608,-605.0000721,2998.046875,32704
605,8388607,-605.0000721,-8388608,-8388608,-605.0000721,3000,32768
605,8388607,-605.0000721,-8388608,-8388608,-605.0000721,3001.953125,32832
605,8388607,-605.0000721,-8388608,-8388608,-605.0000721,3003.90625,32896
605,8388607,-605.0000721,-8388608,-8388608,-605.0000721,3005.859375,32960
605,8388607,-605.0000721,-8388608,-8388608,-605.0000721,3007.8125,33024
605,8388607,-605.0000721,-8388608,-8388608,-605.0000721,3009.765625,33088
605,8388607,-605.0000721,-8388608,-8388608,-605.0000721,3011.71875,33152
605,8388607,-605.0000721,-8388608,-8388608,-605.0000721,3013.671875,33216
605,8388607,-605.0000721,-8388608,-8388608,-605.0000721,3015.625,33280
605,8388607,-605.0000721,-8388608,-8388608,-605.0000721,3017.578125,33344
605,8388607,-605.0000721,-8388608,-8388608,-605.0000721,3019.53125,33408
605,8388607,-605.0000721,-8388608,-8388608,-605.0000721,3021.484375,33472
605,8388607,-605.0000721,-8388608,-8388608,-605.0000721,3023.4375,33536
605,8388607,-605.0000721,-8388608,-8388608,-605.0000721,3025.390625,33600
605,8388607,-605.0000721,-8388608,-8388608,-605.0000721,3027.34375,33664
605,8388607,-605.0000721,-8388608,-8388608,-605.0000721,3029.296875,33728
605,8388607,-605.0000721,-8388608,-8388608,-605.0000721,3031.25,33792
605,8388607,-605.0000721,-8388608,-8388608,-605.0000721,3033.203125,33856
605,8388607,-605.0000721,-8388608,-8388608,-605.0000721,3035.15625,33920
605,8388607,-605.0000721,-8388608,-8388608,-605.0000721,3037.109375,33984
605,8388607,-605.0000721,-8388608,-8388608,-605.0000721,3039.0625,34048
605,8388607,-605.0000721,-8388608,-8388608,-605.0000721,3041.015625,34112
605,8388607,-605.0000721,-8388608,-8388608,-605.0000721,3042.96875,34176
605,8388607,-605.0000721,-8388608,-8388608,-605.0000721,3044.921875,34240
605,8388607,-605.0000721,-8388608,-8388608,-605.0000721,3046.875,34304
605,8388607,-605.0000721,-8388608,-8388608,-605.0000721,3048.828125,34368
605,8388607,-605.0000721,-8388608,-8388608,-605.0000721,3050.78125,34432
605,8388607,-605.0000721,-8388608,-8388608,-605.0000721,3052.734375,34496
605,8388607,-605.0000721,-8388608,-8388608,-605.0000721,3054.6875,34560
605,8388607,-605.0000721,-8388608,-8388608,-605.0000721,3056.640625,34624
605,8388607,-605.0000721,-8388608,-8388608,-605.0000721,3058.59375,34688
605,8388607,-605.0000721,-8388608,-8388608,-605.0000721,3060.546875,34752
605,8388607,-605.0000721,-8388608,-8388608,-605.0000721,3062.5,34816
605,8388607,-605.0000721,-8388608,-8388608,-605.0000721,3064.453125,34880
605,8388607,-605.0000721,-8388608,-8388608,-605.0000721,3066.40625,34944
605,8388607,-605.0000721,-8388608,-8388608,-605.0000721,3068.359375,35008
605,8388607,-605.0000721,-8388608,-8388608,-605.0000721,3070.3125,35072
605,8388607,-605.0000721,-8388608,-8388608,-605.0000721,3072.265625,35136
605,8388607,-605.0000721,-8388608,-8388608,-605.0000721,3074.21875,35200
605,8388607,-605.0000721,-8388608,-8388608,-605.0000721,3076.171875,35264
605,8388607,-605.0000721,-8388608,-8388608,-605.0000721,3078.125,35328
605,8388607,-605.0000721,-8388608,-8388608,-605.0000721,3080.078125,35392
605,8388607,-605.0000721,-8388608,-8388608,-605.0000721,3082.03125,35456
605,8388607,-605.0000721,-8388608,-8388608,-605.0000721,3083.984375,35520
605,8388607,-605.0000721,-8388608,-8388608,-605.0000721,3085.9375,35584
605,8388607,-605.0000721,-8388608,-8388608,-605.0000721,3087.890625,35648
605,8388607,-605.0000721,-8388608,-8388608,-605.0000721,3089.84375,35712
605,8388607,-599.4884651,-8312187,-8373564,-603.9150743,3091.796875,35776
605,8388607,-605.0000721,-8388608,-8388608,-605.0000721,3093.75,35840
605,8388607,-605.0000721,-8388608,-8388608,-605.0000721,3095.703125,35904
605,8388607,-605.0000721,-8388608,-8388608,-605.0000721,3097.65625,35968
605,8388607,-605.0000721,-8388608,-8388608,-605.0000721,3099.609375,36032
605,8388607,-605.0000721,-8388608,-8388608,-605.0000721,3101.5625,36096
605,8388607,-605.0000721,-8388608,-8388608,-605.0000721,3103.515625,36160
605,8388607,-605.0000721,-8388608,-8388608,-605.0000721,3105.46875,36224
605,8388607,-605.0000721,-8388608,-8388608,-605.0000721,3107.421875,36288
605,8388607,-605.0000721,-8388608,-8388608,-605.0000721,3109.375,36352
605,8388607,-605.0000721,-8388608,-8388608,-605.0000721,3111.328125,36416
605,8388607,-605.0000721,-8388608,-8388608,-605.0000721,3113.28125,36480
605,8388607,-605.0000721,-8388608,-8388608,-605.0000721,3115.234375,36544
605,8388607,-605.0000721,-8388608,-8388608,-605.0000721,3117.1875,36608
605,8388607,-605.0000721,-8388608,-8388608,-605.0000721,3119.140625,36672
605,8388607,-605.0000721,-8388608,-8388608,-605.0000721,3121.09375,36736
605,8388607,-605.0000721,-8388608,-8388608,-605.0000721,3123.046875,36800
605,8388607,-605.0000721,-8388608,-8388608,-605.0000721,3125,36864
605,8388607,-605.0000721,-8388608,-8388608,-605.0000721,3126.953125,36928
605,8388607,-605.0000721,-8388608,-8388608,-605.0000721,3128.90625,36992
605,8388607,-605.0000721,-8388608,-8388608,-605.0000721,3130.859375,37056
605,8388607,-605.0000721,-8388608,-8388608,-605.0000721,3132.8125,37120
605,8388607,-605.0000721,-8388608,-8388608,-605.0000721,3134.765625,37184
605,8388607,-605.0000721,-8388608,-8388608,-605.0000721,3136.71875,37248
605,8388607,-605.0000721,-8388608,-8388608,-605.0000721,3138.671875,37312
605,8388607,-605.0000721,-8388608,-8388608,-605.0000721,3140.625,37376
605,8388607,-605.0000721,-8388608,-8388608,-605.0000721,3142.578125,37440
605,8388607,-605.0000721,-8388608,-8388608,-605.0000721,3144.53125,37504
605,8388607,-605.0000721,-8388608,-8388608,-605.0000721,3146.484375,37568
605,8388607,-605.0000721,-8388608,-8388608,-605.0000721,3148.4375,37632
605,8388607,-605.0000721,-8388608,-8388608,-605.0000721,3150.390625,37696
605,8388607,-605.0000721,-8388608,-8388608,-605.0000721,3152.34375,37760
605,8388607,-605.0000721,-8388608,-8388608,-605.0000721,3154.296875,37824
605,8388607,-605.0000721,-8388608,-8388608,-605.0000721,3156.25,37888
605,8388607,-605.0000721,-8388608,-8388608,-605.0000721,3158.203125,37952
605,8388607,-605.0000721,-8388608,-8388608,-605.0000721,3160.15625,38016
605,8388607,-605.0000721,-8388608,-8388608,-605.0000721,3162.109375,38080
605,8388607,-605.0000721,-8388608,-8388608,-605.0000721,3164.0625,38144
605,8388607,-605.0000721,-8388608,-8388608,-605.0000721,3166.015625,38208
605,8388607,-605.0000721,-8388608,-8388608,-605.0000721,3167.96875,38272
605,8388607,-605.0000721,-8388608,-8388608,-605.0000721,3169.921875,38336
605,8388607,-605.0000721,-8388608,-8388608,-605.0000721,3171.875,38400
605,8388607,-605.0000721,-8388608,-8388608,-605.0000721,3173.828125,38464
605,8388607,-605.0000721,-8388608,-8388608,-605.0000721,3175.78125,38528
605,8388607,-605.0000721,-8388608,-8388608,-605.0000721,3177.734375,38592
605,8388607,-605.0000721,-8388608,-8388608,-605.0000721,3179.6875,38656
605,8388607,-605.0000721,-8388608,-8388608,-605.0000721,3181.640625,38720
605,8388607,-605.0000721,-8388608,-8388608,-605.0000721,3183.59375,38784
605,8388607,-605.0000721,-8388608,-8388608,-605.0000721,3185.546875,38848
605,8388607,-605.0000721,-8388608,-8388608,-605.0000721,3187.5,38912
605,8388607,-605.0000721,-8388608,-8388608,-605.0000721,3189.453125,38976
605,8388607,-605.0000721,-8388608,-8388608,-605.0000721,3191.40625,39040
