Device,Device,Device,Device,Device,Device,Device,Device,Device,Device,Device,Device
ECG Vx-RL,ECG Vx-RL,ECG LA-RA,ECG LA-RA,ExG2 CH1,ExG2 CH1,EXG1 Status,ECG LL-RA,ECG LL-RA,Timestamp,Timestamp,EXG2 Status
RAW,CAL,CAL,RAW,CAL,RAW,RAW,CAL,RAW,RAW,CAL,RAW
No Units,mV,mV,No Units,mV,No Units,No Units,mV,No Units,No Units,mSecs,No Units
58112,4.191132091,-196.1523671,-2719744,-1.052398807,-14592,0,-37.0001986,-513025,64,36001.95313,47
64763,4.670813044,-248.1445608,-3440640,-1.163249751,-16129,0,-37.20329311,-515841,128,36003.90625,32
-65787,-4.744665592,-4.791977381,-66443,0.222639468,3087,128,-28.11827578,-389873,192,36005.85938,128
-65787,-4.744665592,-4.763705702,-66051,0.222639468,3087,128,-28.03072012,-388659,256,36007.8125,128
-31880,-2.299237525,-4.683722816,-64942,0.517400565,7174,128,-27.89736723,-386810,320,36009.76563,128
-15112,-1.089902054,-4.64052196,-64343,0.551586217,7648,128,-27.81010006,-385600,384,36011.71875,128
-7687,-0.55439896,-4.620183661,-64061,1.145219343,15879,128,-27.72896322,-384475,448,36013.67188,128
-6892,-0.497062266,-4.62588127,-64140,1.181568644,16383,128,-27.67732414,-383759,512,36015.625,128
-3321,-0.239515929,-4.589892577,-63641,1.145652073,15885,128,-27.5775078,-382375,576,36017.57813,128
-128,-0.009231568,-4.624943689,-64127,1.037397508,14384,128,-27.56755502,-382237,640,36019.53125,128
-65056,-4.691944682,-4.668577274,-64732,1.159066696,16071,128,-27.5314942,-381737,704,36021.48438,128
-65025,-4.689708911,-4.546475356,-63039,1.181496523,16382,128,-27.38054363,-379644,768,36023.4375,128
-49649,-3.580766747,-27.35703198,-379318,0,0,158,-302.5000361,-4194304,832,36025.39063,128
8388360,604.982186,-155.9944673,-2162936,1.037974481,14392,133,4.61967881,64054,896,36027.34375,0
8161,0.588584612,-155.9944673,-2162936,0.443115287,6144,133,4.61967881,64054,960,36029.29688,159
-63556,-4.583762238,-27.18285825,-376903,0,0,158,-302.5000361,-4194304,1024,36031.25,0
-262144,-18.90625225,-27.18285825,-376903,0,0,158,-302.5000361,-4194304,1088,36033.20313,158
30720,2.215576436,-289.5019876,-4014080,1.03393567,14336,1,-401.7756023,-5570806,1152,36035.15625,0
63,0.004543663,0.018030407,250,0.013847353,192,137,58.43121272,810176,1216,36037.10938,128
-65533,-4.726346699,0.018030407,250,0.018391015,255,137,58.43121272,810176,1280,36039.0625,0
-262144,-18.90625225,-4.571934291,-63392,0.523530903,7259,128,-27.07885886,-375461,1344,36041.01563,128
24576,1.772461149,-530.5567039,-7356416,1.164259453,16143,1,510.4509968,7077641,1408,36042.96875,0
-262080,-18.90163647,-4.499019325,-62381,0.148209947,2055,128,-26.98697591,-374187,1472,36044.92188,128
-32768,-2.363281532,-4.489715635,-62252,0.166023989,2302,128,-26.92581677,-373339,1536,36046.875,128
-62464,-4.50500542,-4.502120555,-62424,0.138545649,1921,128,-26.91600822,-373203,1600,36048.82813,128
-32705,-2.358737869,-4.416944911,-61243,0.443980747,6156,128,-26.84431933,-372209,1664,36050.78125,128
-32377,-2.335081975,-4.444206887,-61621,0.461289938,6396,128,-26.82751499,-371976,1728,36052.73438,128
-28676,-2.068159827,-4.459929402,-61839,0.452274734,6271,128,-26.81561492,-371811,1792,36054.6875,128
-28721,-2.0714053,-4.471468862,-61999,0.425661853,5902,128,-26.80068574,-371604,1856,36056.64063,128
-30976,-2.234039573,-4.483873783,-62171,0.410227824,5688,128,-26.78359291,-371367,1920,36058.59375,128
-31741,-2.289212619,-4.51741034,-62636,0.369551226,5124,128,-26.79707966,-371554,1984,36060.54688,128
-28800,-2.077102909,-4.474209484,-62037,0.435831003,6043,128,-26.74767634,-370869,2048,36062.5,128
-32768,-2.363281532,-4.453726942,-61753,0.443115287,6144,128,-26.71197614,-370374,2112,36064.45313,128
-32272,-2.327509204,-4.425887993,-61367,0.452058369,6268,128,-26.67577108,-369872,2176,36066.40625,128
-32761,-2.36277668,-4.439302616,-61553,0.590748261,8191,128,-26.6758432,-369873,2240,36068.35938,128
-28672,-2.06787134,-4.372590109,-60628,0.569905111,7902,128,-26.60718341,-368921,2304,36070.3125,128
-28660,-2.067005881,-4.417305519,-61248,0.586204599,8128,128,-26.62153561,-369120,2368,36072.26563,128
-31777,-2.291808998,-4.437499575,-61528,0.582670639,8079,128,-26.62593503,-369181,2432,36074.21875,128
-26624,-1.920166245,-4.434326224,-61484,0.55569715,7705,128,-26.61389072,-369014,2496,36076.17188,128
-16321,-1.177097103,-4.427041939,-61383,0.588945221,8166,128,-26.60263975,-368858,2560,36078.125,128
-16153,-1.16498067,-4.435408048,-61499,0.900294292,12483,128,-26.57169957,-368429,2624,36080.07813,128
-16353,-1.179404995,-4.386870192,-60826,1.038551454,14400,128,-26.51205498,-367602,2688,36082.03125,128
-15361,-1.10786034,-4.379730151,-60727,1.108293069,15367,128,-26.47599417,-367102,2752,36083.98438,128
-16384,-1.181640766,-4.372806474,-60631,1.115649476,15469,128,-26.49222153,-367327,2816,36085.9375,128
-15440,-1.113557948,-4.365738555,-60533,1.108004583,15363,128,-26.45666557,-366834,2880,36087.89063,128
-11215,-0.808844067,-4.300468481,-59628,1.043095117,14463,128,-26.39327066,-365955,2944,36089.84375,128
-10233,-0.738020627,-4.302920616,-59662,1.107499731,15356,128,-26.37646632,-365722,3008,36091.79688,128
-4093,-0.295193827,-4.3358802,-60119,1.180631063,16370,128,-26.37098508,-365646,3072,36093.75,128
-8448,-0.60928352,-4.310853995,-59772,1.108004583,15363,128,-26.34631948,-365304,3136,36095.70313,128
-2241,-0.16162457,-4.298737562,-59604,1.152647871,15982,128,-26.31364838,-364851,3200,36097.65625,128
-2161,-0.15585484,-4.329028646,-60024,1.180703185,16371,128,-26.33824186,-365192,3264,36099.60938,128
-3204,-0.231077699,-4.349511188,-60308,1.181568644,16383,128,-26.37877421,-365754,3328,36101.5625,128
-578,-0.041686301,-4.316984334,-59857,1.172409197,16256,128,-26.32648603,-365029,3392,36103.51563,128
-2497,-0.180087707,-4.31063763,-59769,1.172409197,16256,128,-26.28782884,-364493,3456,36105.46875,128
-1,-7.21E-05,-4.270105275,-59207,1.042013293,14448,128,-26.21325507,-363459,3520,36107.42188,128
-513,-0.036998396,-4.247603327,-58895,1.144281762,15866,128,-26.1903204,-363141,3584,36109.375,128
-1987,-0.143305676,-4.240030556,-58790,1.181063793,16376,128,-26.16038992,-362726,3648,36111.32813,128
-1800,-0.129818932,-4.293977534,-59538,0.997514248,13831,128,-26.190681,-363146,3712,36113.28125,128
-496,-0.035772328,-4.241256623,-58807,1.144858735,15874,128,-26.16334691,-362767,3776,36115.23438,128
-545,-0.039306288,-4.249045759,-58915,1.026795629,14237,128,-26.18786826,-363107,3840,36117.1875,128
-64737,-4.668937882,-4.300684846,-59631,0.894957291,12409,128,-26.24585405,-363911,3904,36119.14063,128
-64001,-4.615856363,-4.355930013,-60397,0.905198563,12551,128,-26.28660277,-364476,3968,36121.09375,128
-65297,-4.709325994,-4.284818087,-59411,0.886807547,12296,128,-26.22782364,-363661,4032,36123.04688,128
-63329,-4.567390629,-4.249045759,-58915,1.108365191,15368,128,-26.18815675,-363111,4096,36125,128
-62216,-4.487119256,-4.247963935,-58900,1.108148826,15365,128,-26.19746044,-363240,4160,36126.95313,128
-61448,-4.431729845,-4.22827473,-58627,1.117452516,15494,128,-26.19810953,-363249,4224,36128.90625,128
-61885,-4.463246997,-4.188247226,-58072,1.180703185,16371,128,-26.18462279,-363062,4288,36130.85938,128
-57581,-4.152835507,-4.227048663,-58610,1.025208953,14215,128,-26.20863929,-363395,4352,36132.8125,128
-58369,-4.20966735,-4.258205206,-59042,0.964121933,13368,128,-26.23265579,-363728,4416,36134.76563,128
-58817,-4.24197784,-4.222721365,-58550,0.957414622,13275,128,-26.21484175,-363481,4480,36136.71875,128
-59201,-4.269672545,-4.277678046,-59312,0.911617388,12640,128,-26.26359597,-364157,4544,36138.67188,128
-57794,-4.168197413,-4.297295129,-59584,1.181352279,16380,128,-26.2886943,-364505,4608,36140.625,128
-58322,-4.206277633,-4.241761475,-58814,0.92056047,12764,128,-26.22327998,-363598,4672,36142.57813,128
-57477,-4.145334857,-4.265056761,-59137,0.997081518,13825,128,-26.23114124,-363707,4736,36144.53125,128
-57359,-4.136824505,-4.270610126,-59214,0.923084727,12799,128,-26.24123827,-363847,4800,36146.48438,128
-65281,-4.708172048,-4.256546409,-59019,0.997225761,13827,128,-26.20856717,-363394,4864,36148.4375,128
-65009,-4.688554965,-4.24197784,-58817,1.020016196,14143,128,-26.20359077,-363325,4928,36150.39063,128
-63495,-4.579362819,-4.302704251,-59659,0.886446939,12291,128,-26.23994008,-363829,4992,36152.34375,128
-65530,-4.726130334,-4.301622427,-59644,0.90462159,12543,128,-26.24325767,-363875,5056,36154.29688,128
-64573,-4.657109935,-4.292174493,-59513,0.886735426,12295,128,-26.2260206,-363636,5120,36156.25,128
-63549,-4.583257387,-4.306021846,-59705,0.886230574,12288,128,-26.24289706,-363870,5184,36158.20313,128
-63737,-4.596816253,-4.350448769,-60321,0.905703414,12558,128,-26.26741842,-364210,5248,36160.15625,128
-65473,-4.722019401,-4.313306131,-59806,0.886230574,12288,128,-26.24585405,-363911,5312,36162.10938,128
-60419,-4.357516689,-4.283303533,-59390,0.955178852,13244,128,-26.21996238,-363552,5376,36164.0625,128
-60418,-4.357444567,-4.290732061,-59493,0.950851554,13184,128,-26.23265579,-363728,5440,36166.01563,128
-63551,-4.58340163,-4.278327141,-59321,0.955467338,13248,128,-26.2250109,-363622,5504,36167.96875,128
-59364,-4.281428371,-4.264479788,-59129,1.029392008,14273,128,-26.20020106,-363278,5568,36169.92188,128
-61693,-4.449399644,-4.295275723,-59556,1.015688898,14083,128,-26.22904971,-363678,5632,36171.875,128
-57473,-4.145046371,-4.309844292,-59758,0.890197264,12343,128,-26.22392907,-363607,5696,36173.82813,128
-57440,-4.142666357,-4.269167694,-59194,1.015184047,14076,128,-26.20149925,-363296,5760,36175.78125,128
-59149,-4.26592222,-4.280562911,-59352,1.029175643,14270,128,-26.20561018,-363353,5824,36177.73438,128
-57377,-4.138122694,-4.310493387,-59767,0.923012605,12798,128,-26.23943522,-363822,5888,36179.6875,128
-57860,-4.172957441,-4.316335239,-59848,0.901159752,12495,128,-26.22616484,-363638,5952,36181.64063,128
-57407,-4.140286343,-4.286909614,-59440,0.951933378,13199,128,-26.20553806,-363352,6016,36183.59375,128
-57827,-4.170577427,-4.269239815,-59195,1.023550156,14192,128,-26.20416775,-363333,6080,36185.54688,128
-59364,-4.281428371,-4.273567113,-59255,1.013669492,14055,128,-26.18938281,-363128,6144,36187.5,128
-57352,-4.136319654,-4.231664447,-58674,1.151566047,15967,128,-26.14928319,-362572,6208,36189.45313,128
-58372,-4.209883715,-4.245944529,-58872,1.035017495,14351,128,-26.16226508,-362752,6272,36191.40625,128
-57351,-4.136247532,-4.253805787,-58981,1.024704102,14208,128,-26.16911664,-362847,6336,36193.35938,128
-57470,-4.144830006,-4.255320341,-59002,1.013453128,14052,128,-26.16370751,-362772,6400,36195.3125,128
-58114,-4.191276335,-4.268590721,-59186,1.033863549,14335,128,-26.18714704,-363097,6464,36197.26563,128
-57345,-4.135814802,-4.295347845,-59557,0.961164947,13327,128,-26.19630649,-363224,6528,36199.21875,128
-57440,-4.142666357,-4.298881805,-59606,0.969242569,13439,128,-26.20344653,-363323,6592,36201.17188,128
-65536,-4.726563063,-4.262532504,-59102,0.998091221,13839,128,-26.185344,-363072,6656,36203.125,128
-65529,-4.726058212,-4.24154511,-58811,1.031411413,14301,128,-26.16075053,-362731,6720,36205.07813,128
-57679,-4.159903426,-4.234693555,-58716,1.173491022,16271,128,-26.16486146,-362788,6784,36207.03125,128
-65482,-4.722668495,-4.249694854,-58924,1.033647184,14332,128,-26.16926088,-362849,6848,36208.98438,128
-57346,-4.135886924,-4.220341351,-58517,1.167721292,16191,128,-26.12656488,-362257,6912,36210.9375,128
-58169,-4.195243024,-4.207575823,-58340,1.052326685,14591,128,-26.09007133,-361751,6976,36212.89063,128
-65285,-4.708460535,-4.25438276,-58989,1.14464237,15871,128,-26.1196412,-362161,7040,36214.84375,128
-58056,-4.18709328,-4.260513098,-59074,1.144065397,15863,128,-26.1169727,-362124,7104,36216.79688,128
-65505,-4.724327293,-4.252363354,-58961,1.181568644,16383,128,-26.12360789,-362216,7168,36218.75,128
-64578,-4.657470543,-4.289073263,-59470,1.015472533,14080,128,-26.15750505,-362686,7232,36220.70313,128
-65025,-4.689708911,-4.239814191,-58787,1.153657574,15996,128,-26.13788797,-362414,7296,36222.65625,128
-65057,-4.692016803,-4.222793486,-58551,1.177024982,16320,128,-26.12836792,-362282,7360,36224.60938,128
-65053,-4.691728317,-4.188607834,-58077,1.050090915,14560,128,-26.09973563,-361885,7424,36226.5625,128
-61444,-4.431441358,-4.124419585,-57187,1.163393994,16131,128,-26.01412726,-360698,7488,36228.51563,128
-65497,-4.72375032,-4.086916338,-56667,0.017164948,238,128,-25.97922039,-360214,7552,36230.46875,128
-65535,-4.726490942,-4.056048281,-56239,0.007500649,104,128,-25.95397782,-359864,7616,36232.42188,128
-65410,-4.717475738,-3.997413397,-55426,0.036782031,510,128,-25.92700433,-359490,7680,36234.375,128
-62368,-4.498081743,-3.971305367,-55064,0.006346703,88,128,-25.86108516,-358576,7744,36236.32813,128
-65529,-4.726058212,-3.891178237,-53953,0.014135839,196,128,-25.79732964,-357692,7808,36238.28125,128
-61472,-4.433460764,-3.865430816,-53596,0.295265948,4094,128,-25.72679469,-356714,7872,36240.23438,128
-63730,-4.596311402,-3.842784624,-53282,0.585699747,8121,128,-25.64984091,-355647,7936,36242.1875,128
-61412,-4.429133466,-3.82619665,-53052,0.554038352,7682,128,-25.57836838,-354656,8000,36244.14063,128
-61435,-4.430792264,-3.814368703,-52888,0.536007945,7432,128,-25.46614712,-353100,8064,36246.09375,128
-61182,-4.412545492,-3.707051719,-51400,0.006707311,93,128,-25.27661148,-350472,8128,36248.04688,128
-60935,-4.394731449,-3.697098934,-51262,0.008149744,113,128,-25.23254517,-349861,8192,36250,128
-60808,-4.385572003,-3.761287184,-52152,1.064154633,14755,128,-25.23312214,-349869,8256,36251.95313,128
-61425,-4.430071048,-3.842928868,-53284,1.171255251,16240,128,-25.2686781,-350362,8320,36253.90625,128
-63613,-4.587873171,-3.923560849,-54402,0.886807547,12296,128,-25.32197598,-351101,8384,36255.85938,128
-65533,-4.726346699,-3.970584151,-55054,0.894308197,12400,128,-25.3317124,-351236,8448,36257.8125,128
-65513,-4.724904266,-4.036719684,-55971,0.602071357,8348,128,-25.47992235,-353291,8512,36259.76563,128
-65312,-4.710407819,-4.059510119,-56287,0.143089311,1984,128,-25.67039557,-355932,8576,36261.71875,128
-65217,-4.703556264,-4.1684859,-57798,0.212253953,2943,128,-25.91286849,-359294,8640,36263.67188,128
-63368,-4.570203372,-4.285899912,-59426,1.181568644,16383,128,-26.11358298,-362077,8704,36265.625,128
-64573,-4.657109935,-4.290515696,-59490,1.153873939,15999,128,-26.20784595,-363384,8768,36267.57813,128
-61950,-4.467934903,-4.244069367,-58846,0.893082129,12383,128,-26.21087506,-363426,8832,36269.53125,128
-63601,-4.587007712,-4.17201986,-57847,0.921858659,12782,128,-26.21895268,-363538,8896,36271.48438,128
-61460,-4.432595305,-4.211254026,-58391,1.146950262,15903,128,-26.31985084,-364937,8960,36273.4375,128
-64764,-4.670885166,-4.14634456,-57491,1.149402398,15937,128,-26.32374541,-364991,9024,36275.39063,128
-64519,-4.653215367,-4.091243636,-56727,1.180558941,16369,128,-26.29331008,-364569,9088,36277.34375,128
-65289,-4.708749021,-4.11800076,-57098,1.140098708,15808,128,-26.33752064,-365182,9152,36279.29688,128
-63489,-4.578930089,-4.133795397,-57317,1.109735502,15387,128,-26.33665518,-365170,9216,36281.25,128
-65192,-4.701753223,-4.088286649,-56686,0.886446939,12291,128,-26.25530198,-364042,9280,36283.20313,128
-65026,-4.689781033,-4.059942849,-56293,1.038479333,14399,128,-26.22053936,-363560,9344,36285.15625,128
-65504,-4.724255171,-4.050567037,-56163,1.126107112,15614,128,-26.1726506,-362896,9408,36287.10938,128
-65535,-4.726490942,-4.033834819,-55931,1.164259453,16143,128,-26.13392128,-362359,9472,36289.0625,128
-49158,-3.545355027,-4.038955455,-56002,1.051172739,14575,128,-26.13875343,-362426,9536,36291.01563,128
-65281,-4.708172048,-4.041696077,-56040,1.175726792,16302,128,-26.08040703,-361617,9600,36292.96875,128
-65056,-4.691944682,-4.045157915,-56088,1.172120711,16252,128,-26.0312922,-360936,9664,36294.92188,128
-64458,-4.648815948,-4.059798605,-56291,1.152792114,15984,128,-25.99523139,-360436,9728,36296.875,128
-49408,-3.563385435,-4.103504312,-56897,1.172409197,16256,128,-26.00684297,-360597,9792,36298.82813,128
-65283,-4.708316291,-4.974084493,-68968,0.002452135,34,128,-25.96861851,-360067,9856,36300.78125,128
-114696,-8.272062334,-7.620154932,-105657,0.057697303,800,128,-25.92065763,-359402,9920,36302.73438,128
-118784,-8.566895553,-7.60724516,-105478,0.145902055,2023,128,-25.90731512,-359217,9984,36304.6875,128
-115573,-8.335313003,-7.596787524,-105333,0.139555352,1935,128,-25.90197812,-359143,10048,36306.64063,128
-118304,-8.532277171,-7.608471228,-105495,0.003461838,48,128,-25.91416668,-359312,10112,36308.59375,128
-118782,-8.566751309,-7.580127428,-105102,0.013847353,192,128,-25.88877987,-358960,10176,36310.54688,128
-118784,-8.566895553,-7.609769417,-105513,0.145180839,2013,128,-25.90659391,-359207,10240,36312.5,128
-118770,-8.56588585,-7.606091214,-105462,0.147416609,2044,128,-25.90406965,-359172,10304,36314.45313,128
-118541,-8.549369997,-7.596282672,-105326,0.14655115,2032,128,-25.88639985,-358927,10368,36316.40625,128
-118768,-8.565741606,-7.630612568,-105802,0.076088318,1055,128,-25.91596972,-359337,10432,36318.35938,128
-122625,-8.843914729,-7.67056795,-106356,0.018463137,256,128,-25.93594741,-359614,10496,36320.3125,128
-122877,-8.862089379,-7.602413011,-105411,0.132992283,1844,128,-25.88272165,-358876,10560,36322.26563,128
-122625,-8.843914729,-7.600321484,-105382,0,0,128,-25.8768798,-358795,10624,36324.21875,128
-122369,-8.825451592,-7.600105119,-105379,0.137319581,1904,128,-25.85791181,-358532,10688,36326.17188,128
-121138,-8.736669867,-7.575078914,-105032,0.149724501,2076,128,-25.83317409,-358189,10752,36328.125,128
-120945,-8.722750392,-7.518463435,-104247,0.165014287,2288,128,-25.8078594,-357838,10816,36330.07813,128
-121965,-8.796314454,-7.580920766,-105113,0.147777217,2049,128,-25.85517119,-358494,10880,36332.03125,128
-120992,-8.726140109,-7.571617075,-104984,1.44E-04,2,128,-25.84637235,-358372,10944,36333.98438,128
-118397,-8.538984482,-7.560870953,-104835,0.149940866,2079,128,-25.82495222,-358075,11008,36335.9375,128
-121856,-8.788453196,-7.567650386,-104929,0.147344488,2043,128,-25.84096323,-358297,11072,36337.89063,128
-120932,-8.721812811,-7.594479632,-105301,2.16E-04,3,128,-25.86570094,-358640,11136,36339.84375,128
-122593,-8.841606837,-7.569092818,-104949,0.139627473,1936,128,-25.84060262,-358292,11200,36341.79688,128
-121921,-8.793141102,-7.543273275,-104591,0.156648178,2172,128,-25.8098788,-357866,11264,36343.75,128
-121311,-8.749146908,-7.56692917,-104919,0.017309191,240,128,-25.8308662,-358157,11328,36345.70313,128
-121460,-8.759893031,-7.587483834,-105204,0.136237757,1889,128,-25.85928212,-358551,11392,36347.65625,128
-120608,-8.698445403,-7.497692406,-103959,0.27983192,3880,128,-25.7715101,-357334,11456,36349.60938,128
-119578,-8.624160126,-7.500216663,-103994,0.23071709,3199,128,-25.75665304,-357128,11520,36351.5625,128
-122049,-8.80237267,-7.546879357,-104641,0.059428222,824,128,-25.78607867,-357536,11584,36353.51563,128
-116733,-8.418974092,-7.49963969,-103986,0.257906945,3576,128,-25.74439236,-356958,11648,36355.46875,128
-118810,-8.568770715,-7.470214065,-103578,0.288414393,3999,128,-25.72628984,-356707,11712,36357.42188,128
-122466,-8.83244739,-7.500793636,-104002,0.138473527,1920,128,-25.744176,-356955,11776,36359.375,128
-120896,-8.719216432,-7.520050111,-104269,0.111067308,1540,128,-25.76501915,-357244,11840,36361.32813,128
-122268,-8.818167307,-7.479445634,-103706,0.230500726,3196,128,-25.71799585,-356592,11904,36363.28125,128
-118833,-8.570429512,-7.488893567,-103837,0.147632974,2047,128,-25.72874197,-356741,11968,36365.23438,128
-120808,-8.712869729,-7.480960188,-103727,0.147056001,2039,128,-25.72708317,-356718,12032,36367.1875,128
-120800,-8.712292756,-7.440211468,-103162,0.294833218,4088,128,-25.69167145,-356227,12096,36369.14063,128
-118816,-8.569203445,-7.442807846,-103198,0.479897318,6654,128,-25.69484481,-356271,12160,36371.09375,128
-116736,-8.419190457,-7.476993498,-103672,0.147488731,2045,128,-25.72138556,-356639,12224,36373.04688,128
-118816,-8.569203445,-7.483484445,-103762,0.115322484,1599,128,-25.73321351,-356803,12288,36375,128
-116675,-8.414791037,-7.467473443,-103540,0.143594163,1991,128,-25.6965036,-356294,12352,36376.95313,128
-120805,-8.712653364,-7.494807541,-103919,0.145902055,2023,128,-25.7221789,-356650,12416,36378.90625,128
-119818,-8.641469317,-7.471584376,-103597,0.147488731,2045,128,-25.68741628,-356168,12480,36380.85938,128
-118788,-8.567184039,-7.451750928,-103322,0.313801207,4351,128,-25.68005987,-356066,12544,36382.8125,128
-118840,-8.570934364,-7.461920078,-103463,0.304569638,4223,128,-25.68287262,-356105,12608,36384.76563,128
-115844,-8.354857964,-7.46862739,-103556,0.323104897,4480,128,-25.67775198,-356034,12672,36386.71875,128
-119681,-8.631588654,-7.424705318,-102947,0.446288639,6188,128,-25.64673968,-355604,12736,36388.67188,128
-116733,-8.418974092,-7.375806853,-102269,0.570049354,7904,128,-25.61442919,-355156,12800,36390.625,128
-119801,-8.640243249,-7.425138047,-102953,0.425157002,5895,128,-25.62366076,-355284,12864,36392.57813,128
-118786,-8.567039796,-7.432566575,-103056,0.443115287,6144,128,-25.63520022,-355444,12928,36394.53125,128
-119296,-8.603821826,-7.411795546,-102768,0.442971044,6142,128,-25.62236257,-355266,12992,36396.48438,128
-115201,-8.308483757,-7.431484751,-103041,0.408424784,5663,128,-25.62286742,-355273,13056,36398.4375,128
-115809,-8.352333707,-7.466175254,-103522,0.295626556,4099,128,-25.65085061,-355661,13120,36400.39063,128
-116256,-8.384572075,-7.458602483,-103417,0.331759492,4600,128,-25.62863715,-355353,13184,36402.34375,128
-118911,-8.576054999,-7.448649698,-103279,0.406405378,5635,128,-25.61796315,-355205,13248,36404.29688,128
-119040,-8.585358689,-7.447712117,-103266,0.422200015,5854,128,-25.62596865,-355316,13312,36406.25,128
-115457,-8.326946894,-7.39203422,-102494,0.443043166,6143,128,-25.56019372,-354404,13376,36408.20313,128
-118724,-8.562568255,-7.294309413,-101139,0.572357246,7936,128,-25.4777587,-353261,13440,36410.15625,128
-118760,-8.565164633,-7.335490863,-101710,0.514732065,7137,128,-25.50704008,-353667,13504,36412.10938,128
-115185,-8.307329811,-7.365060731,-102120,0.446505004,6191,128,-25.51951713,-353840,13568,36414.0625,128
-116736,-8.419190457,-7.379124448,-102315,0.581588814,8064,128,-25.51764196,-353814,13632,36416.01563,128
-118783,-8.566823431,-7.366575285,-102141,0.589882802,8179,128,-25.50855464,-353688,13696,36417.96875,128
-118785,-8.566967674,-7.419440439,-102874,0.530815188,7360,128,-25.54937548,-354254,13760,36419.92188,128
-116609,-8.41003101,-7.377609894,-102294,0.444197112,6159,128,-25.50228006,-353601,13824,36421.875,128
-118261,-8.529175941,-7.335995714,-101717,0.525910917,7292,128,-25.46326226,-353060,13888,36423.82813,128
-118724,-8.562568255,-7.353232783,-101956,0.520429673,7216,128,-25.47105139,-353168,13952,36425.78125,128
-117761,-8.493115126,-7.33051447,-101641,0.537594621,7454,128,-25.45403069,-352932,14016,36427.73438,128
-115144,-8.304372824,-7.303324616,-101264,0.581516693,8063,128,-25.4147244,-352387,14080,36429.6875,128
-116494,-8.401737023,-7.332029025,-101662,0.554110474,7683,128,-25.44198638,-352765,14144,36431.64063,128
-118784,-8.566895553,-7.340827863,-101784,0.581588814,8064,128,-25.45114582,-352892,14208,36433.59375,128
-114720,-8.273793253,-7.299862778,-101216,0.584906409,8110,128,-25.41147893,-352342,14272,36435.54688,128
-115647,-8.340650003,-7.295896089,-101161,1.040787225,14431,128,-25.39856915,-352163,14336,36437.5,128
-118658,-8.557808227,-7.349626702,-101906,0.589089464,8168,128,-25.42547052,-352536,14400,36439.45313,128
-118659,-8.557880349,-7.341981809,-101800,0.590315532,8185,128,-25.41429167,-352381,14464,36441.40625,128
-118752,-8.56458766,-7.325321713,-101569,0.59067614,8190,128,-25.40729587,-352284,14528,36443.35938,128
-117776,-8.494196951,-7.335995714,-101717,0.897625792,12446,128,-25.40390616,-352237,14592,36445.3125,128
-116736,-8.419190457,-7.315945901,-101439,0.589161585,8169,128,-25.38154845,-351927,14656,36447.26563,128
-115554,-8.333942692,-7.28002933,-100941,1.052326685,14591,128,-25.36380653,-351681,14720,36449.21875,128
-118586,-8.55261547,-7.308228887,-101332,1.038190846,14395,128,-25.37895207,-351891,14784,36451.17188,128
-118781,-8.566679188,-7.315945901,-101439,0.920776835,12767,128,-25.37722115,-351867,14848,36453.125,128
-115197,-8.30819527,-7.297338521,-101181,0.923084727,12799,128,-25.34743492,-351454,14912,36455.07813,128
-115487,-8.329110542,-7.311618604,-101379,0.959145541,13299,128,-25.35486345,-351557,14976,36457.03125,128
-118329,-8.534080211,-7.333759944,-101686,0.886302696,12289,128,-25.38097148,-351919,15040,36458.98438,128
-115260,-8.312738933,-7.352583689,-101947,0.909021009,12604,128,-25.38241391,-351939,15104,36460.9375,128
-102342,-7.381071732,-7.340106647,-101774,0.890846359,12352,128,-25.37181203,-351792,15168,36462.89063,128
-118529,-8.548504537,-7.350708526,-101921,0.921930781,12783,128,-25.38349573,-351954,15232,36464.84375,128
-116706,-8.417026808,-7.364628001,-102114,0.886302696,12289,128,-25.39597278,-352127,15296,36466.79688,128
-115709,-8.345121544,-7.307147063,-101317,1.039056306,14407,128,-25.35226707,-351521,15360,36468.75,128
-115704,-8.344760936,-7.310681022,-101366,0.94270181,13071,128,-25.36272471,-351666,15424,36470.70313,128
-115676,-8.34274153,-7.377970502,-102299,0.587430666,8145,128,-25.42222505,-352491,15488,36472.65625,128
-102400,-7.385254787,-7.337942998,-101744,0.895390021,12415,128,-25.3880394,-352017,15552,36474.60938,128
-118365,-8.53667659,-7.355107946,-101982,0.588512491,8160,128,-25.41667168,-352414,15616,36476.5625,128
-114944,-8.289948498,-7.396794247,-102560,0.516967835,7168,128,-25.47710961,-353252,15680,36478.51563,128
-114944,-8.289948498,-7.398813653,-102588,0.554903812,7694,128,-25.46109861,-353030,15744,36480.46875,128
-118273,-8.5300414,-7.357199473,-102011,0.59024341,8184,128,-25.44213062,-352767,15808,36482.42188,128
-115553,-8.33387057,-7.384461449,-102389,0.553821987,7679,128,-25.46138709,-353034,15872,36484.375,128
-118797,-8.567833134,-7.388428138,-102444,0.517112078,7170,128,-25.49117333,-353447,15936,36486.32813,128
-114742,-8.275379929,-7.381288097,-102345,0.563053556,7807,128,-25.49593335,-353513,16000,36488.28125,128
-118777,-8.566390701,-7.383019016,-102369,0.553894109,7680,128,-25.51136738,-353727,16064,36490.23438,128
-114944,-8.289948498,-7.424272588,-102941,0.518049659,7183,128,-25.55485672,-354330,16128,36492.1875,128
-119553,-8.622357085,-7.444683009,-103224,0.362266941,5023,128,-25.58500356,-354748,16192,36494.14063,128
-115232,-8.310719527,-7.437470846,-103124,0.424580029,5887,128,-25.59300907,-354859,16256,36496.09375,128
-118810,-8.568770715,-7.451750928,-103322,0.371282145,5148,128,-25.60664005,-355048,16320,36498.04688,128
-116705,-8.416954686,-7.473171052,-103619,0.361112995,5007,128,-25.63267596,-355409,16384,36500,128
-114792,-8.27898601,-7.494302689,-103912,0.328730384,4558,128,-25.66736647,-355890,16448,36501.95313,128
-115719,-8.34584276,-7.459612186,-103431,0.36486332,5059,128,-25.63411839,-355429,16512,36503.90625,128
-114738,-8.275091442,-7.462713416,-103474,0.332336465,4608,128,-25.64875908,-355632,16576,36505.85938,128
-115709,-8.345121544,-7.455429131,-103373,0.332841317,4615,128,-25.65863975,-355769,16640,36507.8125,128
-115778,-8.350097936,-7.47396439,-103630,0.297790205,4129,128,-25.69340237,-356251,16704,36509.76563,128
-119805,-8.640531735,-7.456366713,-103386,0.295410191,4096,128,-25.6815023,-356086,16768,36511.71875,128
-115464,-8.327451745,-7.444538765,-103222,0.369190618,5119,128,-25.64753302,-355615,16832,36513.67188,128
-114823,-8.281221781,-7.434658102,-103085,0.367603942,5097,128,-25.64695604,-355607,16896,36515.625,128
-118847,-8.571439215,-7.482114134,-103743,0.147632974,2047,128,-25.70205697,-356371,16960,36517.57813,128
-120546,-8.693973862,-7.512765826,-104168,0.071544656,992,128,-25.72145769,-356640,17024,36519.53125,128
-116705,-8.416954686,-7.475262579,-103648,0.145397204,2016,128,-25.72556862,-356697,17088,36521.48438,128
-118849,-8.571583458,-7.450308496,-103302,0.145541447,2018,128,-25.70479759,-356409,17152,36523.4375,128
-119682,-8.631660775,-7.476921377,-103671,0.295410191,4096,128,-25.71857282,-356600,17216,36525.39063,128
-122304,-8.820763686,-7.469204363,-103564,0.129458324,1795,128,-25.70176848,-356367,17280,36527.34375,128
-114848,-8.283024822,-7.409848262,-102741,0.447081977,6199,128,-25.67299195,-355968,17344,36529.29688,128
-115521,-8.331562678,-7.454203064,-103356,0.302189625,4190,128,-25.72225102,-356651,17408,36531.25,128
-114881,-8.285404835,-7.487811743,-103822,0.091450225,1268,128,-25.7478542,-357006,17472,36533.20313,128
-118897,-8.575045297,-7.452832753,-103337,0.121957674,1691,128,-25.69498905,-356273,17536,36535.15625,128
-115144,-8.304372824,-7.45095759,-103311,0.313656964,4349,128,-25.68820962,-356179,17600,36537.10938,128
-115838,-8.354425234,-7.474541363,-103638,0.137896554,1912,128,-25.72953531,-356752,17664,36539.0625,128
-119266,-8.601658178,-7.49213904,-103882,0.101475132,1407,128,-25.74756572,-357002,17728,36541.01563,128
-119808,-8.6407481,-7.456655199,-103390,0.13061227,1811,128,-25.71785161,-356590,17792,36542.96875,128
-116240,-8.383418129,-7.475262579,-103648,0.108398808,1503,128,-25.74093053,-356910,17856,36544.92188,128
-116222,-8.38211994,-7.495312392,-103926,0.078468332,1088,128,-25.76069185,-357184,17920,36546.875,128
-119865,-8.644859033,-7.481825648,-103739,0.143089311,1984,128,-25.74648389,-356987,17984,36548.82813,128
-114720,-8.273793253,-7.409848262,-102741,0.475858507,6598,128,-25.67212649,-355956,18048,36550.78125,128
-114944,-8.289948498,-7.476777134,-103669,0.142800825,1980,128,-25.74367115,-356948,18112,36552.73438,128
-114976,-8.29225639,-7.442375117,-103192,0.291876232,4047,128,-25.70465335,-356407,18176,36554.6875,128
-120608,-8.698445403,-7.479301391,-103704,0.147128123,2040,128,-25.7485033,-357015,18240,36556.64063,128
-118842,-8.571078607,-7.462136443,-103466,0.132054702,1831,128,-25.71633705,-356569,18304,36558.59375,128
-122368,-8.82537947,-7.493365108,-103899,0.143161433,1985,128,-25.75427303,-357095,18368,36560.54688,128
-119744,-8.636132316,-7.430042318,-103021,0.293679272,4072,128,-25.69340237,-356251,18432,36562.5,128
-115652,-8.341010611,-7.446413928,-103248,0.460424478,6384,128,-25.71222612,-356512,18496,36564.45313,128
-115161,-8.305598891,-7.456727321,-103391,0.129241959,1792,128,-25.72369346,-356671,18560,36566.40625,128
-119616,-8.626900748,-7.423335007,-102928,0.146695393,2034,128,-25.69304176,-356246,18624,36568.35938,128
-118799,-8.567977377,-7.416050722,-102827,0.472540912,6552,128,-25.67861744,-356046,18688,36570.3125,128
-119328,-8.606129719,-7.430258683,-103024,0.447154098,6200,128,-25.68994053,-356203,18752,36572.26563,128
-115137,-8.303867972,-7.454563672,-103361,0.147272366,2042,128,-25.71035096,-356486,18816,36574.21875,128
-115496,-8.329759637,-7.444033914,-103215,0.305146611,4231,128,-25.68871447,-356186,18880,36576.17188,128
-114713,-8.273288402,-7.444899374,-103227,0.297501719,4125,128,-25.69022902,-356207,18944,36578.125,128
-114816,-8.28071693,-7.477209863,-103675,0.147416609,2044,128,-25.72491952,-356688,19008,36580.07813,128
-114690,-8.271629604,-7.460982497,-103450,0.147632974,2047,128,-25.70133575,-356361,19072,36582.03125,128
-115452,-8.326586285,-7.437398724,-103123,0.147416609,2044,128,-25.70212909,-356372,19136,36583.98438,128
-116378,-8.393370914,-7.472666201,-103612,0.147632974,2047,128,-25.71006247,-356482,19200,36585.9375,128
-119037,-8.585142325,-7.414536168,-102806,0.479680953,6651,128,-25.66477009,-355854,19264,36587.89063,128
-118724,-8.562568255,-7.376239583,-102275,0.512279929,7103,128,-25.64111419,-355526,19328,36589.84375,128
-114913,-8.287712728,-7.418358614,-102859,0.297645962,4127,128,-25.68979629,-356201,19392,36591.79688,128
-119297,-8.603893948,-7.426868966,-102977,0.313656964,4349,128,-25.68532475,-356139,19456,36593.75,128
-115154,-8.30509404,-7.410064627,-102744,0.328153411,4550,128,-25.66751071,-355892,19520,36595.70313,128
-119034,-8.58492596,-7.437903576,-103130,0.299737489,4156,128,-25.68763264,-356171,19584,36597.65625,128
-120832,-8.714600648,-7.483412323,-103761,0.074645886,1035,128,-25.74143538,-356917,19648,36599.60938,128
-120832,-8.714600648,-7.429176859,-103009,0.110850943,1537,128,-25.67566045,-356005,19712,36601.5625,128
-115464,-8.327451745,-7.412805249,-102782,0.298727786,4142,128,-25.69095024,-356217,19776,36603.51563,128
-119191,-8.596249055,-7.430258683,-103024,0.331110398,4591,128,-25.67371317,-355978,19840,36605.46875,128
-119729,-8.635050492,-7.376239583,-102275,0.331831614,4601,128,-25.63736387,-355474,19904,36607.42188,128
-114800,-8.279562983,-7.351285499,-101929,0.568246313,7879,128,-25.61954983,-355227,19968,36609.375,128
-115200,-8.308411635,-7.408766438,-102726,0.443475895,6149,128,-25.6511391,-355665,20032,36611.32813,128
-115076,-8.299468553,-7.414896776,-102811,0.355631751,4931,128,-25.65892823,-355773,20096,36613.28125,128
-114785,-8.278481159,-7.411002208,-102757,0.355271143,4926,128,-25.65943309,-355780,20160,36615.23438,128
-118797,-8.567833134,-7.411651303,-102766,0.368325158,5107,128,-25.63469537,-355437,20224,36617.1875,128
-115655,-8.341226976,-7.450380617,-103303,0.330028573,4576,128,-25.67068406,-355936,20288,36619.14063,128
-115216,-8.309565581,-7.432061724,-103049,0.314955153,4367,128,-25.67566045,-356005,20352,36621.09375,128
-115197,-8.30819527,-7.41417556,-102801,0.331759492,4600,128,-25.67061194,-355935,20416,36623.04688,128
-115217,-8.309637703,-7.42391198,-102936,0.323177019,4481,128,-25.67234286,-355959,20480,36625,128
-114930,-8.288938795,-7.402708221,-102642,0.445351058,6175,128,-25.64363845,-355561,20544,36626.95313,128
-118529,-8.548504537,-7.348833364,-101895,0.590531896,8188,128,-25.6094528,-355087,20608,36628.90625,128
-118782,-8.566751309,-7.338664214,-101754,0.554038352,7682,128,-25.58918662,-354806,20672,36630.85938,128
-118276,-8.530257765,-7.348616999,-101892,0.517977538,7182,128,-25.62366076,-355284,20736,36632.8125,128
-118783,-8.566823431,-7.37479715,-102255,0.443548017,6150,128,-25.63058443,-355380,20800,36634.76563,128
-116733,-8.418974092,-7.368306204,-102165,0.517400565,7174,128,-25.62640138,-355322,20864,36636.71875,128
-118801,-8.56812162,-7.400328207,-102609,0.364719077,5057,128,-25.63498385,-355441,20928,36638.67188,128
-119269,-8.601874542,-7.414319803,-102803,0.309113301,4286,128,-25.65041788,-355655,20992,36640.625,128
-118769,-8.565813728,-7.382802651,-102366,0.519203606,7199,128,-25.62286742,-355273,21056,36642.57813,128
-116731,-8.418829849,-7.407828856,-102713,0.442826801,6140,128,-25.62784381,-355342,21120,36644.53125,128
-114692,-8.271773848,-7.375951097,-102271,0.360680266,5001,128,-25.57699806,-354637,21184,36646.48438,128
-118658,-8.557808227,-7.335779349,-101714,0.552740163,7664,128,-25.55189974,-354289,21248,36648.4375,128
-117776,-8.494196951,-7.321571388,-101517,0.565361448,7839,128,-25.57858474,-354659,21312,36650.39063,128
-118277,-8.530329887,-7.356838865,-102006,0.589666437,8176,128,-25.54706759,-354222,21376,36652.34375,128
-116465,-8.399645495,-7.365854069,-102131,0.588440369,8159,128,-25.54685122,-354219,21440,36654.29688,128
-101904,-7.349482459,-7.358569784,-102030,0.517039957,7169,128,-25.46059376,-353023,21504,36656.25,128
-118783,-8.566823431,-7.384605692,-102391,0.565361448,7839,128,-25.5420912,-354153,21568,36658.20313,128
-114938,-8.289515768,-7.401121545,-102620,0.586637328,8134,128,-25.51562256,-353786,21632,36660.15625,128
-116736,-8.419190457,-7.363906785,-102104,0.55793292,7736,128,-25.43917363,-352726,21696,36662.10938,128
-115220,-8.309854068,-7.359218879,-102039,0.958352203,13288,128,-25.36315743,-351672,21760,36664.0625,128
-115200,-8.308411635,-7.37652807,-102279,0.957630987,13278,128,-25.35233919,-351522,21824,36666.01563,128
-114692,-8.271773848,-7.313998617,-101412,1.179332874,16352,128,-25.29896919,-350782,21888,36667.96875,128
-114976,-8.29225639,-7.259979517,-100663,1.108004583,15363,128,-25.30870561,-350917,21952,36669.92188,128
-114718,-8.27364901,-7.338952701,-101758,1.024487737,14205,128,-25.26961568,-350375,22016,36671.875,128
-116719,-8.417964389,-7.3309472,-101647,1.164043088,16140,128,-25.26846174,-350359,22080,36673.82813,128
-117884,-8.501986087,-7.329576889,-101628,1.116947665,15487,128,-25.29456977,-350721,22144,36675.78125,128
-118529,-8.548504537,-7.352150959,-101941,1.003933073,13920,128,-25.27805391,-350492,22208,36677.73438,128
-115585,-8.336178462,-7.377393529,-102291,0.967006799,13408,128,-25.30812863,-350909,22272,36679.6875,128
-115200,-8.308411635,-7.361238284,-102067,0.994629382,13791,128,-25.27062539,-350389,22336,36681.64063,128
-118776,-8.566318579,-7.346381229,-101861,1.179909847,16360,128,-25.23506942,-349896,22400,36683.59375,128
-115991,-8.365459843,-7.313421644,-101404,1.116947665,15487,128,-25.19720557,-349371,22464,36685.54688,128
-116738,-8.4193347,-7.295751845,-101159,1.109951867,15390,128,-25.06673754,-347562,22528,36687.5,128
-115701,-8.344544571,-7.282986317,-100982,1.181496523,16382,128,-25.110299,-348166,22592,36689.45313,128
-114808,-8.280139956,-7.320056834,-101496,0.932316295,12927,128,-25.06450177,-347531,22656,36691.40625,128
-117761,-8.493115126,-7.33051447,-101641,0.931811444,12920,128,-25.06529511,-347542,22720,36693.35938,128
-102146,-7.366935893,-7.353954,-101966,1.033863549,14335,128,-25.00052989,-346644,22784,36695.3125,128
-118289,-8.531195346,-7.326619902,-101587,0.946163648,13119,128,-25.0509429,-347343,22848,36697.26563,128
-102273,-7.37609534,-7.321571388,-101517,1.172409197,16256,128,-24.94175076,-345829,22912,36699.21875,128
-118779,-8.566534944,-7.334120552,-101691,1.015400412,14079,128,-25.02137304,-346933,22976,36701.17188,128
-114810,-8.2802842,-7.319624104,-101490,1.041364198,14439,128,-25.04012466,-347193,23040,36703.125,128
-114804,-8.27985147,-7.273610505,-100852,1.038623576,14401,128,-24.93886589,-345789,23104,36705.07813,128
-115204,-8.308700121,-7.288539682,-101059,1.051244861,14576,128,-24.90785359,-345359,23168,36707.03125,128
-114797,-8.279346619,-7.280101452,-100942,1.107788218,15360,128,-24.88239466,-345006,23232,36708.98438,128
-100611,-7.256229193,-7.263152869,-100707,0.01904011,264,128,-24.75733575,-343272,23296,36710.9375,128
-114703,-8.272567185,-7.261710437,-100687,1.164908548,16152,128,-24.82938526,-344271,23360,36712.89063,128
-116800,-8.423806241,-7.267840775,-100772,1.167577048,16189,128,-24.82967375,-344275,23424,36714.84375,128
-102336,-7.380639002,-7.287962709,-101051,0.07262648,1007,128,-24.74211809,-343061,23488,36716.79688,128
-101881,-7.347823661,-7.338159363,-101747,0.128304378,1779,128,-24.6884596,-342317,23552,36718.75,128
-118010,-8.511073412,-7.318470158,-101474,8.65E-04,12,128,-24.7781789,-343561,23616,36720.70313,128
-116797,-8.423589876,-7.288683926,-101061,0.073275575,1016,128,-24.77212069,-343477,23680,36722.65625,128
-115616,-8.338414233,-7.287674223,-101047,0,0,128,-24.6674722,-342026,23744,36724.60938,128
-114689,-8.271557483,-7.278586898,-100921,0.156648178,2172,128,-24.63934477,-341636,23808,36726.5625,128
-115198,-8.308267392,-7.266542586,-100754,0.166023989,2302,128,-24.64843209,-341762,23872,36728.51563,128
-114913,-8.287712728,-7.247213989,-100486,0.152248758,2111,128,-24.62556954,-341445,23936,36730.46875,128
-115688,-8.34360699,-7.289405142,-101071,0.129241959,1792,128,-24.59289844,-340992,24000,36732.42188,128
-102176,-7.369099542,-7.280822668,-100952,0.138401406,1919,128,-24.55063517,-340406,24064,36734.375,128
-117823,-8.497586667,-7.241660624,-100409,0.18023195,2499,128,-24.63400777,-341562,24128,36736.32813,128
-118784,-8.566895553,-7.286303912,-101028,0.004543663,63,128,-24.65766366,-341890,24192,36738.28125,128
-115641,-8.340217273,-7.278009925,-100913,0.137968676,1913,128,-24.5494091,-340389,24256,36740.23438,128
-118624,-8.555356092,-7.28089479,-100953,0.073708305,1022,128,-24.61669858,-341322,24320,36742.1875,128
-100321,-7.23531392,-7.233583001,-100297,0.461434181,6398,128,-24.46466618,-339214,24384,36744.14063,128
-115172,-8.306392229,-7.273033532,-100844,0.369190618,5119,128,-24.48031658,-339431,24448,36746.09375,128
-100272,-7.231779961,-7.222332027,-100141,0.554975933,7695,128,-24.40494947,-338386,24512,36748.04688,128
-98560,-7.108307732,-7.199902201,-99830,0.461578424,6400,128,-24.35287766,-337664,24576,36750,128
-114844,-8.282736335,-7.248728543,-100507,0.553894109,7680,128,-24.40134339,-338336,24640,36751.95313,128
-115197,-8.30819527,-7.260484369,-100670,0.431647948,5985,128,-24.4027137,-338355,24704,36753.90625,128
-114800,-8.279562983,-7.280173574,-100943,0.423353961,5870,128,-24.39600639,-338262,24768,36755.85938,128
-102033,-7.358786149,-7.285149966,-101012,0.553894109,7680,128,-24.32402901,-337264,24832,36757.8125,128
-102338,-7.380783246,-7.283851777,-100994,0.590387653,8186,128,-24.29792098,-336902,24896,36759.76563,128
-114750,-8.275956902,-7.271014127,-100816,0.586637328,8134,128,-24.38850574,-338158,24960,36761.71875,128
-117248,-8.456116731,-7.265821369,-100744,0.444197112,6159,128,-24.33592908,-337429,25024,36763.67188,128
-114689,-8.271557483,-7.246853381,-100481,0.537161891,7448,128,-24.27772692,-336622,25088,36765.625,128
-116496,-8.401881266,-7.187785767,-99662,0.514659943,7136,128,-24.31587926,-337151,25152,36767.57813,128
-98785,-7.124535099,-7.193988227,-99748,1.052326685,14591,128,-24.18699791,-335364,25216,36769.53125,128
-99196,-7.154177088,-7.207186485,-99931,1.038479333,14399,128,-24.18252637,-335302,25280,36771.48438,128
-116232,-8.382841156,-7.211585905,-99992,0.580795477,8053,128,-24.23366061,-336011,25344,36773.4375,128
-116735,-8.419118335,-7.220168378,-100111,0.534998242,7418,128,-24.26214865,-336406,25408,36775.39063,128
-116673,-8.414646794,-7.233222393,-100292,0.590748261,8191,128,-24.32583205,-337289,25472,36777.34375,128
-115205,-8.308772243,-7.274836573,-100869,0.886446939,12291,128,-24.18649306,-335357,25536,36779.29688,128
-116864,-8.428422025,-7.273754749,-100854,0.589954923,8180,128,-24.26142743,-336396,25600,36781.25,128
-99324,-7.163408657,-7.215913202,-100052,1.140098708,15808,128,-24.12136723,-334454,25664,36783.20313,128
-116624,-8.411112834,-7.201777363,-99856,1.053264267,14604,128,-24.20336952,-335591,25728,36785.15625,128
-114696,-8.272062334,-7.205671931,-99910,1.140098708,15808,128,-24.11718418,-334396,25792,36787.10938,128
-99329,-7.163769265,-7.181078456,-99569,1.178755901,16344,128,-24.08328701,-333926,25856,36789.0625,128
-98810,-7.126338139,-7.229760555,-100244,1.1734189,16270,128,-24.04405284,-333382,25920,36791.01563,128
-115144,-8.304372824,-7.224135068,-100166,1.1734189,16270,128,-24.08444096,-333942,25984,36792.96875,128
-114881,-8.285404835,-7.17819359,-99529,1.036171441,14367,128,-24.07160331,-333764,26048,36794.92188,128
-115199,-8.308339513,-7.199397349,-99823,1.035955076,14364,128,-24.05544806,-333540,26112,36796.875,128
-114920,-8.288217579,-7.254281909,-100584,1.126107112,15614,128,-24.06482387,-333670,26176,36798.82813,128
-114819,-8.280933294,-7.209999229,-99970,1.015472533,14080,128,-24.06576145,-333683,26240,36800.78125,128
-114813,-8.280500565,-7.209061648,-99957,1.163177629,16128,128,-24.08963371,-334014,26304,36802.73438,128
-116676,-8.414863159,-7.192473673,-99727,1.035161738,14353,128,-24.07441605,-333803,26368,36804.6875,128
-98791,-7.124967828,-7.196512484,-99783,1.172841927,16262,128,-23.95563173,-332156,26432,36806.64063,128
-115457,-8.326946894,-7.148263114,-99114,1.107211245,15352,128,-24.02162302,-333071,26496,36808.59375,128
-99322,-7.163264413,-7.161533494,-99298,1.034152035,14339,128,-23.89454471,-331309,26560,36810.54688,128
-99848,-7.20120039,-7.201777363,-99856,0.886230574,12288,128,-23.92822551,-331776,26624,36812.5,128
-114980,-8.292544877,-7.189372443,-99684,1.181208036,16378,128,-23.93327402,-331846,26688,36814.45313,128
-114813,-8.280500565,-7.190021538,-99693,1.181063793,16376,128,-23.9321922,-331831,26752,36816.40625,128
-99335,-7.164201994,-7.183819077,-99607,1.046556955,14511,128,-23.87867795,-331089,26816,36818.35938,128
-115042,-8.297016418,-7.1892282,-99682,1.03393567,14336,128,-23.92707156,-331760,26880,36820.3125,128
-114794,-8.279130254,-7.171342036,-99434,1.034079913,14338,128,-23.88509677,-331178,26944,36822.26563,128
-116036,-8.368705317,-7.188146375,-99667,0.902602184,12515,128,-23.9138733,-331577,27008,36824.21875,128
-114818,-8.280861173,-7.192113065,-99722,1.035017495,14351,128,-23.8625227,-330865,27072,36826.17188,128
-115705,-8.344833058,-7.144873398,-99067,1.039561157,14414,128,-23.9135127,-331572,27136,36828.125,128
-114816,-8.28071693,-7.135858194,-98942,1.034440522,14343,128,-23.90471386,-331450,27200,36830.07813,128
-114692,-8.271773848,-7.151941318,-99165,1.178972266,16347,128,-23.85018991,-330694,27264,36832.03125,128
-114751,-8.276029024,-7.120929017,-98735,1.15394606,16000,128,-23.99212527,-332662,27328,36833.98438,128
-114751,-8.276029024,-7.1432146,-99044,1.15394606,16000,128,-23.89490532,-331314,27392,36835.9375,128
-115170,-8.306247986,-7.152878899,-99178,1.034007792,14337,128,-23.87233125,-331001,27456,36837.89063,128
-115170,-8.306247986,-7.193988227,-99748,1.034007792,14337,128,-23.87709127,-331067,27520,36839.84375,128
-115170,-8.306247986,-7.158360143,-99254,1.034007792,14337,128,-23.96017539,-332219,27584,36841.79688,128
-100289,-7.233006028,-7.163913508,-99331,1.111466421,15411,128,-23.8411747,-330569,27648,36843.75,128
-100289,-7.233006028,-7.165355941,-99351,1.111466421,15411,128,-23.698446,-328590,27712,36845.70313,128
-114941,-8.289732133,-7.104629529,-98509,1.181568644,16383,128,-23.83252011,-330449,27776,36847.65625,128
-130933,-9.443101221,-7.076357851,-98117,1.172409197,16256,128,-23.68813261,-328447,27840,36849.60938,128
-98397,-7.096551907,-7.133189694,-98905,1.125097409,15600,128,-23.69137808,-328492,27904,36851.5625,128
-99136,-7.14984979,-7.13080968,-98872,1.172409197,16256,128,-23.64882632,-327902,27968,36853.51563,128
-131042,-9.450962478,-7.085950027,-98250,0.073347696,1017,128,-23.56869919,-326791,28032,36855.46875,128
-98814,-7.126626626,-7.117395057,-98686,1.038623576,14401,128,-23.71092304,-328763,28096,36857.42188,128
-98945,-7.136074559,-7.139536397,-98993,1.165413399,16159,128,-23.70017692,-328614,28160,36859.375,128
-114689,-8.271557483,-7.101167691,-98461,1.042590266,14456,128,-23.71633216,-328838,28224,36861.32813,128
-131070,-9.452981884,-7.073400864,-98076,1.063000687,14739,128,-23.69065686,-328482,28288,36863.28125,128
-385,-0.027766827,-340.3403074,-4718977,1.043095117,14463,145,4.634175257,64255,28352,36865.23438,0
32736,2.36097364,-340.3403074,-4718977,0,0,145,4.634175257,64255,28416,36867.1875,128
31,0.00223577,0.018102529,251,0.016155245,224,10,-584.3259745,-8101952,28480,36869.14063,0
-131072,-9.453126127,-302.5000361,-4194304,0,0,149,-7.042172199,-97643,28544,36871.09375,128
15999,1.153873939,4.6343195,64257,0,0,137,225.6933863,3129344,28608,36873.04688,128
255,0.018391015,0.018102529,251,0.013847353,192,15,-582.2211769,-8072768,28672,36875,0
224,0.016155245,0.018102529,251,0.902385819,12512,15,-582.2211769,-8072768,28736,36876.95313,128
15,0.001081824,-7.092873704,-98346,0.013847353,192,128,-23.52427227,-326175,28800,36878.90625,128
0,0,-7.047869807,-97722,0.534277026,7408,128,-23.53862447,-326374,28864,36880.85938,128
-16384,-1.181640766,-7.026161197,-97421,1.181568644,16383,128,-23.49917394,-325827,28928,36882.8125,0
-15424,-1.112404002,-7.017795088,-97305,1.070789822,14847,128,-23.52477712,-326182,28992,36884.76563,0
-130304,-9.397736716,-7.025439981,-97411,0.166096111,2303,128,-23.56422765,-326729,29056,36886.71875,128
-130313,-9.398385811,-7.01433325,-97257,0.003461838,48,128,-23.55102939,-326546,29120,36888.67188,128
-129265,-9.322802344,-7.005967141,-97141,0.008943082,124,128,-23.51821405,-326091,29184,36890.625,128
-130810,-9.43423026,-7.006688357,-97151,0.018535259,257,128,-23.52629167,-326203,29248,36892.57813,128
-129968,-9.373503849,-6.986133693,-96866,0.028848652,400,128,-23.53090746,-326267,29312,36894.53125,128
-131072,-9.453126127,-7.013828398,-97250,0.008077622,112,128,-23.46707981,-325382,29376,36896.48438,128
-131041,-9.450890356,-7.027315143,-97437,0.146911758,2037,128,-23.4663586,-325372,29440,36898.4375,128
-131048,-9.451395208,-7.063159593,-97934,0.111716403,1549,128,-23.47595077,-325505,29504,36900.39063,128
-130561,-9.416271975,-6.997889518,-97029,0.156359691,2168,128,-23.4603725,-325289,29568,36902.34375,128
-130938,-9.443461829,-7.01123202,-97214,0.004038811,56,128,-23.45373731,-325197,29632,36904.29688,128
-130949,-9.444255167,-7.003154397,-97102,0.240092902,3329,128,-23.42719655,-324829,29696,36906.25,128
-129569,-9.344727319,-6.958511109,-96483,0.221485522,3071,128,-23.39452546,-324376,29760,36908.20313,128
-129152,-9.3146526,-6.982527612,-96816,0.175399801,2432,128,-23.44097178,-325020,29824,36910.15625,128
-129410,-9.33325998,-6.99442768,-96981,0.234900145,3257,128,-23.37375443,-324088,29888,36912.10938,128
-129028,-9.305709518,-6.985628842,-96859,0.180159829,2498,128,-23.42698019,-324826,29952,36914.0625,128
-129505,-9.340111535,-7.021833899,-97361,0.129458324,1795,128,-23.42012863,-324731,30016,36916.01563,128
-130943,-9.443822437,-7.041883712,-97639,0.147632974,2047,128,-23.3769999,-324133,30080,36917.96875,128
-130824,-9.435239963,-7.042388563,-97646,0.225596455,3128,128,-23.39329939,-324359,30144,36919.92188,128
-130017,-9.377037809,-7.007770182,-97166,0.277451906,3847,128,-23.35312764,-323802,30208,36921.875,128
-130048,-9.379273579,-7.009501101,-97190,0.262955459,3646,128,-23.34519426,-323692,30272,36923.82813,128
-130944,-9.443894558,-7.040297036,-97617,0.122246161,1695,128,-23.36509983,-323968,30336,36925.78125,128
-131072,-9.453126127,-7.035248522,-97547,0.143161433,1985,128,-23.38709693,-324273,30400,36927.73438,128
-130576,-9.417353799,-7.013756277,-97249,0.282572542,3918,128,-23.36971562,-324032,30464,36929.6875,128
-130088,-9.382158444,-7.032147292,-97504,0.327720681,4544,128,-23.35247855,-323793,30528,36931.64063,128
-130561,-9.416271975,-7.039503698,-97606,0.331182519,4592,128,-23.32622627,-323429,30592,36933.59375,128
-130564,-9.416488339,-7.03294063,-97515,0.443620139,6151,128,-23.28324178,-322833,30656,36935.54688,128
-130336,-9.400044608,-7.065828093,-97971,0.302838719,4199,128,-23.32492808,-323411,30720,36937.5,128
-130945,-9.44396668,-7.079386959,-98159,0.304569638,4223,128,-23.33834271,-323597,30784,36939.45313,128
-130114,-9.384033607,-7.014982345,-97266,0.479464588,6648,128,-23.26845685,-322628,30848,36941.40625,128
-130034,-9.378263876,-7.000918627,-97071,0.573078462,7946,128,-23.25215736,-322402,30912,36943.35938,128
-129075,-9.309099234,-6.967742678,-96611,0.512568416,7107,128,-23.29824308,-323041,30976,36945.3125,128
-130673,-9.424349597,-7.002072573,-97087,0.469656047,6512,128,-23.24566641,-322312,31040,36947.26563,128
-130624,-9.420815637,-6.963775988,-96556,0.573366949,7950,128,-23.23592999,-322177,31104,36949.21875,128
-129026,-9.305565274,-6.987215517,-96881,0.582670639,8079,128,-23.21371653,-321869,31168,36951.17188,128
-131069,-9.452909762,-7.029046062,-97461,0.433018259,6004,128,-23.26982716,-322647,31232,36953.125,128
-131041,-9.450890356,-7.013756277,-97249,0.589594315,8175,128,-23.21890929,-321941,31296,36955.07813,128
-129793,-9.360882564,-6.980508206,-96788,0.574376652,7964,128,-23.22489538,-322024,31360,36957.03125,128
-130576,-9.417353799,-6.984835504,-96848,0.443115287,6144,128,-23.13777246,-320816,31424,36958.98438,128
-130673,-9.424349597,-6.990821599,-96931,0.590171288,8183,128,-23.14036884,-320852,31488,36960.9375,128
-130880,-9.439278774,-7.015847804,-97278,0.573583314,7953,128,-23.17895391,-321387,31552,36962.89063,128
-130913,-9.441658788,-7.007770182,-97166,0.447803193,6209,128,-23.16489019,-321192,31616,36964.84375,128
-131041,-9.450890356,-6.987648247,-96887,0.447154098,6200,128,-23.15854349,-321104,31680,36966.79688,128
-129056,-9.307728923,-6.926056376,-96033,0.558582015,7745,128,-23.136907,-320804,31744,36968.75,128
-128900,-9.296477949,-6.941851013,-96252,0.498504698,6912,128,-23.1599138,-321123,31808,36970.70313,128
-131064,-9.452549154,-6.967814799,-96612,0.466194208,6464,128,-23.11079897,-320442,31872,36972.65625,128
-129088,-9.310036815,-6.946466797,-96316,0.477950034,6627,128,-23.13272394,-320746,31936,36974.60938,128
-129025,-9.305493153,-6.984402774,-96842,0.444485598,6163,128,-23.12435783,-320630,32000,36976.5625,128
-129957,-9.372710511,-6.993778586,-96972,0.582670639,8079,128,-23.11418868,-320489,32064,36978.51563,128
-130817,-9.434735112,-7.021761778,-97360,0.58093972,8055,128,-23.1052456,-320365,32128,36980.46875,128
-131014,-9.448943072,-6.969401475,-96634,0.461578424,6400,128,-23.07481028,-319943,32192,36982.42188,128
-130916,-9.441875153,-6.96565115,-96582,0.553677744,7677,128,-23.07019449,-319879,32256,36984.375,128
-129505,-9.340111535,-6.954977149,-96434,0.552740163,7664,128,-23.09810556,-320266,32320,36986.32813,128
-130753,-9.430119327,-6.907809604,-95780,0.587286423,8143,128,-23.06406415,-319794,32384,36988.28125,128
-130612,-9.419950178,-6.907232631,-95772,0.581300328,8060,128,-23.04372585,-319512,32448,36990.23438,128
-127218,-9.17516937,-6.933557026,-96137,0.578992436,8028,128,-23.06031383,-319742,32512,36992.1875,128
-129088,-9.310036815,-6.945961946,-96309,0.542354648,7520,128,-23.09038855,-320159,32576,36994.14063,128
-127821,-9.218658712,-6.91163205,-95833,0.590171288,8183,128,-23.07971455,-320011,32640,36996.09375,128
-130441,-9.407617379,-6.889707075,-95529,0.576900909,7999,128,-23.05274106,-319637,32704,36998.04688,128
-131068,-9.45283764,-6.885884629,-95476,0.555913515,7708,128,-23.07747878,-319980,32768,37000,128
-129028,-9.305709518,-6.768326374,-93846,1.181352279,16380,128,-22.98054731,-318636,32832,37001.95313,128
-126851,-9.148700732,-6.733563749,-93364,2.88E-04,4,128,-22.99893832,-318891,32896,37003.90625,128
-123421,-8.901323545,-6.678967676,-92607,0.015217664,211,128,-22.92486941,-317864,32960,37005.85938,128
-122993,-8.870455488,-6.634108023,-91985,0.030074719,417,128,-22.92285,-317836,33024,37007.8125,128
-123453,-8.903631437,-6.517487349,-90368,0.132920162,1843,128,-22.91700815,-317755,33088,37009.76563,128
-129152,-9.3146526,-6.497221172,-90087,0.003173352,44,128,-22.85404597,-316882,33152,37011.71875,128
-130613,-9.420022299,-6.515251579,-90337,0.004327298,60,128,-22.88967405,-317376,33216,37013.67188,128
-131016,-9.449087316,-6.532200161,-90572,1.167577048,16189,128,-22.89017891,-317383,33280,37015.625,128
-127361,-9.185482763,-6.541287487,-90698,1.144714492,15872,128,-22.85945509,-316957,33344,37017.57813,128
-127232,-9.176179072,-6.51308793,-90307,1.144714492,15872,128,-22.85267566,-316863,33408,37019.53125,128
-129055,-9.307656802,-6.485609589,-89926,1.153873939,15999,128,-22.87077819,-317114,33472,37021.48438,128
-127028,-9.16146626,-6.554125137,-90876,1.070861944,14848,128,-22.83486162,-316616,33536,37023.4375,128
-128916,-9.297631895,-6.646729308,-92160,1.144426005,15868,128,-22.86551331,-317041,33600,37025.39063,128
-129040,-9.306574977,-6.641897159,-92093,1.14464237,15871,128,-22.87330244,-317149,33664,37027.34375,128
-129026,-9.305565274,-6.680698595,-92631,1.033647184,14332,128,-22.86587392,-317046,33728,37029.29688,128
-130562,-9.416344096,-6.683799825,-92674,1.11009611,15392,128,-22.86890303,-317088,33792,37031.25,128
-124921,-9.009505988,-6.787005876,-94105,0.737371533,10224,128,-22.89739107,-317483,33856,37033.20313,128
-128005,-9.231929091,-6.896919238,-95629,0.666908701,9247,128,-22.95205926,-318241,33920,37035.15625,128
-130533,-9.414252569,-6.963271137,-96549,0.609499885,8451,128,-22.94888591,-318197,33984,37037.10938,128
-131072,-9.453126127,-6.999836802,-97056,0.707080449,9804,128,-22.92602336,-317880,34048,37039.0625,128
-129149,-9.314436235,-6.97228634,-96674,0.720278707,9987,128,-22.84604047,-316771,34112,37041.01563,128
-128772,-9.287246381,-6.896702873,-95626,1.112331881,15423,128,-22.85837327,-316942,34176,37042.96875,128
-127343,-9.184184573,-6.835832219,-94782,1.042590266,14456,128,-22.84560774,-316765,34240,37044.92188,128
-127072,-9.164639612,-6.804819918,-94352,1.070934066,14849,128,-22.8378186,-316657,34304,37046.875,128
-124926,-9.009866596,-6.733275263,-93360,1.181568644,16383,128,-22.82418762,-316468,34368,37048.82813,128
-126847,-9.148412245,-6.742939561,-93494,1.180558941,16369,128,-22.85498355,-316895,34432,37050.78125,128
-126847,-9.148412245,-6.781596754,-94030,1.03393567,14336,128,-22.83377979,-316601,34496,37052.73438,128
-129036,-9.306286491,-6.788015579,-94119,1.034440522,14343,128,-22.80969117,-316267,34560,37054.6875,128
-126664,-9.135213987,-6.774745199,-93935,1.107716096,15359,128,-22.79036257,-315999,34624,37056.64063,128
-130817,-9.434735112,-6.804819918,-94352,1.115793719,15471,128,-22.84676169,-316781,34688,37058.59375,128
-127202,-9.174015424,-6.776836726,-93964,1.144570249,15870,128,-22.73172769,-315186,34752,37060.54688,128
-126081,-9.093167078,-6.739549844,-93447,1.149763006,15942,128,-22.80363295,-316183,34816,37062.5,128
-126849,-9.148556489,-6.733563749,-93364,1.103244555,15297,128,-22.82144699,-316430,34880,37064.45313,128
-126739,-9.140623109,-6.756426305,-93681,1.119616165,15524,128,-22.79490623,-316062,34944,37066.40625,128
-126928,-9.154254097,-6.700604165,-92907,1.167721292,16191,128,-22.79252622,-316029,35008,37068.35938,128
-126769,-9.142786758,-6.729020086,-93301,1.16764917,16190,128,-22.77918372,-315844,35072,37070.3125,128
-124734,-8.996019244,-6.761402698,-93750,1.125097409,15600,128,-22.80298386,-316174,35136,37072.26563,128
-126781,-9.143652218,-6.746329277,-93541,1.163177629,16128,128,-22.76504788,-315648,35200,37074.21875,128
-124289,-8.963925119,-6.741497128,-93474,1.17695286,16319,128,-22.7887759,-315977,35264,37076.17188,128
-124385,-8.970848795,-6.753902048,-93646,0.888538467,12320,128,-22.74333927,-315347,35328,37078.125,128
-124920,-9.009433867,-6.767605158,-93836,0.894308197,12400,128,-22.73028525,-315166,35392,37080.07813,128
-123908,-8.936446778,-6.777341578,-93971,1.035017495,14351,128,-22.73230466,-315194,35456,37082.03125,128
-126704,-9.138098852,-6.762917252,-93771,1.1734189,16270,128,-22.76093695,-315591,35520,37083.98438,128
-124897,-9.007775069,-6.749935359,-93591,1.034873251,14349,128,-22.74384412,-315354,35584,37085.9375,128
-124001,-8.94315409,-6.705147827,-92970,1.107283367,15353,128,-22.74074289,-315311,35648,37087.89063,128
-129921,-9.370114132,-6.690939866,-92773,1.101369393,15271,128,-22.66032727,-314196,35712,37089.84375,128
-123663,-8.918776979,-6.697791421,-92868,1.091344487,15132,128,-22.69530626,-314681,35776,37091.79688,128
-131056,-9.451972181,-6.725846735,-93257,1.108293069,15367,128,-22.65261026,-314089,35840,37093.75,128
-125965,-9.084800969,-6.731904952,-93341,1.03393567,14336,128,-22.72581371,-315104,35904,37095.70313,128
-122881,-8.862377866,-6.693896853,-92814,1.089252959,15103,128,-22.67785283,-314439,35968,37097.65625,128
-131008,-9.448510343,-6.698945367,-92884,1.144930857,15875,128,-22.6474175,-314017,36032,37099.60938,128
-123368,-8.897501099,-6.670313081,-92487,1.176303765,16310,128,-22.67980011,-314466,36096,37101.5625,128
-123780,-8.92721521,-6.686901055,-92717,1.144714492,15872,128,-22.68535348,-314543,36160,37103.51563,128
-122888,-8.862882717,-6.678967676,-92607,1.145796316,15887,128,-22.66256305,-314227,36224,37105.46875,128
-123385,-8.898727167,-6.687622271,-92727,1.17918863,16350,128,-22.65015813,-314055,36288,37107.42188,128
-123121,-8.879687057,-6.679111919,-92609,1.144714492,15872,128,-22.63104589,-313790,36352,37109.375,128
-123656,-8.918272128,-6.68401619,-92677,1.126251355,15616,128,-22.64611931,-313999,36416,37111.32813,128
-130557,-9.415983488,-6.676010689,-92566,1.13800718,15779,128,-22.64171989,-313938,36480,37113.28125,128
-130817,-9.434735112,-6.670457324,-92489,1.146373289,15895,128,-22.62953134,-313769,36544,37115.23438,128
-130604,-9.419373205,-6.654446322,-92267,1.145219343,15879,128,-22.63299318,-313817,36608,37117.1875,128
-130960,-9.445048504,-6.714595761,-93101,1.028742913,14264,128,-22.63169499,-313799,36672,37119.14063,128
-123009,-8.871609434,-6.697863543,-92869,1.172409197,16256,128,-22.64994176,-314052,36736,37121.09375,128
-122903,-8.863964541,-6.635838942,-92009,1.179332874,16352,128,-22.63479622,-313842,36800,37123.04688,128
-123889,-8.935076467,-6.651345092,-92224,1.180414698,16367,128,-22.61582823,-313579,36864,37125,128
-131058,-9.452116424,-6.603167844,-91556,1.121924057,15556,128,-22.59116263,-313237,36928,37126.95313,128
-123129,-8.88026403,-6.58881564,-91357,1.180991671,16375,128,-22.6213816,-313656,36992,37128.90625,128
-123137,-8.880841003,-6.609658791,-91646,1.181568644,16383,128,-22.61020274,-313501,37056,37130.85938,128
-130292,-9.396871256,-6.624948576,-91858,1.035955076,14364,128,-22.56700189,-312902,37120,37132.8125,128
-130920,-9.442163639,-6.628626779,-91909,1.069563755,14830,128,-22.53642232,-312478,37184,37134.76563,128
-122980,-8.869517907,-6.622352197,-91822,1.070357093,14841,128,-22.59383113,-313274,37248,37136.71875,128
-122889,-8.862954839,-6.637497739,-92032,1.052110321,14588,128,-22.60789485,-313469,37312,37138.67188,128
-131041,-9.450890356,-6.650263268,-92209,1.148104208,15919,128,-22.58077712,-313093,37376,37140.625,128
-123392,-8.899232018,-6.609875156,-91649,1.037974481,14392,128,-22.61460216,-313562,37440,37142.57813,128
-130937,-9.443389707,-6.616582467,-91742,1.068554052,14816,128,-22.56108791,-312820,37504,37144.53125,128
-130881,-9.439350896,-6.615644886,-91729,1.049730307,14555,128,-22.54615874,-312613,37568,37146.48438,128
-130439,-9.407473136,-6.603384209,-91559,1.034007792,14337,128,-22.56692977,-312901,37632,37148.4375,128
-131012,-9.448798829,-6.55470211,-90884,1.038551454,14400,128,-22.58467169,-313147,37696,37150.39063,128
-130064,-9.380427525,-6.574030706,-91152,1.088171135,15088,128,-22.54550964,-312604,37760,37152.34375,128
-131009,-9.448582464,-6.559822745,-90955,1.151638168,15968,128,-22.50887185,-312096,37824,37154.29688,128
-130304,-9.397736716,-6.584416221,-91296,1.035017495,14351,128,-22.59592266,-313303,37888,37156.25,128
-131012,-9.448798829,-6.606918169,-91608,1.179332874,16352,128,-22.52957076,-312383,37952,37158.20313,128
-129273,-9.323379317,-6.654229957,-92264,1.177024982,16320,128,-22.56902129,-312930,38016,37160.15625,128
-130105,-9.383384512,-6.544460838,-90742,1.036171441,14367,128,-22.53887445,-312512,38080,37162.10938,128
-127005,-9.159807463,-6.531767432,-90566,1.109591259,15385,128,-22.49185115,-311860,38144,37164.0625,128
-127601,-9.202791953,-6.530469242,-90548,1.17298617,16264,128,-22.47324377,-311602,38208,37166.01563,128
-126977,-9.157788057,-6.509842457,-90262,1.124015584,15585,128,-22.49451965,-311897,38272,37167.96875,128
-127232,-9.176179072,-6.52282435,-90442,1.174572846,16286,128,-22.47612863,-311642,38336,37169.92188,128
-127026,-9.161322017,-6.536311094,-90629,1.144498127,15869,128,-22.4666807,-311511,38400,37171.875,128
-130594,-9.418651988,-6.557442732,-90922,1.108220948,15366,128,-22.51593977,-312194,38464,37173.82813,128
-126992,-9.158869881,-6.486907779,-89944,1.181568644,16383,128,-22.47576803,-311637,38528,37175.78125,128
-122767,-8.854156,-6.496860563,-90082,1.172914049,16263,128,-22.47807592,-311669,38592,37177.73438,128
-129040,-9.306574977,-6.517198863,-90364,1.062856443,14737,128,-22.47569591,-311636,38656,37179.6875,128
-126977,-9.157788057,-6.490369617,-89992,1.172553441,16258,128,-22.44251996,-311176,38720,37181.64063,128
-122752,-8.853074175,-6.507967294,-90236,1.181424401,16381,128,-22.46242553,-311452,38784,37183.59375,128
-126991,-9.15879776,-6.509193362,-90253,1.17118313,16239,128,-22.48023957,-311699,38848,37185.54688,128
-122850,-8.860142095,-6.497004807,-90084,1.107643975,15358,128,-22.52531559,-312324,38912,37187.5,128
-122832,-8.858843906,-6.439740233,-89290,1.180703185,16371,128,-22.48788446,-311805,38976,37189.45313,128
-122815,-8.857617838,-6.47457498,-89773,1.144714492,15872,128,-22.48514384,-311767,39040,37191.40625,128
-122373,-8.825740078,-6.463035519,-89613,1.177457711,16326,128,-22.50093848,-311986,39104,37193.35938,128
-122880,-8.862305744,-6.445582085,-89371,1.174212238,16281,128,-22.47461408,-311621,39168,37195.3125,128
-118530,-8.548576659,-6.466857966,-89666,1.179765604,16358,128,-22.47569591,-311636,39232,37197.26563,128
-122849,-8.860069973,-6.486258684,-89935,1.172769806,16261,128,-22.45946854,-311411,39296,37199.21875,128
-122825,-8.858339054,-6.464045222,-89627,1.164259453,16143,128,-22.48031169,-311700,39360,37201.17188,128
-121857,-8.788525318,-6.450269991,-89436,1.181568644,16383,128,-22.43321627,-311047,39424,37203.125,128
-118400,-8.539200847,-6.455679113,-89511,0.008654595,120,128,-22.37804322,-310282,39488,37205.07813,128
-118682,-8.559539146,-6.386658715,-88554,0.01817465,252,128,-22.39008753,-310449,39552,37207.03125,128
-118658,-8.557808227,-6.382187174,-88492,5.05E-04,7,128,-22.42658108,-310955,39616,37208.98438,128
-120896,-8.719216432,-6.4532991,-89478,0.025386813,352,128,-22.43876963,-311124,39680,37210.9375,128
-122641,-8.845068675,-6.440533571,-89301,1.166495224,16174,128,-22.46062248,-311427,39744,37212.89063,128
-121709,-8.777851317,-6.424666813,-89081,0.006923676,96,128,-22.4646613,-311483,39808,37214.84375,128
-118399,-8.539128725,-6.413560082,-88927,1.181568644,16383,128,-22.38792388,-310419,39872,37216.79688,128
-121616,-8.771144005,-6.454453046,-89494,0.018391015,255,128,-22.43768781,-311109,39936,37218.75,128
-118510,-8.547134226,-6.412478258,-88912,0.003389717,47,128,-22.40739672,-310689,40000,37220.70313,128
-118727,-8.56278462,-6.383990214,-88517,0.072337994,1003,128,-22.40191548,-310613,40064,37222.65625,128
-118721,-8.56235189,-6.407573987,-88844,1.167577048,16189,128,-22.46581524,-311499,40128,37224.60938,128
-117760,-8.493043005,-6.39617877,-88686,0.063683398,883,128,-22.3886451,-310429,40192,37226.5625,128
-121293,-8.747848719,-6.379662917,-88457,0.017309191,240,128,-22.43357687,-311052,40256,37228.51563,128
-116609,-8.41003101,-6.34215967,-87937,0,0,128,-22.42809563,-310976,40320,37230.46875,128
-115653,-8.341082733,-6.407141257,-88838,0.004615784,64,128,-22.40956037,-310719,40384,37232.42188,128
-116932,-8.433326296,-6.383918093,-88516,0.071328291,989,128,-22.38013475,-310311,40448,37234.375,128
-120833,-8.71467277,-6.379158065,-88450,0.034906868,484,128,-22.41626768,-310812,40512,37236.32813,128
-118594,-8.553192443,-6.448394829,-89410,0.075799832,1051,128,-22.37595169,-310253,40576,37238.28125,128
-118285,-8.53090686,-6.421493461,-89037,0.073780426,1023,128,-22.37010984,-310172,40640,37240.23438,128
-117788,-8.49506241,-6.409160663,-88866,0.064620979,896,128,-22.37840383,-310287,40704,37242.1875,128
-115704,-8.344760936,-6.424378326,-89077,5.77E-04,8,128,-22.33419327,-309674,40768,37244.14063,128
-117713,-8.489653288,-6.404761243,-88805,0.027694705,384,128,-22.33794359,-309726,40832,37246.09375,128
-116753,-8.420416524,-6.364805861,-88251,0.070607075,979,128,-22.37753837,-310275,40896,37248.04688,128
-116228,-8.382552669,-6.330764452,-87779,0.036277179,503,128,-22.34948305,-309886,40960,37250,128
-116831,-8.426042012,-6.376994416,-88420,0.039811139,552,128,-22.37515835,-310242,41024,37251.95313,128
-118280,-8.530546252,-6.427695921,-89123,0.072914967,1011,128,-22.3769614,-310267,41088,37253.90625,128
-115711,-8.345265787,-6.381033228,-88476,0.018535259,257,128,-22.32113925,-309493,41152,37255.85938,128
-117700,-8.488715707,-6.425748637,-89096,0.143594163,1991,128,-22.34775214,-309862,41216,37257.8125,128
-118017,-8.511578263,-6.428705624,-89137,0.141574757,1963,128,-22.36470072,-310097,41280,37259.76563,128
-122625,-8.843914729,-6.411396433,-88897,0.009231568,128,128,-22.42347985,-310912,41344,37261.71875,128
-118777,-8.566390701,-6.406203676,-88825,0.027838949,386,128,-22.39275603,-310486,41408,37263.67188,128
-118672,-8.55881793,-6.454957897,-89501,0.137319581,1904,128,-22.350637,-309902,41472,37265.625,128
-117762,-8.493187248,-6.431662611,-89178,0.014352204,199,128,-22.32611565,-309562,41536,37267.57813,128
-121472,-8.760758491,-6.395096945,-88671,0.008221866,114,128,-22.350637,-309902,41600,37269.53125,128
-118708,-8.561414309,-6.436999611,-89252,0.140781419,1952,128,-22.34645395,-309844,41664,37271.48438,128
-122371,-8.825595835,-6.434619598,-89219,0.001153946,16,128,-22.32964961,-309611,41728,37273.4375,128
-122409,-8.828336457,-6.428128651,-89129,0.034329895,476,128,-22.37991838,-310308,41792,37275.39063,128
-118553,-8.550235456,-6.447745734,-89401,0.118856444,1648,128,-22.36873953,-310153,41856,37277.34375,128
-127044,-9.162620206,-6.504433334,-90187,0.055389411,768,128,-22.40934401,-310716,41920,37279.29688,128
-122783,-8.855309946,-6.462242182,-89602,0.004038811,56,128,-22.33621268,-309702,41984,37281.25,128
-118783,-8.566823431,-6.451063329,-89447,0.006851555,95,128,-22.35792129,-310003,42048,37283.20313,128
-122335,-8.822999456,-6.462891276,-89611,0.00223577,31,128,-22.34825699,-309869,42112,37285.15625,128
-122754,-8.853218419,-6.430148057,-89157,0.001226068,17,128,-22.31544165,-309414,42176,37287.10938,128
-121348,-8.751815409,-6.392284202,-88632,0.147416609,2044,128,-22.39304452,-310490,42240,37289.0625,128
-117884,-8.501986087,-6.467218574,-89671,2.88E-04,4,128,-22.33152477,-309637,42304,37291.01563,128
-122626,-8.84398685,-6.439091139,-89281,0.034618382,480,128,-22.34847335,-309872,42368,37292.96875,128
-121881,-8.790256237,-6.43382626,-89208,0,0,128,-22.38100021,-310323,42432,37294.92188,128
-118705,-8.561197944,-6.458419735,-89549,0.021636489,300,128,-22.31039313,-309344,42496,37296.875,128
-122400,-8.827687362,-6.468733128,-89692,0.13017954,1805,128,-22.3383042,-309731,42560,37298.82813,128
-122568,-8.839803796,-6.47767621,-89816,0.017886164,248,128,-22.32250957,-309512,42624,37300.78125,128
-122880,-8.862305744,-6.445077234,-89364,0.071977386,998,128,-22.30534462,-309274,42688,37302.73438,128
-122873,-8.861800893,-6.420051029,-89017,0.059933074,831,128,-22.31811015,-309451,42752,37304.6875,128
-122621,-8.843626242,-6.434835963,-89222,0,0,128,-22.35308914,-309936,42816,37306.64063,128
-117823,-8.497586667,-6.383124755,-88505,0.221557644,3072,128,-22.28536693,-308997,42880,37308.59375,128
-121856,-8.788453196,-6.415002515,-88947,0.014063718,195,128,-22.32575504,-309557,42944,37310.54688,128
-117765,-8.493403613,-6.428417138,-89133,0.185641072,2574,128,-22.25976375,-308642,43008,37312.5,128
-118657,-8.557736106,-6.397693324,-88707,0.198478722,2752,128,-22.25651828,-308597,43072,37314.45313,128
-118784,-8.566895553,-6.455751235,-89512,0.029930476,415,128,-22.27440444,-308845,43136,37316.40625,128
-118335,-8.534512941,-6.470680412,-89719,0.036926274,512,128,-22.26236013,-308678,43200,37318.35938,128
-122781,-8.855165703,-6.435196571,-89227,0.073780426,1023,128,-22.35510854,-309964,43264,37320.3125,128
-121721,-8.778716776,-6.401587892,-88761,0.155782718,2160,128,-22.31075374,-309349,43328,37322.26563,128
-121689,-8.776408884,-6.421132853,-89032,0.151166934,2096,128,-22.27779416,-308892,43392,37324.21875,128
-118657,-8.557736106,-6.425820759,-89097,0.147921461,2051,128,-22.26474014,-308711,43456,37326.17188,128
-120833,-8.71467277,-6.385432647,-88537,0.055317289,767,128,-22.33513085,-309687,43520,37328.125,128
-121281,-8.74698326,-6.387019323,-88559,0.147705096,2048,128,-22.30310885,-309243,43584,37330.07813,128
-121448,-8.759027572,-6.381610201,-88484,0.148642677,2061,128,-22.31385497,-309392,43648,37332.03125,128
-117507,-8.474796233,-6.387452053,-88565,0.156864543,2175,128,-22.24800792,-308479,43712,37333.98438,128
-122375,-8.825884321,-6.412045528,-88906,0.036782031,510,128,-22.28587178,-309004,43776,37335.9375,128
-121320,-8.749796003,-6.417094042,-88976,0.152537245,2115,128,-22.29834882,-309177,43840,37337.89063,128
-122853,-8.86035846,-6.423801353,-89069,0.165230652,2291,128,-22.28940574,-309053,43904,37339.84375,128
-115488,-8.329182664,-6.390481161,-88607,0.294833218,4088,128,-22.21497622,-308021,43968,37341.79688,128
-120932,-8.721812811,-6.367762848,-88292,0.17359676,2407,128,-22.27988568,-308921,44032,37343.75,128
-117761,-8.493115126,-6.375624105,-88401,0.203094507,2816,128,-22.24101213,-308382,44096,37345.70313,128
-121977,-8.797179913,-6.358314915,-88161,0.15455665,2143,128,-22.29741124,-309164,44160,37347.65625,128
-116513,-8.403107334,-6.335452358,-87844,0.219249751,3040,128,-22.2612783,-308663,44224,37349.60938,128
-117953,-8.506962479,-6.362353726,-88217,0.184847735,2563,128,-22.26055709,-308653,44288,37351.5625,128
-116668,-8.414286186,-6.346342724,-87995,0.202733898,2811,128,-22.25709525,-308605,44352,37353.51563,128
-116749,-8.420128038,-6.352256698,-88077,0.239804416,3325,128,-22.21713987,-308051,44416,37355.46875,128
-121225,-8.742944448,-6.408511568,-88857,0.027694705,384,128,-22.2719523,-308811,44480,37357.42188,128
-116785,-8.422724417,-6.376778051,-88417,0.217518832,3016,128,-22.23697331,-308326,44544,37359.375,128
-116674,-8.414718916,-6.330764452,-87779,0.293895637,4075,128,-22.26416317,-308703,44608,37361.32813,128
-119556,-8.62257345,-6.329971114,-87768,0.177419207,2460,128,-22.26510075,-308716,44672,37363.28125,128
-118785,-8.566967674,-6.344611805,-87971,0.204176331,2831,128,-22.27079836,-308795,44736,37365.23438,128
-116732,-8.41890197,-6.340140264,-87909,0.203166628,2817,128,-22.21713987,-308051,44800,37367.1875,128
-118787,-8.567111917,-6.30588249,-87434,0.277379784,3846,128,-22.31306163,-309381,44864,37369.14063,128
-116713,-8.417531659,-6.342880886,-87947,0.148209947,2055,128,-22.2399303,-308367,44928,37371.09375,128
-116516,-8.403323698,-6.315402545,-87566,0.204104209,2830,128,-22.1939167,-307729,44992,37373.04688,128
-116488,-8.401304293,-6.317782559,-87599,0.29533807,4095,128,-22.19283488,-307714,45056,37375,128
-114697,-8.272134456,-6.318503775,-87609,0.259565742,3599,128,-22.21973624,-308087,45120,37376.95313,128
-116768,-8.421498349,-6.353627009,-88096,0.235404996,3264,128,-22.21894291,-308076,45184,37378.90625,128
-114690,-8.271629604,-6.314681329,-87556,0.275576744,3821,128,-22.18252148,-307571,45248,37380.85938,128
-115937,-8.361565275,-6.310137666,-87493,0.295121705,4092,128,-22.20509555,-307884,45312,37382.8125,128
-118809,-8.568698593,-6.293116962,-87257,0.212326075,2944,128,-22.26639894,-308734,45376,37384.76563,128
-116610,-8.410103132,-6.323768654,-87682,0.278101001,3856,128,-22.20285978,-307853,45440,37386.71875,128
-115709,-8.345121544,-6.264556797,-86861,0.230212239,3192,128,-22.20235493,-307846,45504,37388.67188,128
-114788,-8.278697524,-6.282947812,-87116,0.221485522,3071,128,-22.23149207,-308250,45568,37390.625,128
-116281,-8.386375116,-6.322109857,-87659,0.221557644,3072,128,-22.22831872,-308206,45632,37392.57813,128
-116481,-8.400799441,-6.333144466,-87812,0.254012377,3522,128,-22.20148947,-307834,45696,37394.53125,128
-114753,-8.276173267,-6.265350135,-86872,0.5171842,7171,128,-22.14631643,-307069,45760,37396.48438,128
-114847,-8.2829527,-6.325571695,-87707,0.286178623,3968,128,-22.16492381,-307327,45824,37398.4375,128
-115417,-8.324062028,-6.290953313,-87227,0.267643364,3711,128,-22.22420779,-308149,45888,37400.39063,128
-115585,-8.336178462,-6.267874392,-86907,0.294184124,4079,128,-22.17033293,-307402,45952,37402.34375,128
-114703,-8.272567185,-6.311868586,-87517,0.294833218,4088,128,-22.18079057,-307547,46016,37404.29688,128
-119246,-8.600215745,-6.282659326,-87112,0.183044694,2538,128,-22.24656549,-308459,46080,37406.25,128
-115229,-8.310503162,-6.204118872,-86023,0.230789212,3200,128,-22.25002733,-308507,46144,37408.20313,128
-118529,-8.548504537,-6.235059051,-86452,0.22891405,3174,128,-22.17530932,-307471,46208,37410.15625,128
-115776,-8.349953693,-6.297732746,-87321,0.286467109,3972,128,-22.18367543,-307587,46272,37412.10938,128
-118786,-8.567039796,-6.282082353,-87104,0.156431813,2169,128,-22.2335836,-308279,46336,37414.0625,128
-115697,-8.344256084,-6.267153176,-86897,0.222639468,3087,128,-22.21699562,-308049,46400,37416.01563,128
-115740,-8.347357315,-6.291025435,-87228,0.279110703,3870,128,-22.16773655,-307366,46464,37417.96875,128
-115697,-8.344256084,-6.267585906,-86903,0.236486821,3279,128,-22.21389439,-308006,46528,37419.92188,128
-115085,-8.300117648,-6.235708146,-86461,0.219105508,3038,128,-22.23235753,-308262,46592,37421.875,128
-115200,-8.308411635,-6.23765543,-86488,0.27233127,3776,128,-22.21973624,-308087,46656,37423.82813,128
-114706,-8.27278355,-6.241982727,-86548,0.235477118,3265,128,-22.21512046,-308023,46720,37425.78125,128
-118777,-8.566390701,-6.195247912,-85900,0.290794407,4032,128,-22.22846296,-308208,46784,37427.73438,128
-115697,-8.344256084,-6.193444871,-85875,0.443620139,6151,128,-22.13643576,-306932,46848,37429.6875,128
-115304,-8.315912284,-6.257777364,-86767,0.073636183,1021,128,-22.23300662,-308271,46912,37431.64063,128
-114745,-8.275596294,-6.244146376,-86578,0.258267553,3581,128,-22.19608035,-307759,46976,37433.59375,128
-116625,-8.411184956,-6.195824885,-85908,0.29533807,4095,128,-22.18446877,-307598,47040,37435.54688,128
-114922,-8.288361822,-6.220634725,-86252,0.447154098,6200,128,-22.13326241,-306888,47104,37437.5,128
-114809,-8.280212078,-6.240035443,-86521,0.256680877,3559,128,-22.20610526,-307898,47168,37439.45313,128
-114919,-8.288145457,-6.206354643,-86054,0.443331652,6147,128,-22.14941766,-307112,47232,37441.40625,128
-116736,-8.419190457,-6.178876302,-85673,0.26302758,3647,128,-22.12547328,-306780,47296,37443.35938,128
-98297,-7.089339744,-6.205056453,-86036,0.480257926,6659,128,-22.12504055,-306774,47360,37445.3125,128
-114715,-8.273432645,-6.140074866,-85135,0.521295133,7228,128,-22.11494352,-306634,47424,37447.26563,128
-117791,-8.495278775,-6.149522799,-85266,0.285890136,3964,128,-22.20704284,-307911,47488,37449.21875,128
-118707,-8.561342187,-6.188829087,-85811,0.224009779,3106,128,-22.21331742,-307998,47552,37451.17188,128
-118521,-8.547927564,-6.180607221,-85697,0.188670181,2616,128,-22.2532728,-308552,47616,37453.125,128
-114692,-8.271773848,-6.162937422,-85452,0.447081977,6199,128,-22.13333453,-306889,47680,37455.07813,128
-116349,-8.391279386,-6.183780573,-85741,0.277091298,3842,128,-22.17119839,-307414,47744,37457.03125,128
-116736,-8.419190457,-6.201234007,-85983,0.267643364,3711,128,-22.18612757,-307621,47808,37458.98438,128
-97917,-7.061933525,-6.17570295,-85629,0.459414775,6370,128,-22.10196162,-306454,47872,37460.9375,128
-118321,-8.533503238,-6.174909613,-85618,0.257834823,3575,128,-22.20834103,-307929,47936,37462.89063,128
-114713,-8.273288402,-6.177289626,-85651,0.47953671,6649,128,-22.11934294,-306695,48000,37464.84375,128
-114816,-8.28071693,-6.146349448,-85222,0.470809993,6528,128,-22.12626661,-306791,48064,37466.79688,128
-97232,-7.012530209,-6.112019552,-84746,0.507736267,7040,128,-22.08883549,-306272,48128,37468.75,128
-116546,-8.405487347,-6.153273124,-85318,0.445351058,6175,128,-22.14429702,-307041,48192,37470.70313,128
-116996,-8.43794208,-6.119592323,-84851,0.290794407,4032,128,-22.16961171,-307392,48256,37472.65625,128
-97823,-7.055154092,-6.110937728,-84731,0.473983344,6572,128,-22.12482418,-306771,48320,37474.60938,128
-115719,-8.34584276,-6.158538003,-85391,0.142800825,1980,128,-22.16059651,-307267,48384,37476.5625,128
-118592,-8.5530482,-6.189766668,-85824,0.131621973,1825,128,-22.17184748,-307423,48448,37478.51563,128
-116689,-8.41580074,-6.145916718,-85216,0.280985866,3896,128,-22.13376726,-306895,48512,37480.46875,128
-114698,-8.272206577,-6.130194203,-84998,0.444197112,6159,128,-22.1432152,-307026,48576,37482.42188,128
-116337,-8.390413927,-6.149162191,-85261,0.290722286,4031,128,-22.14307095,-307024,48640,37484.375,128
-97793,-7.052990443,-6.158249516,-85387,0.368180915,5105,128,-22.07542087,-306086,48704,37486.32813,128
-96770,-6.979210017,-6.088507901,-84420,0.516967835,7168,128,-22.10881318,-306549,48768,37488.28125,128
-115409,-8.323485055,-6.108124984,-84692,0.447731071,6208,128,-22.12345387,-306752,48832,37490.23438,128
-98177,-7.080685148,-6.124640837,-84921,0.553966231,7681,128,-22.07231964,-306043,48896,37492.1875,128
-97149,-7.006544114,-6.116635336,-84810,0.574881503,7971,128,-22.05638076,-305822,48960,37494.14063,128
-115073,-8.299252188,-6.121755972,-84881,0.459342654,6369,128,-22.10217799,-306457,49024,37496.09375,128
-97313,-7.018372061,-6.141661542,-85157,0.554326839,7686,128,-22.03474427,-305522,49088,37498.04688,128
-117887,-8.502202451,-6.136180298,-85081,0.295265948,4094,128,-22.17898752,-307522,49152,37500,128
-117519,-8.475661692,-6.11238016,-84751,0.28603438,3966,128,-22.20235493,-307846,49216,37501.95313,128
-115458,-8.327019015,-6.111586822,-84740,0.461289938,6396,128,-22.14653279,-307072,49280,37503.90625,128
-115677,-8.342813652,-6.126948729,-84953,0.473983344,6572,128,-22.12482418,-306771,49344,37505.85938,128
-114932,-8.289083038,-6.091969739,-84468,0.447586828,6206,128,-22.14811947,-307094,49408,37507.8125,128
-114737,-8.275019321,-6.058288939,-84001,0.503120482,6976,128,-22.11407806,-306622,49472,37509.76563,128
-114942,-8.289804255,-6.107692255,-84686,0.276658568,3836,128,-22.17711236,-307496,49536,37511.71875,128
-115226,-8.310286797,-6.094710361,-84506,0.479464588,6648,128,-22.12561752,-306782,49600,37513.67188,128
-97920,-7.06214989,-6.100768578,-84590,0.461506303,6399,128,-22.10376467,-306479,49664,37515.625,128
-115714,-8.345482152,-6.133511798,-85044,0.147632974,2047,128,-22.15648558,-307210,49728,37517.57813,128
-97848,-7.056957132,-6.111154093,-84734,0.351881427,4879,128,-22.11515988,-306637,49792,37519.53125,128
-97281,-7.016064169,-6.074588427,-84227,0.50521201,7005,128,-22.05847228,-305851,49856,37521.48438,128
-98056,-7.071958431,-6.082449684,-84336,0.489128886,6782,128,-22.04202855,-305623,49920,37523.4375,128
-98168,-7.080036054,-6.083026657,-84344,0.534204904,7407,128,-22.13758971,-306948,49984,37525.39063,128
-96388,-6.951659554,-6.067736872,-84132,0.590604018,8189,128,-22.06683839,-305967,50048,37527.34375,128
-115169,-8.306175864,-6.008236528,-83307,0.574520895,7966,128,-22.09648038,-306378,50112,37529.29688,128
-114720,-8.273793253,-6.065140494,-84096,0.47910398,6643,128,-22.12669934,-306797,50176,37531.25,128
-114800,-8.279562983,-6.070621737,-84172,0.445206814,6173,128,-22.11761202,-306671,50240,37533.20313,128
-98176,-7.080613027,-6.04595614,-83830,0.489201008,6783,128,-22.10304345,-306469,50304,37535.15625,128
-114753,-8.276173267,-6.061245926,-84042,0.279038582,3869,128,-22.17213597,-307427,50368,37537.10938,128
-97793,-7.052990443,-6.097811591,-84549,0.368685766,5112,128,-22.10765923,-306533,50432,37539.0625,128
-114941,-8.289732133,-6.090960037,-84454,0.443331652,6147,128,-22.13708486,-306941,50496,37541.01563,128
-97293,-7.016929628,-6.06146229,-84045,0.49857682,6913,128,-22.09972585,-306423,50560,37542.96875,128
-98177,-7.080685148,-6.023165706,-83514,0.515813889,7152,128,-22.1068659,-306522,50624,37544.92188,128
-95202,-6.866123303,-5.980613945,-82924,0.549350446,7617,128,-22.0495292,-305727,50688,37546.875,128
-97793,-7.052990443,-5.949024671,-82486,0.585627626,8120,128,-22.11653019,-306656,50752,37548.82813,128
-98273,-7.087608825,-6.010328056,-83336,0.517544808,7176,128,-22.07664693,-306103,50816,37550.78125,128
-96225,-6.939903729,-6.042277937,-83779,0.530598823,7357,128,-22.04981769,-305731,50880,37552.73438,128
-95751,-6.905718077,-6.035498504,-83685,0.58981068,8178,128,-22.02868605,-305438,50944,37554.6875,128
-97792,-7.052918321,-6.003764987,-83245,0.553894109,7680,128,-22.07268024,-306048,51008,37556.64063,128
-97281,-7.016064169,-6.05612529,-83971,0.433018259,6004,128,-22.02046418,-305324,51072,37558.59375,128
-95745,-6.905285347,-5.996624946,-83146,0.59024341,8184,128,-22.01144898,-305199,51136,37560.54688,128
-97794,-7.053062564,-5.98573458,-82995,0.507808388,7041,128,-22.07707966,-306109,51200,37562.5,128
-114832,-8.281870876,-6.000591636,-83201,0.484080372,6712,128,-22.05912138,-305860,51264,37564.45313,128
-94337,-6.803738094,-5.991432189,-83074,0.443331652,6147,128,-22.00091922,-305053,51328,37566.40625,128
-94713,-6.830855826,-5.941740387,-82385,0.526127282,7295,128,-21.98332155,-304809,51392,37568.35938,128
-114689,-8.271557483,-5.946139806,-82446,0.499298036,6923,128,-22.11811687,-306678,51456,37570.3125,128
-94992,-6.850977761,-5.964747186,-82704,0.562548704,7800,128,-22.03625882,-305543,51520,37572.26563,128
-114752,-8.276101145,-5.966189619,-82724,0.480041561,6656,128,-22.11818899,-306679,51584,37574.21875,128
-94460,-6.812609054,-5.958688969,-82620,0.444341355,6161,128,-22.00654471,-305131,51648,37576.17188,128
-94724,-6.831649164,-5.952342266,-82532,0.576900909,7999,128,-22.02298844,-305359,51712,37578.125,128
-97817,-7.054721362,-5.951548928,-82521,0.516462984,7161,128,-22.09208096,-306317,51776,37580.07813,128
-114692,-8.271773848,-5.913685073,-81996,0.295121705,4092,128,-22.1629044,-307299,51840,37582.03125,128
-81908,-5.90733837,-5.896087396,-81752,0.590387653,8186,128,-22.04541827,-305670,51904,37583.98438,128
-94216,-6.795011377,-5.933590643,-82272,0.451265031,6257,128,-22.00207317,-305069,51968,37585.9375,128
-80921,-5.836154322,-5.859233243,-81241,0.545167392,7559,128,-22.06258322,-305908,52032,37587.89063,128
-80961,-5.839039187,-5.859593852,-81246,0.581805179,8067,128,-22.01534355,-305253,52096,37589.84375,128
-81863,-5.904092896,-5.894861328,-81735,0.443187409,6145,128,-21.99269736,-304939,52160,37591.79688,128
-81665,-5.889812814,-5.876253948,-81477,0.572285124,7935,128,-22.06792022,-305982,52224,37593.75,128
-81379,-5.869186028,-5.862550838,-81287,0.590099167,8182,128,-22.03070546,-305466,52288,37595.70313,128
-94211,-6.794650769,-5.917940249,-82055,0.440807395,6112,128,-22.06806446,-305984,52352,37597.65625,128
-90432,-6.522103133,-5.917940249,-82055,0.573511192,7952,128,-22.05003405,-305734,52416,37599.60938,128
-81716,-5.893491017,-5.885918246,-81611,0.590387653,8186,128,-22.06604505,-305956,52480,37601.5625,128
-81537,-5.880581245,-5.882023678,-81557,0.46092933,6391,128,-21.99608707,-304986,52544,37603.51563,128
-81676,-5.890606152,-5.874378785,-81451,0.590531896,8188,128,-22.04808677,-305707,52608,37605.46875,128
-81409,-5.871349677,-5.872647866,-81427,0.454654748,6304,128,-21.99623132,-304988,52672,37607.42188,128
-80672,-5.818196037,-5.825119713,-80768,0.560817785,7776,128,-22.10268284,-306464,52736,37609.375,128
-81184,-5.855122311,-5.861973865,-81279,0.507664145,7039,128,-22.09381188,-306341,52800,37611.32813,128
-81889,-5.905968059,-5.851660472,-81136,0.444341355,6161,128,-21.98822582,-304877,52864,37613.28125,128
-80946,-5.837957363,-5.837957363,-80946,0.499586523,6927,128,-21.95173227,-304371,52928,37615.23438,128
-81152,-5.852814418,-5.85245381,-81147,0.525910917,7292,128,-22.07383419,-306064,52992,37617.1875,128
-81920,-5.908203829,-5.894140112,-81725,0.585843991,8123,128,-22.00380409,-305093,53056,37619.14063,128
-81666,-5.889884936,-5.858151419,-81226,0.461506303,6399,128,-21.95346319,-304395,53120,37621.09375,128
-81858,-5.903732288,-5.812426306,-80592,0.583896707,8096,128,-22.04210067,-305624,53184,37623.04688,128
-81423,-5.87235938,-5.835288863,-80909,0.59024341,8184,128,-22.01310778,-305222,53248,37625,128
-81026,-5.843727093,-5.845025283,-81044,0.518698754,7192,128,-22.07772876,-306118,53312,37626.95313,128
-81424,-5.872431501,-5.84581862,-81055,0.539974635,7487,128,-22.05508257,-305804,53376,37628.90625,128
-80961,-5.839039187,-5.867887839,-81361,0.443115287,6144,128,-21.96810388,-304598,53440,37630.85938,128
-81802,-5.899693477,-5.853679878,-81164,0.544662541,7552,128,-22.05306316,-305776,53504,37632.8125,128
-81472,-5.87589334,-5.87589334,-81472,0.553966231,7681,128,-22.0345279,-305519,53568,37634.76563,128
-90624,-6.535950486,-5.935321562,-82296,0.539974635,7487,128,-21.98635065,-304851,53632,37636.71875,128
-96672,-6.972142097,-5.937485211,-82326,0.406189013,5632,128,-22.07844997,-306128,53696,37638.67188,128
-97424,-7.026377562,-5.923133006,-82127,0.367026969,5089,128,-22.09741796,-306391,53760,37640.625,128
-96258,-6.942283743,-5.909790505,-81942,0.525117579,7281,128,-22.06770385,-305979,53824,37642.57813,128
-81920,-5.908203829,-5.899981964,-81806,0.459342654,6369,128,-22.08847488,-306267,53888,37644.53125,128
-81870,-5.904597748,-5.882672773,-81566,0.556129879,7711,128,-22.07974816,-306146,53952,37646.48438,128
-81159,-5.85331927,-5.85331927,-81159,0.46626633,6465,128,-22.13145937,-306863,54016,37648.4375,128
-81905,-5.907122005,-5.879932151,-81528,0.479392466,6647,128,-22.12417509,-306762,54080,37650.39063,128
-81529,-5.880004272,-5.879066691,-81516,0.443187409,6145,128,-21.96745479,-304589,54144,37652.34375,128
-81529,-5.880004272,-5.880148516,-81531,0.470882114,6529,128,-21.94278919,-304247,54208,37654.29688,128
-81920,-5.908203829,-5.870989069,-81404,0.555841393,7707,128,-22.03611458,-305541,54272,37656.25,128
-94715,-6.831000069,-5.935537927,-82299,0.553966231,7681,128,-22.00798714,-305151,54336,37658.20313,128
-81858,-5.903732288,-5.896231639,-81754,0.553749866,7678,128,-22.05089951,-305746,54400,37660.15625,128
-81888,-5.905895937,-5.868609055,-81371,0.513145389,7115,128,-22.09042216,-306294,54464,37662.10938,128
-81856,-5.903588045,-5.879210935,-81518,0.560817785,7776,128,-21.99413979,-304959,54528,37664.0625,128
-81424,-5.872431501,-5.863560541,-81301,0.443331652,6147,128,-22.0475098,-305699,54592,37666.01563,128
-80925,-5.836442809,-5.817835428,-80667,0.512135686,7101,128,-22.09994222,-306426,54656,37667.96875,128
-98432,-7.099076164,-5.867238744,-81352,0.444846206,6168,128,-22.14537885,-307056,54720,37669.92188,128
-98432,-7.099076164,-5.856132013,-81198,0.444846206,6168,128,-22.10232223,-306459,54784,37671.875,128
-99569,-7.181078456,-5.859810216,-81249,0.286250745,3969,128,-22.09114338,-306304,54848,37673.82813,128
-80997,-5.841635566,-5.841635566,-80997,0.443187409,6145,128,-22.13492121,-306911,54912,37675.78125,128
-81424,-5.872431501,-5.904020775,-81862,0.444197112,6159,128,-22.06626142,-305959,54976,37677.73438,128
-81424,-5.872431501,-5.904453505,-81868,0.444197112,6159,128,-22.01974297,-305314,55040,37679.6875,128
-80904,-5.834928254,-5.863776906,-81304,0.47996944,6655,128,-22.09871615,-306409,55104,37681.64063,128
-81773,-5.89760195,-5.83961616,-80969,0.443115287,6144,128,-21.9965198,-304992,55168,37683.59375,128
-81773,-5.89760195,-5.869546636,-81384,0.443115287,6144,128,-22.09251369,-306323,55232,37685.54688,128
-80065,-5.774418208,-5.830456713,-80842,0.508745969,7054,128,-22.11696292,-306662,55296,37687.5,128
-81919,-5.908131708,-5.867599352,-81357,0.443187409,6145,128,-21.9618293,-304511,55360,37689.45313,128
-80897,-5.834423403,-5.834423403,-80897,0.588512491,8160,128,-22.04729343,-305696,55424,37691.40625,128
-81017,-5.843077999,-5.843077999,-81017,0.556129879,7711,128,-22.07513238,-306082,55488,37693.35938,128
-81824,-5.901280153,-5.808964468,-80544,0.515164794,7143,128,-22.09525431,-306361,55552,37695.3125,128
-81345,-5.866733893,-5.862118109,-81281,0.45919841,6367,128,-22.12193932,-306731,55616,37697.26563,128
-81920,-5.908203829,-5.865652068,-81330,0.460208113,6381,128,-22.1435758,-307031,55680,37699.21875,128
-80808,-5.828004578,-5.828004578,-80808,0.516895713,7167,128,-22.08371485,-306201,55744,37701.17188,128
-11441,-0.825143555,-22.03813398,-305569,0,0,157,-302.5000361,-4194304,55808,37703.125,128
-65597,-4.730962483,434.8209393,6028995,1.068337687,14813,11,4.640594082,64344,55872,37705.07813,0
-32258,-2.326499501,405.0072283,5615614,0.018102529,251,141,0.018102529,251,55936,37707.03125,128
255,0.018391015,405.0072283,5615614,0,0,141,0.018102529,251,56000,37708.98438,128
64262,4.634680108,4.640449839,64342,0,0,155,277.68558,3850240,56064,37710.9375,144
3999,0.288414393,4.640305595,64340,0.276947054,3840,31,-62.62696059,-868352,56128,37712.89063,0
-130832,-9.435816936,-238.3452509,-3304768,1.181568644,16383,0,415.8266265,5765630,56192,37714.84375,0
-131072,-9.453126127,0.018102529,251,0,0,149,-235.3726858,-3263552,56256,37716.79688,128
49152,3.544922298,-5.618419125,-77902,1.181640766,16384,128,-22.00712168,-305139,56320,37718.75,128
-81920,-5.908203829,-161.8847849,-2244608,2.344313543,32505,1,179.5875436,2490065,56384,37720.70313,0
-130880,-9.439278774,-5.494514167,-76184,1.182506225,16396,128,-21.99356282,-304951,56448,37722.65625,128
-131072,-9.453126127,-5.419724038,-75147,1.182866834,16401,128,-21.88869797,-303497,56512,37724.60938,128
-75776,-5.465088542,-5.372412249,-74491,1.200031781,16639,128,-22.03092182,-305469,56576,37726.5625,128
-65666,-4.735938875,-5.294376647,-73409,1.181640766,16384,128,-21.952165,-304377,56640,37728.51563,128
-73713,-5.316301622,-5.301300323,-73505,1.24734357,17295,128,-21.99933255,-305031,56704,37730.46875,128
-73480,-5.299497282,-5.271586212,-73093,1.245684772,17272,128,-21.98332155,-304809,56768,37732.42188,128
-73328,-5.288534795,-5.304113067,-73544,1.183804415,16414,128,-21.97769606,-304731,56832,37734.375,128
-65537,-4.726635185,-5.433066539,-75332,0.443331652,6147,128,-22.00445318,-305102,56896,37736.32813,128
-69380,-5.003798604,-5.57305462,-77273,0.295482313,4097,128,-22.02334905,-305364,56960,37738.28125,128
-68639,-4.950356478,-5.544061726,-76871,0.417439987,5788,128,-22.040514,-305602,57024,37740.23438,128
-68584,-4.946389788,-5.52567071,-76616,0.406189013,5632,128,-22.03496063,-305525,57088,37742.1875,128
-67614,-4.876431808,-5.573343107,-77277,0.42465215,5888,128,-22.00957382,-305173,57152,37744.14063,128
-77936,-5.62087126,-5.687006794,-78853,0.14525296,2014,128,-22.07534874,-306085,57216,37746.09375,128
-81920,-5.908203829,-5.752998084,-79768,0.1107067,1535,128,-22.12071325,-306714,57280,37748.04688,128
-81566,-5.882672773,-5.875821218,-81471,0.055389411,768,128,-22.08306576,-306192,57344,37750,128
-81409,-5.871349677,-5.848631364,-81094,0.034618382,480,128,-22.13499333,-306912,57408,37751.95313,128
-80321,-5.792881345,-5.788770412,-80264,0.295987164,4104,128,-22.07808937,-306123,57472,37753.90625,128
-80003,-5.769946667,-5.772543046,-80039,0.311565436,4320,128,-22.10268284,-306464,57536,37755.85938,128
-80903,-5.834856133,-5.773120019,-80047,0.312791504,4337,128,-22.10809196,-306539,57600,37757.8125,128
-80000,-5.769730302,-5.74881503,-79710,0.428113988,5936,128,-22.10246648,-306461,57664,37759.76563,128
-81665,-5.889812814,-5.667822441,-78587,0.590748261,8191,128,-22.07361782,-306061,57728,37761.71875,128
-78031,-5.627722815,-5.649936277,-78339,0.554038352,7682,128,-22.09157611,-306310,57792,37763.67188,128
-77831,-5.613298489,-5.677054009,-78715,0.498721063,6915,128,-22.0912155,-306305,57856,37765.625,128
-77825,-5.612865759,-5.624765828,-77990,0.58360822,8092,128,-22.08256091,-306185,57920,37767.57813,128
-79875,-5.760715098,-5.6430126,-78243,0.590748261,8191,128,-22.05630863,-305821,57984,37769.53125,128
-81668,-5.890029179,-5.683256469,-78801,0.457106883,6338,128,-22.03669155,-305549,58048,37771.48438,128
-77911,-5.61906822,-5.671212157,-78634,0.582382152,8075,128,-22.07455541,-306074,58112,37773.4375,128
-78842,-5.686213456,-5.656427223,-78429,0.588584612,8161,128,-22.00539076,-305115,58176,37775.39063,128
-81919,-5.908131708,-5.674097022,-78674,0.586204599,8128,128,-22.05760682,-305839,58240,37777.34375,128
-81672,-5.890317665,-5.693425619,-78942,0.517400565,7174,128,-22.01815629,-305292,58304,37779.29688,128
-81913,-5.907698978,-5.685131632,-78827,0.569977232,7903,128,-22.05241407,-305767,58368,37781.25,128
-81888,-5.905895937,-5.676404914,-78706,0.475425777,6592,128,-22.05602015,-305817,58432,37783.20313,128
-81804,-5.89983772,-5.680732212,-78766,0.460568721,6386,128,-22.03806186,-305568,58496,37785.15625,128
-81919,-5.908131708,-5.643733817,-78253,0.562476583,7799,128,-22.05580378,-305814,58560,37787.10938,128
-81152,-5.852814418,-5.647628385,-78307,0.553894109,7680,128,-22.04801465,-305706,58624,37789.0625,128
-81641,-5.888081895,-5.675539455,-78694,0.452274734,6271,128,-22.06099654,-305886,58688,37791.01563,128
-78728,-5.67799159,-5.654912669,-78408,0.582021544,8070,128,-22.00935745,-305170,58752,37792.96875,128
-78049,-5.629021004,-5.647772628,-78309,0.588224004,8156,128,-22.01065564,-305188,58816,37794.92188,128
-80797,-5.82721124,-5.679506144,-78749,0.442105584,6130,128,-22.05724622,-305834,58880,37796.875,128
-78272,-5.645104128,-5.708571161,-79152,0.572862097,7943,128,-22.02601755,-305401,58944,37798.82813,128
-78848,-5.686646186,-5.664865454,-78546,0.44722622,6201,128,-22.01108837,-305194,59008,37800.78125,128
-79921,-5.764032693,-5.653902966,-78394,0.59067614,8190,128,-22.03070546,-305466,59072,37802.73438,128
-79903,-5.762734504,-5.648638087,-78321,0.59024341,8184,128,-22.02724362,-305418,59136,37804.6875,128
-79934,-5.764970275,-5.642002898,-78229,0.554110474,7683,128,-22.01130474,-305197,59200,37806.64063,128
-77631,-5.598874163,-5.574929783,-77299,0.535430972,7424,128,-22.04137946,-305614,59264,37808.59375,128
-79888,-5.76165268,-5.65851875,-78458,0.581228206,8059,128,-22.02947939,-305449,59328,37810.54688,128
-77952,-5.622025206,-5.653686601,-78391,0.445351058,6175,128,-21.98534095,-304837,59392,37812.5,128
-79903,-5.762734504,-5.611495449,-77806,0.46669906,6471,128,-22.04137946,-305614,59456,37814.45313,128
-75776,-5.465088542,-5.64611383,-78286,0.443403774,6148,128,-21.98404276,-304819,59520,37816.40625,128
-80367,-5.79619894,-5.682967983,-78797,0.443043166,6143,128,-22.03431154,-305516,59584,37818.35938,128
-77828,-5.613082124,-5.623467639,-77972,0.59067614,8190,128,-21.98195123,-304790,59648,37820.3125,128
-79873,-5.760570855,-5.631905869,-78089,0.461506303,6399,128,-22.02046418,-305324,59712,37822.26563,128
-77837,-5.613731219,-5.582214067,-77400,0.573294827,7949,128,-22.00661683,-305132,59776,37824.21875,128
-74656,-5.384312318,-5.581853459,-77395,0.531247918,7366,128,-21.98346579,-304811,59840,37826.17188,128
-76928,-5.548172658,-5.542691415,-76852,0.554975933,7695,128,-22.00979018,-305176,59904,37828.125,128
-73858,-5.326759258,-5.587695311,-77476,0.516390862,7160,128,-21.9751718,-304696,59968,37830.07813,128
-74742,-5.390514778,-5.597071123,-77606,0.478310642,6632,128,-21.98209548,-304792,60032,37832.03125,128
-77693,-5.603345704,-5.603417826,-77694,0.47996944,6655,128,-21.97740757,-304727,60096,37833.98438,128
-77855,-5.615029408,-5.619645193,-77919,0.447154098,6200,128,-21.98252821,-304798,60160,37835.9375,128
-79905,-5.762878747,-5.634213762,-78121,0.572934219,7944,128,-22.02580118,-305398,60224,37837.89063,128
-77945,-5.621520355,-5.593465041,-77556,0.588584612,8161,128,-21.97899425,-304749,60288,37839.84375,128
-73841,-5.32553319,-5.544133847,-76872,0.575025746,7973,128,-21.96868085,-304606,60352,37841.79688,128
-73970,-5.334836881,-5.584521959,-77432,0.444197112,6159,128,-21.98447549,-304825,60416,37843.75,128
-75745,-5.462852772,-5.568222471,-77206,0.450038964,6240,128,-22.0228442,-305357,60480,37845.70313,128
-73925,-5.331591407,-5.522785845,-76576,0.589666437,8176,128,-21.97185421,-304650,60544,37847.65625,128
-69145,-4.986850022,-5.536128346,-76761,0.47953671,6649,128,-21.94690012,-304304,60608,37849.60938,128
-73856,-5.326615015,-5.585171054,-77441,0.479464588,6648,128,-21.97336876,-304671,60672,37851.5625,128
-73781,-5.321205893,-5.548316902,-76930,0.55836565,7742,128,-21.95245349,-304381,60736,37853.51563,128
-73757,-5.319474974,-5.529493157,-76669,0.512568416,7107,128,-21.96269476,-304523,60800,37855.46875,128
-73729,-5.317455568,-5.562669106,-77129,0.443475895,6149,128,-21.9751718,-304696,60864,37857.42188,128
-75279,-5.429244093,-5.571540066,-77252,0.443115287,6144,128,-21.98714399,-304862,60928,37859.375,128
-69600,-5.019665363,-5.542330807,-76847,0.478382764,6633,128,-21.94336616,-304255,60992,37861.32813,128
-73785,-5.321494379,-5.524011913,-76593,0.512568416,7107,128,-21.95793473,-304457,61056,37863.28125,128
-74292,-5.358060045,-5.508361519,-76376,0.460424478,6384,128,-21.95634806,-304435,61120,37865.23438,128
-68729,-4.956847424,-5.461770947,-75730,0.533627931,7399,128,-21.92569636,-304010,61184,37867.1875,128
-67536,-4.870806321,-5.498552978,-76240,0.59067614,8190,128,-21.93701946,-304167,61248,37869.14063,128
-69505,-5.012813808,-5.511462749,-76419,0.514659943,7136,128,-21.94113039,-304224,61312,37871.09375,128
-68833,-4.964348074,-5.481748638,-76007,0.515669646,7150,128,-21.94964074,-304342,61376,37873.04688,128
-69632,-5.021973255,-5.51990098,-76536,0.443115287,6144,128,-21.96997904,-304624,61440,37875,128
-74783,-5.393471765,-5.552427835,-76987,0.588512491,8160,128,-21.97336876,-304671,61504,37876.95313,128
-73732,-5.317671933,-5.547451442,-76918,0.444197112,6159,128,-21.96608448,-304570,61568,37878.90625,128
-68857,-4.966078993,-5.475978908,-75927,0.519203606,7199,128,-21.92944669,-304062,61632,37880.85938,128
-73743,-5.318465271,-5.502086938,-76289,0.571996638,7931,128,-21.97372937,-304676,61696,37882.8125,128
-74233,-5.353804869,-5.45614546,-75652,0.47996944,6655,128,-21.96911358,-304612,61760,37884.76563,128
-67457,-4.865108712,-5.404001523,-74929,0.59067614,8190,128,-21.91004597,-303793,61824,37886.71875,128
-66528,-4.798107719,-5.407246996,-74974,0.587430666,8145,128,-21.97228694,-304656,61888,37888.67188,128
-65537,-4.726635185,-5.459030325,-75692,0.515597524,7149,128,-21.91805147,-303904,61952,37890.625,128
-66536,-4.798684692,-5.446625405,-75520,0.554759569,7692,128,-21.9501456,-304349,62016,37892.57813,128
-65599,-4.731106726,-5.424772552,-75217,0.508241118,7047,128,-21.9318267,-304095,62080,37894.53125,128
-66544,-4.799261665,-5.448067838,-75540,0.48220521,6686,128,-21.93485581,-304137,62144,37896.48438,128
-66560,-4.800415611,-5.469776448,-75841,0.518410268,7188,128,-21.93673097,-304163,62208,37898.4375,128
-73761,-5.31976346,-5.4215992,-75173,0.502831996,6972,128,-21.9891634,-304890,62272,37900.39063,128
-67581,-4.874051794,-5.407246996,-74974,0.517689051,7178,128,-21.92129694,-303949,62336,37902.34375,128
-66681,-4.809142328,-5.422753146,-75189,0.587214301,8142,128,-21.91119992,-303809,62400,37904.29688,128
-65543,-4.727067915,-5.374936506,-74526,0.556129879,7711,128,-21.93262004,-304106,62464,37906.25,128
-66017,-4.761253567,-5.352939409,-74221,0.556129879,7711,128,-21.89316951,-303559,62528,37908.20313,128
-65561,-4.728366104,-5.365416451,-74394,0.516967835,7168,128,-21.92685031,-304026,62592,37910.15625,128
-66335,-4.784188245,-5.37731652,-74559,0.585050653,8112,128,-21.90420412,-303712,62656,37912.10938,128
-65592,-4.730601875,-5.376811668,-74552,0.573366949,7950,128,-21.92670607,-304024,62720,37914.0625,128
-66568,-4.800992584,-5.394048738,-74791,0.586204599,8128,128,-21.86381601,-303152,62784,37916.01563,128
-65634,-4.733630983,-5.405948807,-74956,0.466122087,6463,128,-21.94891953,-304332,62848,37917.96875,128
-66622,-4.804887152,-5.379335925,-74587,0.561971731,7792,128,-21.90521382,-303726,62912,37919.92188,128
-66546,-4.799405909,-5.361233397,-74336,0.512352051,7104,128,-21.94365465,-304259,62976,37921.875,128
-65545,-4.727212158,-5.373494074,-74506,0.586493085,8132,128,-21.92908608,-304057,63040,37923.82813,128
-66050,-4.763633581,-5.355319423,-74254,0.499009549,6919,128,-21.9194939,-303924,63104,37925.78125,128
-66048,-4.763489337,-5.318321028,-73741,0.530526701,7356,128,-21.91257023,-303828,63168,37927.73438,128
-73664,-5.312767662,-5.328129569,-73877,0.518049659,7183,128,-21.93435096,-304130,63232,37929.6875,128
-65679,-4.736876456,-5.31442646,-73687,0.588151883,8155,128,-21.94452011,-304271,63296,37931.64063,128
-73279,-5.285000835,-5.314931311,-73694,0.509972037,7071,128,-21.94596254,-304291,63360,37933.59375,128
-65542,-4.726995793,-5.331591407,-73925,0.516679349,7164,128,-21.89771317,-303622,63424,37935.54688,128
-65788,-4.744737714,-5.361954613,-74346,0.517472686,7175,128,-21.94004857,-304209,63488,37937.5,128
-65551,-4.727644888,-5.346232098,-74128,0.525622431,7288,128,-21.93694734,-304166,63552,37939.45313,128
-65567,-4.728798834,-5.331014434,-73917,0.553966231,7681,128,-21.90672838,-303747,63616,37941.40625,128
-65538,-4.726707307,-5.349549693,-74174,0.535214607,7421,128,-21.9121375,-303822,63680,37943.35938,128
-73722,-5.316950717,-5.320484676,-73771,0.553966231,7681,128,-21.91711389,-303891,63744,37945.3125,128
-65665,-4.735866754,-5.327552596,-73869,0.516895713,7167,128,-21.94495284,-304277,63808,37947.26563,128
-73457,-5.297838485,-5.296900904,-73444,0.582454274,8076,128,-21.92288362,-303971,63872,37949.21875,128
-65570,-4.729015199,-5.320124068,-73766,0.577189395,8003,128,-21.89244829,-303549,63936,37951.17188,128
-73689,-5.314570703,-5.314642824,-73690,0.553894109,7680,128,-21.89605437,-303599,64000,37953.125,128
-69582,-5.018367173,-5.309161581,-73614,0.572357246,7936,128,-21.87751912,-303342,64064,37955.07813,128
-65804,-4.74589166,-5.373566195,-74507,0.590459775,8187,128,-21.89302527,-303557,64128,37957.03125,128
-66112,-4.768105122,-5.355824275,-74261,0.520934525,7223,128,-21.90023743,-303657,64192,37958.98438,128
-65592,-4.730601875,-5.34810726,-74154,0.55439896,7687,128,-21.93752431,-304174,64256,37960.9375,128
-69632,-5.021973255,-5.308079756,-73599,0.589666437,8176,128,-21.90831505,-303769,64320,37962.89063,128
-65569,-4.728943077,-5.353444261,-74228,0.459486897,6371,128,-21.94351041,-304257,64384,37964.84375,128
-65924,-4.754546255,-5.330293218,-73907,0.586781572,8136,128,-21.88898646,-303501,64448,37966.79688,128
-65790,-4.744881957,-5.341039341,-74056,0.572429368,7937,128,-21.88689493,-303472,64512,37968.75,128
-65584,-4.730024902,-5.354814572,-74247,0.574593016,7967,128,-21.89901136,-303640,64576,37970.70313,128
-65586,-4.730169145,-5.358348532,-74296,0.517256322,7172,128,-21.94884741,-304331,64640,37972.65625,128
-66237,-4.777120325,-5.367075249,-74417,0.519131484,7198,128,-21.94430374,-304268,64704,37974.60938,128
-66276,-4.779933069,-5.38308625,-74639,0.459270532,6368,128,-21.92706668,-304029,64768,37976.5625,128
-66880,-4.823494533,-5.433210782,-75334,0.534781877,7415,128,-21.90622352,-303740,64832,37978.51563,128
-67136,-4.841957669,-5.387413548,-74699,0.53535885,7423,128,-21.91458963,-303856,64896,37980.46875,128
-66048,-4.763489337,-5.402703333,-74911,0.569905111,7902,128,-21.90420412,-303712,64960,37982.42188,128
-65913,-4.753752917,-5.427585295,-75256,0.572429368,7937,128,-21.94531345,-304282,65024,37984.375,128
-67088,-4.838495831,-5.401621509,-74896,0.5171842,7171,128,-21.92706668,-304029,65088,37986.32813,128
-65537,-4.726635185,-5.373854682,-74511,0.590315532,8185,128,-21.87586032,-303319,65152,37988.28125,128
-65794,-4.745170444,-5.373205587,-74502,0.582093666,8071,128,-21.90550231,-303730,65216,37990.23438,128
-65608,-4.731755821,-5.387774156,-74704,0.554759569,7692,128,-21.89663135,-303607,65280,37992.1875,128
-66048,-4.763489337,-5.391235994,-74752,0.517977538,7182,128,-21.92656182,-304022,65344,37994.14063,128
-66017,-4.761253567,-5.426864079,-75246,0.589738558,8177,128,-21.89951621,-303647,65408,37996.09375,128
-67552,-4.871960267,-5.457732136,-75674,0.573294827,7949,128,-21.89518892,-303587,65472,37998.04688,128
-67336,-4.856381995,-5.409987618,-75012,0.574520895,7966,128,-21.90160774,-303676,0,38000,128
-65757,-4.742501943,-5.403063941,-74916,0.552018947,7654,128,-21.8891307,-303503,64,38001.95313,128
-67573,-4.873474821,-5.425998619,-75234,0.582093666,8071,128,-21.87896155,-303362,128,38003.90625,128
-65633,-4.733558861,-5.438619904,-75409,0.555985636,7709,128,-21.91026234,-303796,192,38005.85938,128
-65986,-4.759017796,-5.399962711,-74873,0.47910398,6643,128,-21.90052592,-303661,256,38007.8125,128
-73939,-5.33260111,-5.39945786,-74866,0.581516693,8063,128,-21.96024262,-304489,320,38009.76563,128
-66680,-4.809070207,-5.427296809,-75252,0.533627931,7399,128,-21.93745219,-304173,384,38011.71875,128
-67421,-4.862512334,-5.407174874,-74973,0.507736267,7040,128,-21.92389332,-303985,448,38013.67188,128
-67329,-4.855877144,-5.411357929,-75031,0.562260218,7796,128,-21.95706927,-304445,512,38015.625,128
-66961,-4.829336384,-5.446336919,-75516,0.519780579,7207,128,-21.94762134,-304314,576,38017.57813,128
-67567,-4.873042091,-5.408689428,-74994,0.561683245,7788,128,-21.89158283,-303537,640,38019.53125,128
-65793,-4.745098322,-5.397149968,-74834,0.511847199,7097,128,-21.90694474,-303750,704,38021.48438,128
-66045,-4.763272972,-5.415540983,-75089,0.53535885,7423,128,-21.91725813,-303893,768,38023.4375,128
-67583,-4.874196038,-5.464727934,-75771,0.445278936,6174,128,-21.96709418,-304584,832,38025.39063,128
-66432,-4.791184043,-5.378470466,-74575,0.590171288,8183,128,-21.9394716,-304201,896,38027.34375,128
-65568,-4.728870956,-5.347386044,-74144,0.57430453,7963,128,-21.93233155,-304102,960,38029.29688,128
-66553,-4.79991076,-5.372268006,-74489,0.590099167,8182,128,-21.86915301,-303226,1024,38031.25,128
-65665,-4.735866754,-5.363685532,-74370,0.590748261,8191,128,-21.90268956,-303691,1088,38033.20313,128
-66559,-4.80034349,-5.367219492,-74419,1.038262968,14396,128,-21.8574693,-303064,1152,38035.15625,128
-67088,-4.838495831,-5.433787755,-75342,0.575530598,7980,128,-21.92670607,-304024,1216,38037.10938,128
-67351,-4.85746382,-5.426359227,-75239,0.589522194,8174,128,-21.93197095,-304097,1280,38039.0625,128
-66560,-4.800415611,-5.373566195,-74507,0.516679349,7164,128,-21.92223453,-303962,1344,38041.01563,128
-65593,-4.730673996,-5.386331723,-74684,0.582670639,8079,128,-21.89100586,-303529,1408,38042.96875,128
-65597,-4.730962483,-5.354093355,-74237,0.589522194,8174,128,-21.86143599,-303119,1472,38044.92188,128
-66018,-4.761325689,-5.348179382,-74155,0.59024341,8184,128,-21.8634554,-303147,1536,38046.875,128
-73721,-5.316878595,-5.325028339,-73834,0.59024341,8184,128,-21.93500005,-304139,1600,38048.82813,128
-65600,-4.731178848,-5.347386044,-74144,1.038479333,14399,128,-21.8564596,-303050,1664,38050.78125,128
-65544,-4.727140036,-5.35517518,-74252,0.572429368,7937,128,-21.92129694,-303949,1728,38052.73438,128
-65544,-4.727140036,-5.361666126,-74342,0.586204599,8128,128,-21.91228174,-303824,1792,38054.6875,128
-66434,-4.791328286,-5.383663223,-74647,0.524973336,7279,128,-21.90817081,-303767,1856,38056.64063,128
-73843,-5.325677434,-5.390370535,-74740,0.461578424,6400,128,-21.97885,-304747,1920,38058.59375,128
-66560,-4.800415611,-5.365200086,-74391,0.506582321,7024,128,-21.90889202,-303777,1984,38060.54688,128
-65540,-4.72685155,-5.337289016,-74004,0.5171842,7171,128,-21.90543019,-303729,2048,38062.5,128
-66288,-4.780798528,-5.371330425,-74476,0.588512491,8160,128,-21.86951362,-303231,2112,38064.45313,128
-66113,-4.768177243,-5.359141869,-74307,0.586132477,8127,128,-21.91264235,-303829,2176,38066.40625,128
-65572,-4.729159442,-5.320556798,-73772,0.516967835,7168,128,-21.92865335,-304051,2240,38068.35938,128
-65558,-4.728149739,-5.351280612,-74198,0.588728856,8163,128,-21.8708118,-303249,2304,38070.3125,128
-66017,-4.761253567,-5.338226597,-74017,0.590748261,8191,128,-21.89901136,-303640,2368,38072.26563,128
-65537,-4.726635185,-5.327696839,-73871,0.59067614,8190,128,-21.90059804,-303662,2432,38074.21875,128
-65788,-4.744737714,-5.348179382,-74155,0.574520895,7966,128,-21.89122223,-303532,2496,38076.17188,128
-65599,-4.731106726,-5.362026735,-74347,0.548989838,7612,128,-21.90211259,-303683,2560,38078.125,128
-66048,-4.763489337,-5.341327827,-74060,1.035017495,14351,128,-21.89050101,-303522,2624,38080.07813,128
-65672,-4.736371605,-5.337505381,-74007,0.588656734,8162,128,-21.85999356,-303099,2688,38082.03125,128
-65549,-4.727500645,-5.369383141,-74449,0.572862097,7943,128,-21.88401006,-303432,2752,38083.98438,128
-66057,-4.764138432,-5.325821677,-73845,0.590099167,8182,128,-21.88559674,-303454,2816,38085.9375,128
-72892,-5.257089765,-5.21215799,-72269,1.185318969,16435,128,-21.8441268,-302879,2880,38087.89063,128
-72240,-5.210066463,-5.283342038,-73256,0.588440369,8159,128,-21.87896155,-303362,2944,38089.84375,128
-65664,-4.735794632,-5.32373015,-73816,1.034007792,14337,128,-21.87470637,-303303,3008,38091.79688,128
-73728,-5.317383446,-5.289039646,-73335,0.58360822,8092,128,-21.88393794,-303431,3072,38093.75,128
-73666,-5.312911905,-5.319402852,-73756,1.04143632,14440,128,-21.87838458,-303354,3136,38095.70313,128
-65600,-4.731178848,-5.331952015,-73930,0.58981068,8178,128,-21.88199066,-303404,3200,38097.65625,128
-65545,-4.727212158,-5.319186487,-73753,1.038262968,14396,128,-21.85660384,-303052,3264,38099.60938,128
-73473,-5.298992431,-5.299425161,-73479,0.58627672,8129,128,-21.90009319,-303655,3328,38101.5625,128
-73246,-5.282620821,-5.296179688,-73434,0.586204599,8128,128,-21.91451751,-303855,3392,38103.51563,128
-73602,-5.308296121,-5.29228512,-73380,0.55836565,7742,128,-21.89425133,-303574,3456,38105.46875,128
-73248,-5.282765065,-5.282765065,-73248,0.590748261,8191,128,-21.88877009,-303498,3520,38107.42188,128
-72825,-5.252257616,-5.260912211,-72945,0.579208801,8031,128,-21.87203787,-303266,3584,38109.375,128
-73409,-5.294376647,-5.29452089,-73411,1.041364198,14439,128,-21.84326134,-302867,3648,38111.32813,128
-65537,-4.726635185,-5.322648325,-73801,0.571996638,7931,128,-21.87925004,-303366,3712,38113.28125,128
-73665,-5.312839784,-5.312911905,-73666,0.590171288,8183,128,-21.87030695,-303242,3776,38115.23438,128
-65632,-4.73348674,-5.361089153,-74334,0.588800977,8164,128,-21.86237357,-303132,3840,38117.1875,128
-65540,-4.72685155,-5.303175486,-73531,0.572285124,7935,128,-21.87730275,-303339,3904,38119.14063,128
-72728,-5.245261818,-5.268917712,-73056,0.565505691,7841,128,-21.94545769,-304284,3968,38121.09375,128
-73473,-5.298992431,-5.270576509,-73079,0.590748261,8191,128,-21.8571087,-303059,4032,38123.04688,128
-73149,-5.275625023,-5.274759564,-73137,0.500740469,6943,128,-21.93730795,-304171,4096,38125,128
-72706,-5.243675142,-5.260984333,-72946,0.586204599,8128,128,-21.89136647,-303534,4160,38126.95313,128
-73270,-5.28435174,-5.26574436,-73012,0.572862097,7943,128,-21.91733026,-303894,4224,38128.90625,128
-73057,-5.268989833,-5.279519591,-73203,0.554038352,7682,128,-21.92612909,-304016,4288,38130.85938,128
-73600,-5.308151878,-5.261633427,-72955,0.588656734,8162,128,-21.88184641,-303402,4352,38132.8125,128
-72721,-5.244756966,-5.257955224,-72904,1.109879745,15389,128,-21.88429855,-303436,4416,38134.76563,128
-69375,-5.003437996,-5.299785769,-73484,1.038479333,14399,128,-21.87066756,-303247,4480,38136.71875,128
-73716,-5.316517987,-5.316734352,-73719,0.521006646,7224,128,-21.93074488,-304080,4544,38138.67188,128
-72839,-5.253267318,-5.274038347,-73127,1.03790236,14391,128,-21.85638748,-303049,4608,38140.625,128
-72768,-5.248146683,-5.261849792,-72958,0.508673848,7053,128,-21.94019281,-304211,4672,38142.57813,128
-72712,-5.244107872,-5.266970428,-73029,0.582670639,8079,128,-21.86850391,-303217,4736,38144.53125,128
-72721,-5.244756966,-5.249444872,-72786,1.108365191,15368,128,-21.84131406,-302840,4800,38146.48438,128
-69375,-5.003437996,-5.217783477,-72347,1.105913056,15334,128,-21.80683992,-302362,4864,38148.4375,128
-73217,-5.280529294,-5.28745297,-73313,0.571275422,7921,128,-21.8794664,-303369,4928,38150.39063,128
-73713,-5.316301622,-5.294593012,-73412,0.553821987,7679,128,-21.89908348,-303641,4992,38152.34375,128
-72960,-5.261994035,-5.2595419,-72926,1.089325081,15104,128,-21.82306729,-302587,5056,38154.29688,128
-69250,-4.994422793,-5.253483683,-72842,1.106057299,15336,128,-21.79724774,-302229,5120,38156.25,128
-73204,-5.279591713,-5.275264415,-73144,1.051244861,14576,128,-21.84643469,-302911,5184,38158.20313,128
-72929,-5.259758265,-5.260623725,-72941,0.5712033,7920,128,-21.89100586,-303529,5248,38160.15625,128
-72181,-5.205811287,-5.221245315,-72395,0.51761693,7177,128,-21.8767979,-303332,5312,38162.10938,128
-72707,-5.243747263,-5.260479481,-72939,0.581588814,8064,128,-21.88689493,-303472,5376,38164.0625,128
-71751,-5.174798986,-5.209561611,-72233,0.516967835,7168,128,-21.87182151,-303263,5440,38166.01563,128
-73154,-5.275985631,-5.187636636,-71929,0.581300328,8060,128,-21.8554499,-303036,5504,38167.96875,128
-71681,-5.169750472,-5.251969129,-72821,0.562548704,7800,128,-21.87586032,-303319,5568,38169.92188,128
-72720,-5.244684845,-5.229178694,-72505,1.052326685,14591,128,-21.8244376,-302606,5632,38171.875,128
-71932,-5.187853001,-5.217134382,-72338,1.145219343,15879,128,-21.83388553,-302737,5696,38173.82813,128
-73697,-5.315147676,-5.232135681,-72546,1.034440522,14343,128,-21.84903107,-302947,5760,38175.78125,128
-73089,-5.271297726,-5.271441969,-73091,1.042590266,14456,128,-21.8527814,-302999,5824,38177.73438,128
-72801,-5.250526697,-5.259758265,-72929,0.581805179,8067,128,-21.90600716,-303737,5888,38179.6875,128
-69248,-4.994278549,-5.214321639,-72299,1.146733898,15900,128,-21.81470118,-302471,5952,38181.64063,128
-72241,-5.210138584,-5.219586518,-72372,0.590531896,8188,128,-21.86749421,-303203,6016,38183.59375,128
-71881,-5.184174798,-5.217855599,-72348,1.144930857,15875,128,-21.82263456,-302581,6080,38185.54688,128
-68896,-4.968891736,-5.190377258,-71967,1.124159828,15587,128,-21.7747458,-301917,6144,38187.5,128
-69505,-5.012813808,-5.207253719,-72201,1.106850637,15347,128,-21.8067678,-302361,6208,38189.45313,128
-73728,-5.317383446,-5.240429668,-72661,0.589882802,8179,128,-21.86944149,-303230,6272,38191.40625,128
-69581,-5.018295052,-5.202637935,-72137,1.105480326,15328,128,-21.81866787,-302526,6336,38193.35938,128
-73698,-5.315219798,-5.222904113,-72418,0.583247612,8087,128,-21.86792694,-303209,6400,38195.3125,128
-72961,-5.262066157,-5.264662536,-72997,0.583319734,8088,128,-21.89324163,-303560,6464,38197.26563,128
-73649,-5.311685838,-5.228385356,-72494,0.452274734,6271,128,-21.94726073,-304309,6528,38199.21875,128
-73457,-5.297838485,-5.202277327,-72132,0.521511498,7231,128,-21.83915041,-302810,6592,38201.17188,128
-69178,-4.989230035,-5.175880811,-71766,1.146878141,15902,128,-21.84794925,-302932,6656,38203.125,128
-71744,-5.174294135,-5.207830692,-72209,1.122789517,15568,128,-21.88970767,-303511,6720,38205.07813,128
-73231,-5.281538997,-5.178765676,-71806,0.581877301,8068,128,-21.85653172,-303051,6784,38207.03125,128
-71743,-5.174222013,-5.204801584,-72167,1.121635571,15552,128,-21.87824033,-303352,6848,38208.98438,128
-72575,-5.234227208,-5.210354949,-72244,0.514876308,7139,128,-21.93132185,-304088,6912,38210.9375,128
-72153,-5.203791881,-5.185112379,-71894,0.588512491,8160,128,-21.83799646,-302794,6976,38212.89063,128
-67580,-4.873979673,-5.168812891,-71668,1.158561845,16064,128,-21.81361935,-302456,7040,38214.84375,128
-71841,-5.181289933,-5.19975307,-72097,0.558437772,7743,128,-21.89324163,-303560,7104,38216.79688,128
-69128,-4.985623954,-5.210066463,-72240,1.037974481,14392,128,-21.8574693,-303064,7168,38218.75,128
-67570,-4.873258456,-5.166649242,-71638,1.107788218,15360,128,-21.85559414,-303038,7232,38220.70313,128
-71805,-5.178693554,-5.178405068,-71801,0.589089464,8168,128,-21.86194084,-303126,7296,38222.65625,128
-70656,-5.095825803,-5.161889215,-71572,0.521511498,7231,128,-21.90254532,-303689,7360,38224.60938,128
-69912,-5.042167311,-5.157561917,-71512,1.108870042,15375,128,-21.84802137,-302933,7424,38226.5625,128
-67072,-4.837341885,-5.132679955,-71167,1.123943463,15584,128,-21.84794925,-302932,7488,38228.51563,128
-65785,-4.744521349,-5.166865607,-71641,1.107716096,15359,128,-21.80626295,-302354,7552,38230.46875,128
-70400,-5.077362666,-5.146238821,-71355,0.572357246,7936,128,-21.87622093,-303324,7616,38232.42188,128
-66552,-4.799838638,-5.159869809,-71544,1.106850637,15347,128,-21.81599937,-302489,7680,38234.375,128
-71741,-5.17407777,-5.173500797,-71733,1.067111619,14796,128,-21.831794,-302708,7744,38236.32813,128
