Device,Device,Device,Device,Device,Device,Device,Device,Device,Device,Device,Device
ECG Vx-RL,ECG Vx-RL,ECG LA-RA,ECG LA-RA,ExG2 CH1,ExG2 CH1,EXG1 Status,ECG LL-RA,ECG LL-RA,Timestamp,Timestamp,EXG2 Status
RAW,CAL,RAW,CAL,CAL,RAW,RAW,RAW,CAL,RAW,CAL,RAW
No Units,mV,No Units,mV,mV,No Units,No Units,No Units,mV,No Units,mSecs,No Units
32718,2.35967545,60366,4.353694243,0.075871953,1052,0,115728,8.346491855,64,18001.95313,0
31982,2.306593932,61672,4.44788509,1.183876536,16415,0,115994,8.365676208,128,18003.90625,0
-203840,-14.70127281,124757,8.997678041,1.04323936,14465,128,92329,6.658917863,192,18005.85938,128
51320,3.701281989,120955,8.723471609,0.682991825,9470,128,91372,6.589897465,256,18007.8125,128
-198265,-14.29919473,123181,8.884014354,1.108004583,15363,128,91275,6.582901667,320,18009.76563,128
62215,4.487047134,123687,8.920507898,1.181352279,16380,128,91741,6.616510346,384,18011.71875,128
-208901,-15.06628037,122835,8.859060271,1.036459927,14371,128,90731,6.5436675,448,18013.67188,128
56945,4.106966151,122453,8.831509808,1.061630376,14720,128,91043,6.566169449,512,18015.625,128
-196614,-14.18012192,122874,8.861873014,1.176664373,16315,128,91443,6.5950181,576,18017.57813,128
64512,4.652710516,123974,8.941206806,1.774769041,24608,128,92263,6.654157836,640,18019.53125,128
67568,4.873114213,91888,6.627112225,0,0,3,-4194304,-302.5000361,704,18021.48438,128
-65535,-4.726490942,5702109,411.2453885,0,0,17,356,0.0256753,768,18023.4375,0
8248832,594.9191993,6413825,462.5755057,0,0,149,1,7.21E-05,832,18025.39063,128
0,0,6413825,462.5755057,0.017886164,248,149,1,7.21E-05,896,18027.34375,128
354,0.025531057,354,0.025531057,0,0,20,6864896,495.1074809,960,18029.29688,0
0,0,353,0.025458935,0.143089311,1984,128,-1851392,-133.5254065,1024,18031.25,128
-261889,-18.88786124,-2762048,-199.2034005,0.016083123,223,0,6172417,445.1647675,1088,18033.20313,0
-262144,-18.90625225,-4194304,-302.5000361,0,0,2,120232,8.671327671,1152,18035.15625,0
16384,1.181640766,3457024,249.3262016,1.070573458,14844,0,262618,18.94043791,1216,18037.10938,128
8372224,603.8184314,121252,8.744891732,0.036349301,504,128,90163,6.502702415,1280,18039.0625,0
-16,-0.001153946,122510,8.835620741,0,0,128,90566,6.531767432,1344,18041.01563,0
65536,4.726563063,122108,8.806627847,1.181496523,16382,128,91044,6.56624157,1408,18042.96875,128
129472,9.337731521,120357,8.680342875,0.922868362,12796,128,89664,6.466713723,1472,18044.92188,128
-134815,-9.723077383,120709,8.705729688,0.467997249,6489,128,89588,6.461232479,1536,18046.875,128
129280,9.323884168,121128,8.73594865,1.052398807,14592,128,90542,6.530036513,1600,18048.82813,128
-145410,-10.48720604,119177,8.595239353,0.890774237,12351,128,89230,6.435412936,1664,18050.78125,128
116190,8.379812047,118760,8.565164633,0.514659943,7136,128,88920,6.413055231,1728,18052.73438,128
119767,8.637791114,120050,8.658201535,0.518987241,7196,128,89570,6.459934289,1792,18054.6875,128
122878,8.862161501,119858,8.644354182,0.559519596,7758,128,89575,6.460294898,1856,18056.64063,128
127169,9.17163541,118814,8.569059201,0.549278325,7616,128,89403,6.447889977,1920,18058.59375,128
127519,9.19687798,120946,8.722822514,0.552740163,7664,128,90314,6.513592781,1984,18060.54688,128
129150,9.314508356,120369,8.681208334,1.059033997,14684,128,89859,6.48077744,2048,18062.5,128
130072,9.381004498,119695,8.632598356,0.518698754,7192,128,89640,6.464982803,2112,18064.45313,128
-147201,-10.61637588,119666,8.630506829,0.590748261,8191,128,90084,6.497004807,2176,18066.40625,128
120632,8.700176322,120436,8.686040483,0.590531896,8188,128,90481,6.525637093,2240,18068.35938,128
122661,8.846511107,120179,8.667505225,1.03393567,14336,128,90204,6.505659402,2304,18070.3125,128
126977,9.157788057,120387,8.682506523,1.052254564,14590,128,90415,6.520877066,2368,18072.26563,128
130684,9.425142935,119391,8.610673381,0.890702115,12350,128,89761,6.473709521,2432,18074.21875,128
-131073,-9.453198249,118350,8.535594766,0.590171288,8183,128,90344,6.51575643,2496,18076.17188,128
130751,9.429975084,119549,8.622068599,0.58937795,8172,128,89862,6.480993805,2560,18078.125,128
-15985,-1.152864236,120761,8.709480013,1.156470317,16035,128,90286,6.511573376,2624,18080.07813,128
-14336,-1.03393567,121368,8.753257841,1.172625562,16259,128,90866,6.55340392,2688,18082.03125,128
7168,0.516967835,120246,8.672337374,1.145724195,15886,128,91333,6.587084721,2752,18083.98438,128
-8200,-0.591397356,120049,8.658129413,1.117524638,15495,128,91019,6.56443853,2816,18085.9375,128
-2817,-0.203166628,120379,8.68192955,1.034440522,14343,128,90701,6.541503852,2880,18087.89063,128
911,0.065702804,119577,8.624088004,0.95777523,13280,128,90785,6.547562068,2944,18089.84375,128
-1,-7.21E-05,119911,8.648176628,1.034729008,14347,128,91889,6.627184347,3008,18091.79688,128
-371,-0.026757124,120752,8.708830918,1.17695286,16319,128,91736,6.616149737,3072,18093.75,128
-14216,-1.025281075,121727,8.779149506,1.180991671,16375,128,92807,6.693392002,3136,18095.70313,128
-15875,-1.144930857,119433,8.61370249,0.968809839,13433,128,90203,6.50558728,3200,18097.65625,128
-12128,-0.874691114,120740,8.707965458,1.090406905,15119,128,92039,6.638002591,3264,18099.60938,128
24544,1.770153257,120451,8.687122308,1.0343684,14342,128,91973,6.633242563,3328,18101.5625,128
30268,2.18297746,120780,8.710850324,1.1424066,15840,128,91778,6.619178846,3392,18103.51563,128
32767,2.36320941,120421,8.684958659,1.144714492,15872,128,91288,6.583839248,3456,18105.46875,128
28804,2.077391395,119985,8.653513629,1.01532829,14078,128,91462,6.596388411,3520,18107.42188,128
-228,-0.016443731,120956,8.72354373,1.153873939,15999,128,92591,6.67781373,3584,18109.375,128
-14400,-1.038551454,118929,8.577353189,1.107571853,15357,128,91686,6.612543656,3648,18111.32813,128
-14402,-1.038695698,119977,8.652936656,0.946740621,13127,128,91448,6.595378708,3712,18113.28125,128
51072,3.683395825,120436,8.686040483,1.036099319,14366,128,92099,6.642329889,3776,18115.23438,128
57216,4.126511112,120474,8.688781105,1.153513331,15994,128,92258,6.653797228,3840,18117.1875,128
-8193,-0.590892505,119399,8.611250354,1.109879745,15389,128,91225,6.579295585,3904,18119.14063,128
61927,4.466276105,119239,8.599710894,1.777076933,24640,128,93388,6.735294668,3968,18121.09375,128
57859,4.172885319,114696,8.272062334,1.172409197,16256,128,92194,6.649181443,4032,18123.04688,128
48156,3.473089155,112891,8.141882794,0.912482847,12652,128,90193,6.504866064,4096,18125,128
48191,3.475613412,113758,8.204412246,0.950851554,13184,128,91247,6.580882261,4160,18126.95313,128
63503,4.579939792,112211,8.092840087,0.95777523,13280,128,90479,6.52549285,4224,18128.90625,128
-7808,-0.563125677,105882,7.636382298,0.904477346,12541,128,90858,6.552826947,4288,18130.85938,128
32651,2.354843301,94334,6.803521729,0.952726716,13210,128,91060,6.567395516,4352,18132.8125,128
-4043,-0.291587745,94521,6.817008474,1.033863549,14335,128,91019,6.56443853,4416,18134.76563,128
-4082,-0.294400489,94176,6.792126512,0.925392619,12831,128,90379,6.518280687,4480,18136.71875,128
-19,-0.001370311,94236,6.796453809,0.901015508,12493,128,90908,6.556433029,4544,18138.67188,128
28924,2.086045991,95587,6.89389013,1.108653678,15372,128,91307,6.585209559,4608,18140.625,128
32272,2.327509204,95317,6.87441729,1.153801817,15998,128,90915,6.55693788,4672,18142.57813,128
29688,2.141146915,94396,6.80799327,0.948543662,13152,128,90301,6.5126552,4736,18144.53125,128
28687,2.068953165,94444,6.811455108,0.590531896,8188,128,90285,6.511501254,4800,18146.48438,128
29168,2.103643668,94283,6.799843526,0.904405225,12540,128,90135,6.50068301,4864,18148.4375,128
30768,2.219038274,94933,6.846722585,1.070573458,14844,128,90301,6.5126552,4928,18150.39063,128
-57,-0.004110933,93233,6.724115816,0.563197799,7809,128,89768,6.474214372,4992,18152.34375,128
-63504,-4.580011914,92996,6.70702299,0.590027045,8181,128,90124,6.499889672,5056,18154.29688,128
66559,4.80034349,92891,6.699450219,0.581011841,8056,128,89976,6.489215671,5120,18156.25,128
68608,4.948120707,93648,6.754046292,0.589954923,8180,128,89732,6.471617993,5184,18158.20313,128
69120,4.985046981,93778,6.763422103,0.520429673,7216,128,89568,6.459790046,5248,18160.15625,128
-55544,-4.005923749,94488,6.81462846,0.57343907,7951,128,89297,6.440245085,5312,18162.10938,128
-53248,-3.840332489,93497,6.743155926,0.559447474,7757,128,88136,6.356511874,5376,18164.0625,128
-56445,-4.070905336,92879,6.698584759,0.53535885,7423,128,88850,6.408006717,5440,18166.01563,128
77355,5.578968594,93649,6.754118413,0.581733058,8066,128,88927,6.413560082,5504,18167.96875,128
77824,5.612793638,94256,6.797896242,0.555913515,7708,128,89270,6.438297801,5568,18169.92188,128
-50084,-3.612139656,92424,6.665769418,0.47996944,6655,128,88081,6.352545184,5632,18171.875,128
91526,6.601004195,95168,6.863671167,0.59067614,8190,128,90084,6.497004807,5696,18173.82813,128
95265,6.870666965,94543,6.818595149,0.574376652,7964,128,88844,6.407573987,5760,18175.78125,128
-38916,-2.806685305,92798,6.692742907,0.517039957,7169,128,88008,6.347280305,5824,18177.73438,128
96272,6.943293446,93960,6.77654824,0.428690961,5944,128,88953,6.415435244,5888,18179.6875,128
-33250,-2.398044157,95113,6.859704478,1.116947665,15487,128,89995,6.490585982,5952,18181.64063,128
-36593,-2.639146762,93885,6.771139118,0.518049659,7183,128,88863,6.408944298,6016,18183.59375,128
-33168,-2.392130183,93821,6.766523333,0.590748261,8191,128,88680,6.39574604,6080,18185.54688,128
95230,6.868142708,95996,6.923387876,0.590531896,8188,128,90318,6.513881268,6144,18187.5,128
-32866,-2.370349451,94283,6.799843526,1.038479333,14399,128,89263,6.437792949,6208,18189.45313,128
92287,6.655888755,92551,6.674928865,0.450183207,6242,128,88565,6.387452053,6272,18191.40625,128
98142,7.078160891,93018,6.708609665,0.554759569,7692,128,88109,6.35456459,6336,18193.35938,128
96543,6.962838407,92953,6.70392176,0.553461379,7674,128,88546,6.386081742,6400,18195.3125,128
-7688,-0.554471082,92602,6.678607068,0.43438857,6023,128,87959,6.343746345,6464,18197.26563,128
-7712,-0.556202001,93641,6.75354144,0.507952631,7043,128,88983,6.417598893,6528,18199.21875,128
126963,9.156778354,94163,6.79118893,0.553317136,7672,128,89456,6.451712424,6592,18201.17188,128
124913,9.008929015,93559,6.747627467,0.44412499,6158,128,88083,6.352689427,6656,18203.125,128
126476,9.121655121,93255,6.725702491,0.587935518,8152,128,87646,6.321172276,6720,18205.07813,128
124991,9.014554502,91568,6.604033304,0.302333868,4192,128,86515,6.239602714,6784,18207.03125,128
-2048,-0.147705096,93245,6.724981275,0.564351745,7825,128,88322,6.369926497,6848,18208.98438,128
123491,8.906372059,92608,6.679039798,0.555625028,7704,128,87739,6.327879587,6912,18210.9375,128
-6081,-0.438571625,92328,6.658845742,0.407126594,5645,128,87761,6.329466263,6976,18212.89063,128
125927,9.082060347,93308,6.729524938,0.581588814,8064,128,88063,6.351246995,7040,18214.84375,128
-4145,-0.298944151,93217,6.72296187,0.444197112,6159,128,88111,6.354708833,7104,18216.79688,128
126444,9.119347229,92175,6.647811132,0.406189013,5632,128,87231,6.2912418,7168,18218.75,128
-256,-0.018463137,93980,6.777990672,0.58670945,8135,128,88159,6.358170671,7232,18220.70313,128
-125,-0.009015204,93796,6.764720293,0.558437772,7743,128,88544,6.385937498,7296,18222.65625,128
-5760,-0.415420582,92470,6.669087013,0.546321338,7575,128,88396,6.375263497,7360,18224.60938,128
126720,9.139252798,93576,6.748853534,0.475425777,6592,128,88167,6.358747644,7424,18226.5625,128
127007,9.159951706,94479,6.813979365,0.551441974,7646,128,88929,6.413704325,7488,18228.51563,128
-4608,-0.332336465,92692,6.685098014,0.572285124,7935,128,88515,6.383845971,7552,18230.46875,128
131071,9.453054005,92368,6.661730607,0.582021544,8070,128,88710,6.397909689,7616,18232.42188,128
128775,9.287462746,91934,6.63042982,0.369118496,5118,128,88044,6.349876684,7680,18234.375,128
-1032,-0.074429521,90888,6.554990596,0.368036672,5103,128,87021,6.276096258,7744,18236.32813,128
131071,9.453054005,92437,6.666706999,0.553749866,7678,128,87358,6.300401247,7808,18238.28125,128
123967,8.940701954,93243,6.724837032,0.482349453,6688,128,88611,6.390769647,7872,18240.23438,128
-4616,-0.332913438,93688,6.756931157,0.456746275,6333,128,88241,6.364084645,7936,18242.1875,128
-129,-0.00930369,93159,6.718778815,0.452274734,6271,128,88491,6.382115052,8000,18244.14063,128
130528,9.413891961,93350,6.732554046,0.498360455,6910,128,88630,6.392139958,8064,18246.09375,128
129779,9.359872861,92464,6.668654283,0.554903812,7694,128,89166,6.430797151,8128,18248.04688,128
60,0.004327298,94017,6.780659173,0.5171842,7171,128,89161,6.430436543,8192,18250,128
-33,-0.002380014,92784,6.691733204,0.445351058,6175,128,88173,6.359180374,8256,18251.95313,128
2076,0.149724501,93501,6.743444412,0.484585224,6719,128,89131,6.428272894,8320,18253.90625,128
-79,-0.005697609,92082,6.641103821,0.556129879,7711,128,88239,6.363940402,8384,18255.85938,128
3932,0.283582244,93578,6.748997778,0.452274734,6271,128,89303,6.440677815,8448,18257.8125,128
236,0.017020704,92458,6.668221553,0.586204599,8128,128,88018,6.348001522,8512,18259.76563,128
3199,0.23071709,94090,6.785924052,0.558221407,7740,128,89398,6.447529369,8576,18261.71875,128
3919,0.282644663,93694,6.757363887,0.516895713,7167,128,88939,6.414425542,8640,18263.67188,128
9788,0.705926502,93979,6.777918551,0.572862097,7943,128,89043,6.421926191,8704,18265.625,128
10215,0.736722438,93619,6.751954764,0.477950034,6627,128,88648,6.393438148,8768,18267.57813,128
12191,0.879234776,93865,6.769696685,0.515164794,7143,128,89117,6.427263192,8832,18269.53125,128
8304,0.598898005,92241,6.65257116,0.454582626,6303,128,88253,6.364950104,8896,18271.48438,128
14334,1.033791427,92154,6.646296578,0.554759569,7692,128,88072,6.35189609,8960,18273.4375,128
14582,1.051677591,93174,6.71986064,0.516679349,7164,128,88729,6.39928,9024,18275.39063,128
16359,1.179837725,94182,6.792559241,0.521583619,7232,128,89174,6.431374124,9088,18277.34375,128
12540,0.904405225,94420,6.809724189,0.156864543,2175,128,116829,8.425897768,9152,18279.29688,128
15872,1.144714492,92746,6.688992582,0.445206814,6173,128,119449,8.614856436,9216,18281.25,128
16382,1.181496523,94539,6.818306663,0.585050653,8112,128,120782,8.710994567,9280,18283.20313,128
12256,0.883922682,93693,6.757291765,0.561106272,7780,128,120428,8.68546351,9344,18285.15625,128
16327,1.177529833,93933,6.774600956,0.581588814,8064,128,120158,8.66599067,9408,18287.10938,128
14855,1.071366795,92228,6.651633579,0.313296355,4344,128,118989,8.581680486,9472,18289.0625,128
15352,1.107211245,93846,6.768326374,0.572285124,7935,128,120753,8.70890304,9536,18291.01563,128
16128,1.163177629,92161,6.64680143,0.389817404,5405,128,119271,8.602018786,9600,18292.96875,128
14847,1.070789822,93344,6.732121316,0.477950034,6627,128,119391,8.610673381,9664,18294.92188,128
16383,1.181568644,94147,6.790034984,0.521727863,7234,128,120453,8.687266551,9728,18296.875,128
14343,1.034440522,91913,6.628915266,0.332769195,4614,128,118564,8.551028794,9792,18298.82813,128
15677,1.130650774,92592,6.677885852,0.115322484,1599,128,118838,8.57079012,9856,18300.78125,128
28092,2.026040796,94256,6.797896242,0.526704255,7303,128,119730,8.635122613,9920,18302.73438,128
28671,2.067799219,93319,6.730318276,0.449750477,6236,128,120844,8.715466108,9984,18304.6875,128
27712,1.998634577,93889,6.771427604,0.590748261,8191,128,120351,8.679910145,10048,18306.64063,128
28208,2.034406905,93363,6.733491627,0.440807395,6112,128,119852,8.643921452,10112,18308.59375,128
32654,2.355059666,92842,6.695916259,0.362050576,5020,128,119705,8.633319573,10176,18310.54688,128
30975,2.233967451,92671,6.68358346,0.295626556,4099,128,119178,8.595311474,10240,18312.5,128
24807,1.789121245,92359,6.661081512,0.352602643,4889,128,119601,8.625818923,10304,18314.45313,128
28667,2.067510732,93075,6.712720598,0.475425777,6592,128,119576,8.624015882,10368,18316.40625,128
26560,1.91555046,92108,6.642978983,0.360536022,4999,128,119428,8.613341881,10432,18318.35938,128
28678,2.06830407,91718,6.614851548,0.516967835,7168,128,120018,8.655893642,10496,18320.3125,128
31841,2.296424782,93417,6.737386195,0.572862097,7943,128,120183,8.667793711,10560,18322.26563,128
384,0.027694705,90214,6.506380618,0.586132477,8127,128,119812,8.641036587,10624,18324.21875,128
2047,0.147632974,91799,6.6206934,0.450038964,6240,128,119376,8.609591557,10688,18326.17188,128
7196,0.518987241,87746,6.328384439,0.572357246,7936,128,120952,8.723255244,10752,18328.125,128
447,0.032238368,86189,6.216091063,0.553821987,7679,128,119176,8.595167231,10816,18330.07813,128
510,0.036782031,87491,6.309993423,0.310123004,4300,128,118889,8.574468324,10880,18332.03125,128
2063,0.14878692,86074,6.207797075,0.145108717,2012,128,119592,8.625169829,10944,18333.98438,128
696,0.050196654,77319,5.576372215,0.535142486,7420,128,119914,8.648392993,11008,18335.9375,128
16124,1.162889142,80119,5.778312776,0.368108793,5104,128,119492,8.617957666,11072,18337.89063,128
16129,1.163249751,79586,5.739871948,0.295410191,4096,128,118808,8.568626472,11136,18339.84375,128
4016,0.289640461,70435,5.079886923,0.450688058,6249,128,119683,8.631732897,11200,18341.79688,128
2047,0.147632974,75155,5.420301011,0.553966231,7681,128,120228,8.671039184,11264,18343.75,128
127,0.009159447,75409,5.438619904,0.573511192,7952,128,120348,8.67969378,11328,18345.70313,128
8516,0.614187791,76100,5.48845595,0.554110474,7683,128,120871,8.717413392,11392,18347.65625,128
31,0.00223577,70685,5.09791733,0.58670945,8135,128,121540,8.765662761,11456,18349.60938,128
2040,0.147128123,73465,5.298415458,0.031805638,441,128,118713,8.561774917,11520,18351.5625,128
4083,0.29447261,72691,5.242593317,0.084238062,1168,128,118163,8.522108021,11584,18353.51563,128
3009,0.217013981,68437,4.935787909,0.480546413,6663,128,119453,8.615144922,11648,18355.46875,128
7199,0.519203606,72861,5.254853994,0.45919841,6367,128,119514,8.619544342,11712,18357.42188,128
66559,4.80034349,71327,5.144219416,0.078324089,1086,128,117886,8.50213033,11776,18359.375,128
68496,4.940043085,68528,4.942350977,0.589017342,8167,128,119397,8.611106111,11840,18361.32813,128
66559,4.80034349,70098,5.055581934,1.181640766,16384,128,120405,8.683804713,11904,18363.28125,128
68999,4.976320264,68251,4.922373286,0.47867125,6637,128,119494,8.618101909,11968,18365.23438,128
68091,4.910833825,68454,4.937013976,0.552091068,7655,128,120499,8.690584146,12032,18367.1875,128
66547,4.79947803,69799,5.034017567,0.572789976,7942,128,120901,8.719577041,12096,18369.14063,128
66591,4.802651382,67917,4.898284662,0.444197112,6159,128,119399,8.611250354,12160,18371.09375,128
65920,4.754257769,69104,4.983893035,0.525622431,7288,128,120344,8.679405293,12224,18373.04688,128
69812,5.034955148,69076,4.981873629,0.59024341,8184,128,120094,8.661374886,12288,18375,128
69587,5.018727782,68145,4.914728393,0.298367178,4137,128,118438,8.541941469,12352,18376.95313,128
66748,4.813974478,67848,4.893308269,0.475425777,6592,128,119400,8.611322476,12416,18378.90625,128
67335,4.856309874,67004,4.832437614,0.295842921,4102,128,119534,8.620986774,12480,18380.85938,128
67578,4.873835429,68619,4.948914045,0.47996944,6655,128,119778,8.638584452,12544,18382.8125,128
69091,4.982955454,69091,4.982955454,0.572429368,7937,128,119833,8.642551141,12608,18384.76563,128
98304,7.089844595,67202,4.846717697,0.327720681,4544,128,119616,8.626900748,12672,18386.71875,128
99326,7.1635529,68134,4.913935055,0.59024341,8184,128,119664,8.630362586,12736,18388.67188,128
102279,7.37652807,68509,4.940980666,0.44765895,6207,128,119151,8.59336419,12800,18390.625,128
101041,7.287241493,68275,4.924104205,0.478743372,6638,128,119242,8.599927258,12864,18392.57813,128
100223,7.228246001,66891,4.82428787,0.102412713,1420,128,118028,8.512371601,12928,18394.53125,128
100320,7.235241799,67368,4.858689887,0.479464588,6648,128,119064,8.587089609,12992,18396.48438,128
102367,7.382874773,68567,4.94516372,0.524540606,7273,128,119241,8.599855137,13056,18398.4375,128
116224,8.382264183,69178,4.989230035,0.581588814,8064,128,119682,8.631660775,13120,18400.39063,128
116236,8.383129642,69357,5.002139807,0.519564214,7204,128,119844,8.643344479,13184,18402.34375,128
115712,8.345337909,68021,4.905785311,0.443548017,6150,128,119311,8.604903651,13248,18404.29688,128
115159,8.305454648,68446,4.936437003,0.477661547,6623,128,119324,8.605841232,13312,18406.25,128
117628,8.48352295,68378,4.931532732,0.478887615,6640,128,119461,8.615721895,13376,18408.20313,128
124032,8.94538986,68904,4.969468709,0.58627672,8129,128,119759,8.637214141,13440,18410.15625,128
126746,9.141127961,68571,4.945452207,0.55526442,7699,128,119601,8.625818923,13504,18412.10938,128
124672,8.991547703,68359,4.930162421,0.480257926,6659,128,119077,8.58802719,13568,18414.0625,128
130944,9.443894558,68304,4.926195732,0.443115287,6144,128,119116,8.590839933,13632,18416.01563,128
130760,9.430624179,68268,4.923599353,0.443331652,6147,128,119713,8.633896546,13696,18417.96875,128
129465,9.337226669,69208,4.991393684,0.558437772,7743,128,119486,8.617524936,13760,18419.92188,128
130116,9.38417785,69826,5.035964851,0.590748261,8191,128,119392,8.610745503,13824,18421.875,128
1,7.21E-05,69657,5.023776296,0.572068759,7932,128,119544,8.62170799,13888,18423.82813,128
1,7.21E-05,68781,4.960597749,0.590748261,8191,128,119999,8.654523331,13952,18425.78125,128
1536,0.110778822,68788,4.9611026,0.47996944,6655,128,119795,8.639810519,14016,18427.73438,128
3325,0.239804416,68781,4.960597749,0.519203606,7199,128,119831,8.642406898,14080,18429.6875,128
4044,0.291659867,67980,4.902828324,0.518121781,7184,128,120016,8.655749399,14144,18431.64063,128
1950,0.140637176,69054,4.980286953,0.535142486,7420,128,121068,8.731621353,14208,18433.59375,128
247,0.017814042,69604,5.019953849,0.517112078,7170,128,120970,8.724553433,14272,18435.54688,128
4080,0.294256245,68448,4.936581246,0.553894109,7680,128,120354,8.68012651,14336,18437.5,128
3840,0.276947054,68448,4.936581246,0.583824585,8095,128,120474,8.688781105,14400,18439.45313,128
508,0.036637787,68568,4.945235842,0.554038352,7682,128,120394,8.683011375,14464,18441.40625,128
1775,0.128015891,70519,5.08594514,0.590531896,8188,128,121858,8.788597439,14528,18443.35938,128
989,0.071328291,69261,4.995216131,1.183804415,16414,128,121287,8.747415989,14592,18445.3125,128
1599,0.115322484,67678,4.881047592,0.295410191,4096,128,120700,8.705080593,14656,18447.26563,128
3695,0.266489418,69785,5.033007864,0.589666437,8176,128,121128,8.73594865,14720,18449.21875,128
241,0.017381313,69381,5.003870726,0.518987241,7196,128,121415,8.756647558,14784,18451.17188,128
4064,0.293102299,67791,4.889197336,0.459270532,6368,128,121026,8.728592244,14848,18453.125,128
1276,0.092027198,68215,4.919776907,0.429267934,5952,128,120776,8.710561837,14912,18455.07813,128
3552,0.256176025,69511,5.013246538,0.528002444,7321,128,121813,8.785351966,14976,18457.03125,128
6275,0.452563221,69373,5.003293753,0.583752463,8094,128,121174,8.739266245,15040,18458.98438,128
55,0.00396669,68611,4.948337072,0.589450072,8173,128,120776,8.710561837,15104,18460.9375,128
134,0.009664298,68772,4.959948654,0.480041561,6656,128,121456,8.759604545,15168,18462.89063,128
4094,0.295265948,68822,4.963554736,0.475497899,6593,128,121173,8.739194124,15232,18464.84375,128
3853,0.277884636,69469,5.010217429,0.586204599,8128,128,121038,8.729457704,15296,18466.79688,128
8188,0.590531896,70252,5.066688665,0.590748261,8191,128,121661,8.774389478,15360,18468.75,128
3587,0.258700282,69147,4.986994265,0.563269921,7810,128,120458,8.687627159,15424,18470.70313,128
1017,0.073347696,68329,4.927998773,0.555552906,7703,128,120951,8.723183122,15488,18472.65625,128
124,0.008943082,67928,4.899077999,0.553966231,7681,128,120323,8.677890739,15552,18474.60938,128
3132,0.225884941,68849,4.96550202,0.567597218,7870,128,120498,8.690512024,15616,18476.5625,128
3587,0.258700282,69155,4.987571238,0.582165787,8072,128,120616,8.699022376,15680,18478.51563,128
304,0.021924975,68901,4.969252344,0.589666437,8176,128,120454,8.687338673,15744,18480.46875,128
4078,0.294112002,68588,4.946678274,0.589666437,8176,128,120144,8.664980968,15808,18482.42188,128
4096,0.295410191,70104,5.056014664,0.589882802,8179,128,121116,8.735083191,15872,18484.375,128
4072,0.293679272,68593,4.947038883,0.586420964,8131,128,120009,8.655244548,15936,18486.32813,128
3841,0.277019176,67689,4.88184093,0.425733975,5903,128,119851,8.64384933,16000,18488.28125,128
2048,0.147705096,68968,4.974084493,0.515741767,7151,128,119749,8.636492924,16064,18490.23438,128
3642,0.262666972,68182,4.917396893,0.479464588,6648,128,118826,8.569924661,16128,18492.1875,128
2941,0.21210971,68033,4.906650771,0.444341355,6161,128,119022,8.5840605,16192,18494.14063,128
2077,0.149796623,68934,4.971632358,0.445134693,6172,128,119804,8.640459614,16256,18496.09375,128
1,7.21E-05,69729,5.028969053,0.572645732,7940,128,120333,8.678611955,16320,18498.04688,128
3821,0.275576744,69353,5.00185132,0.513361754,7118,128,119644,8.628920153,16384,18500,128
3327,0.239948659,68855,4.965934749,0.479031858,6642,128,119154,8.593580555,16448,18501.95313,128
3588,0.258772404,68788,4.9611026,0.443115287,6144,128,119152,8.593436312,16512,18503.90625,128
1984,0.143089311,67219,4.847943765,0.296492016,4111,128,118924,8.576992581,16576,18505.85938,128
2,1.44E-04,68258,4.922878137,0.517112078,7170,128,119270,8.601946664,16640,18507.8125,128
104,0.007500649,69608,5.020242336,0.554975933,7695,128,119307,8.604615164,16704,18509.76563,128
1023,0.073780426,68606,4.947976464,0.450038964,6240,128,119361,8.608509732,16768,18511.71875,128
191,0.013775231,67507,4.868714794,0.147632974,2047,128,118726,8.562712498,16832,18513.67188,128
31,0.00223577,67802,4.889990674,0.273413095,3791,128,118426,8.541076009,16896,18515.625,128
517,0.037286882,68261,4.923094502,0.446649247,6193,128,118837,8.570717999,16960,18517.57813,128
1815,0.130900756,67349,4.857319576,0.221629765,3073,128,117761,8.493115126,17024,18519.53125,128
1592,0.114817633,68658,4.951726788,0.291010772,4035,128,118730,8.563000985,17088,18521.48438,128
3839,0.276874933,68834,4.964420195,0.278750095,3865,128,118523,8.548071807,17152,18523.4375,128
1854,0.1337135,70083,5.054500109,1.19952693,16632,128,120061,8.658994872,17216,18525.39063,128
511,0.036854152,67149,4.842895251,0.143522041,1990,128,117481,8.47292107,17280,18527.34375,128
849,0.061231263,68003,4.904487122,0.070246466,974,128,117995,8.509991587,17344,18529.29688,128
1515,0.109264268,69084,4.982450602,0.288486515,4000,128,118604,8.553913659,17408,18531.25,128
4090,0.294977462,67424,4.862728699,0.24045351,3334,128,117846,8.499245465,17472,18533.20313,128
3,2.16E-04,67163,4.843904953,0.072698602,1008,128,117546,8.477608976,17536,18535.15625,128
1983,0.14301719,67612,4.876287565,0.147560852,2046,128,118004,8.510640682,17600,18537.10938,128
2095,0.151094812,68073,4.909535636,0.286178623,3968,128,118289,8.531195346,17664,18539.0625,128
3871,0.279182825,67866,4.894606458,0.29533807,4095,128,118719,8.562207647,17728,18541.01563,128
3840,0.276947054,67913,4.897996175,0.221557644,3072,128,117826,8.497803032,17792,18542.96875,128
4079,0.294184124,67818,4.89114462,0.180015585,2496,128,117703,8.488932072,17856,18544.92188,128
966,0.069669493,66518,4.797386503,0.229851631,3187,128,117831,8.49816364,17920,18546.875,128
6147,0.443331652,69771,5.031998161,1.217413094,16880,128,119669,8.630723194,17984,18548.82813,128
1024,0.073852548,68748,4.958217735,0.277091298,3842,128,118558,8.550596064,18048,18550.78125,128
2040,0.147128123,68794,4.96153533,0.286178623,3968,128,118665,8.558313079,18112,18552.73438,128
511,0.036854152,66892,4.824359992,0.065702804,911,128,117438,8.46981984,18176,18554.6875,128
11,7.93E-04,68171,4.916603555,0.253940255,3521,128,118221,8.526291076,18240,18556.64063,128
382,0.027550462,67964,4.901674378,0.258483918,3584,128,117779,8.494413316,18304,18558.59375,128
1920,0.138473527,67496,4.867921456,0.221485522,3071,128,117719,8.490086018,18368,18560.54688,128
4035,0.291010772,68039,4.9070835,0.229851631,3187,128,118131,8.519800129,18432,18562.5,128
4046,0.29180411,69040,4.979277251,0.281490717,3903,128,118646,8.556942768,18496,18564.45313,128
2556,0.184342883,67361,4.858185036,0.258483918,3584,128,117711,8.489509045,18560,18566.40625,128
102,0.007356406,66418,4.79017434,6.49E-04,9,128,117206,8.453087622,18624,18568.35938,128
14,0.001009703,68053,4.908093203,0.184054397,2552,128,117236,8.455251271,18688,18570.3125,128
898,0.064765223,67078,4.837774615,0.156792421,2174,128,117829,8.498019397,18752,18572.26563,128
240,0.017309191,67151,4.843039494,0.152248758,2111,128,117549,8.477825341,18816,18574.21875,128
2031,0.146479028,67561,4.872609362,0.212181832,2942,128,117588,8.480638084,18880,18576.17188,128
63,0.004543663,67959,4.90131377,0.285962258,3965,128,117621,8.483018098,18944,18578.125,128
3587,0.258700282,68154,4.915377488,0.223793414,3103,128,117819,8.497298181,19008,18580.07813,128
995,0.071761021,67139,4.842174034,0.219754603,3047,128,117735,8.491239964,19072,18582.03125,128
1988,0.143377798,69589,5.018872025,1.324730077,18368,128,118721,8.56235189,19136,18583.98438,128
1792,0.129241959,69392,5.004664064,0.295049583,4091,128,118259,8.529031697,19200,18585.9375,128
3995,0.288125907,68243,4.921796313,0.266777905,3699,128,117491,8.473642286,19264,18587.89063,128
3456,0.249252349,68993,4.975887534,0.267138513,3704,128,117978,8.50876552,19328,18589.84375,128
4091,0.295049583,68539,4.943144315,0.203310872,2819,128,117515,8.475373206,19392,18591.79688,128
255,0.018391015,67753,4.886456714,0.182251356,2527,128,117151,8.449120933,19456,18593.75,128
1544,0.111355795,68680,4.953313464,0.256248147,3553,128,118049,8.513886155,19520,18595.70313,128
7839,0.565361448,69791,5.033440594,1.218494918,16895,128,119791,8.639522033,19584,18597.65625,128
4607,0.332264344,70095,5.055365569,1.189718388,16496,128,120180,8.667577346,19648,18599.60938,128
4336,0.312719382,69824,5.035820608,0.589666437,8176,128,121284,8.747199624,19712,18601.5625,128
80,0.00576973,70224,5.064669259,1.774696919,24607,128,123091,8.877523408,19776,18603.51563,128
1136,0.08193017,69699,5.026805404,1.792655205,24856,128,123181,8.884014354,19840,18605.46875,128
112,0.008077622,69640,5.022550228,0.5712033,7920,128,124147,8.953683848,19904,18607.42188,128
1592,0.114817633,71076,5.126116887,1.804627395,25022,128,126210,9.102470768,19968,18609.375,128
252,0.01817465,70236,5.065534719,1.110312475,15395,128,125904,9.080401549,20032,18611.32813,128
8185,0.590315532,68168,4.91638719,1.14464237,15871,128,125407,9.0445571,20096,18613.28125,128
3,2.16E-04,67714,4.883643971,1.121563449,15551,128,125103,9.022632125,20160,18615.23438,128
2847,0.205330277,68447,4.936509125,1.034440522,14343,128,127013,9.160384436,20224,18617.1875,128
63,0.004543663,68647,4.950933451,1.038407211,14398,128,127074,9.164783855,20288,18619.14063,128
16,0.001153946,66580,4.801858044,1.172337076,16255,128,126833,9.147402543,20352,18621.09375,128
1848,0.13328077,67368,4.858689887,0.958280082,13287,128,123598,8.914089073,20416,18623.04688,128
384,0.027694705,66949,4.828470925,0.589017342,8167,128,122342,8.823504308,20480,18625,128
58,0.004183054,65834,4.748055309,0.364719077,5057,128,120647,8.701258147,20544,18626.95313,128
32704,2.358665747,64466,4.649392921,0.006851555,95,128,118099,8.517492237,20608,18628.90625,128
27,0.001947284,65691,4.737741916,0.018463137,256,128,117056,8.442269378,20672,18630.85938,128
32767,2.36320941,65241,4.705287183,0.112798227,1564,128,116336,8.390341805,20736,18632.8125,128
32447,2.340130489,65194,4.701897466,0.029930476,415,128,114974,8.292112147,20800,18634.76563,128
31,0.00223577,66650,4.806906558,0.017237069,239,128,115369,8.32060019,20864,18636.71875,128
1145,0.082579265,66939,4.827749709,0.008943082,124,128,114796,8.279274497,20928,18638.67188,128
8,5.77E-04,66856,4.821763613,1.116947665,15487,128,114046,8.225183275,20992,18640.625,128
1,7.21E-05,67873,4.89511131,0.001586676,22,128,114228,8.238309412,21056,18642.57813,128
3968,0.286178623,67879,4.89554404,1.18048682,16368,128,114698,8.272206577,21120,18644.53125,128
1279,0.092243563,66393,4.788371299,5.05E-04,7,128,115131,8.303435243,21184,18646.48438,128
1552,0.111932768,67800,4.889846431,0.036854152,511,128,116088,8.372455641,21248,18648.4375,128
126,0.009087325,68716,4.955909843,1.182145617,16391,128,116669,8.414358308,21312,18650.39063,128
3591,0.258988769,67766,4.887394296,1.193108105,16543,128,116569,8.407146145,21376,18652.34375,128
1022,0.073708305,66550,4.799694395,7.21E-05,1,128,116225,8.382336304,21440,18654.29688,128
1017,0.073347696,67579,4.873907551,0.295121705,4092,128,117496,8.474002895,21504,18656.25,128
1951,0.140709298,66719,4.81188295,0.238073497,3301,128,117989,8.509558858,21568,18658.20313,128
2,1.44E-04,67654,4.879316673,0.274927649,3812,128,117484,8.473137435,21632,18660.15625,128
3967,0.286106501,67934,4.899510729,0.279182825,3871,128,118039,8.513164939,21696,18662.10938,128
4095,0.29533807,68629,4.949635261,0.294184124,4079,128,118223,8.526435319,21760,18664.0625,128
2048,0.147705096,68388,4.932253949,0.249252349,3456,128,118179,8.523261967,21824,18666.01563,128
4067,0.293318664,68418,4.934417598,0.542498892,7522,128,119106,8.590118717,21888,18667.96875,128
47,0.003389717,68267,4.923527232,0.527064863,7308,128,118924,8.576992581,21952,18669.92188,128
3072,0.221557644,68824,4.963698979,0.581588814,8064,128,119188,8.596032691,22016,18671.875,128
16,0.001153946,68306,4.926339975,0.507808388,7041,128,119303,8.604326678,22080,18673.82813,128
255,0.018391015,67763,4.887177931,0.291155015,4037,128,118741,8.563794322,22144,18675.78125,128
1792,0.129241959,68648,4.951005572,0.280408893,3888,128,118645,8.556870646,22208,18677.73438,128
1954,0.140925663,67106,4.839794021,0.004832149,67,128,116947,8.43440812,22272,18679.6875,128
2048,0.147705096,67604,4.875710592,0.45119291,6256,128,119008,8.583050797,22336,18681.64063,128
1925,0.138834135,68869,4.966944452,0.586637328,8134,128,119492,8.617957666,22400,18683.59375,128
248,0.017886164,68247,4.922084799,0.588512491,8160,128,118528,8.548432416,22464,18685.54688,128
3199,0.23071709,67519,4.869580253,0.29447261,4083,128,118289,8.531195346,22528,18687.5,128
32,0.002307892,67337,4.856454117,0.258556039,3585,128,118646,8.556942768,22592,18689.45313,128
126,0.009087325,67570,4.873258456,0.278101001,3856,128,118546,8.549730605,22656,18691.40625,128
2161,0.15585484,67669,4.880398498,0.29490534,4089,128,118169,8.522540751,22720,18693.35938,128
192,0.013847353,68053,4.908093203,0.524973336,7279,128,119151,8.59336419,22784,18695.3125,128
4031,0.290722286,68670,4.952592248,0.55836565,7742,128,119342,8.607139421,22848,18697.26563,128
2498,0.180159829,68418,4.934417598,0.531824891,7374,128,119246,8.600215745,22912,18699.21875,128
963,0.069453129,68171,4.916603555,0.286683474,3975,128,118701,8.560909457,22976,18701.17188,128
7406,0.534132783,70126,5.05760134,1.255421192,17407,128,120671,8.702989066,23040,18703.125,128
7680,0.553894109,70196,5.062649854,0.58937795,8172,128,119976,8.652864534,23104,18705.07813,128
7,5.05E-04,66540,4.798973179,0.019544961,271,128,117053,8.442053013,23168,18707.03125,128
1030,0.074285278,66758,4.814695694,0.067361601,934,128,117678,8.487129031,23232,18708.98438,128
159,0.011467339,68247,4.922084799,0.29533807,4095,128,118006,8.510784925,23296,18710.9375,128
2046,0.147560852,67544,4.871383294,0.290866529,4033,128,118531,8.54864878,23360,18712.89063,128
4094,0.295265948,68054,4.908165325,0.291876232,4047,128,118414,8.54021055,23424,18714.84375,128
2079,0.149940866,67731,4.884870039,0.290722286,4031,128,118191,8.524127427,23488,18716.79688,128
1039,0.074934372,66991,4.831500033,0.147632974,2047,128,118364,8.536604468,23552,18718.75,128
1760,0.126934067,67299,4.853713495,0.291876232,4047,128,118537,8.54908151,23616,18720.70313,128
4088,0.294833218,68400,4.933119408,0.572357246,7936,128,119052,8.586224149,23680,18722.65625,128
271,0.019544961,68822,4.963554736,0.553821987,7679,128,119039,8.585286568,23744,18724.60938,128
4095,0.29533807,68967,4.974012372,0.590748261,8191,128,118843,8.571150729,23808,18726.5625,128
384,0.027694705,69082,4.982306359,1.185391091,16436,128,119172,8.594878744,23872,18728.51563,128
51,0.003678203,67122,4.840947967,0.128809229,1786,128,118522,8.547999686,23936,18730.46875,128
283,0.020410421,67859,4.894101607,0.461506303,6399,128,118974,8.580598662,24000,18732.42188,128
2047,0.147632974,67547,4.871599659,0.443548017,6150,128,118806,8.568482228,24064,18734.375,128
1656,0.119433417,67184,4.845419508,0.286178623,3968,128,118582,8.552326983,24128,18736.32813,128
1008,0.072698602,68513,4.941269152,0.55216319,7656,128,119243,8.59999938,24192,18738.28125,128
127,0.009159447,67702,4.882778511,0.291876232,4047,128,118751,8.564515539,24256,18740.23438,128
2,1.44E-04,68398,4.932975165,0.531320039,7367,128,119007,8.582978676,24320,18742.1875,128
3584,0.258483918,68713,4.955693478,0.555336542,7700,128,119381,8.609952165,24384,18744.14063,128
960,0.069236764,68294,4.925474516,0.513722362,7123,128,119378,8.6097358,24448,18746.09375,128
1023,0.073780426,68318,4.927205435,0.289640461,4016,128,118704,8.561125822,24512,18748.04688,128
1784,0.128664986,69304,4.998317361,0.590315532,8185,128,120921,8.721019473,24576,18750,128
3903,0.281490717,68918,4.970478412,0.588728856,8163,128,120674,8.703205431,24640,18751.95313,128
3320,0.239443808,69104,4.983893035,0.562909313,7805,128,119933,8.649763304,24704,18753.90625,128
1022,0.073708305,69562,5.016924741,0.583752463,8094,128,120212,8.669885238,24768,18755.85938,128
6,4.33E-04,69158,4.987787603,0.590748261,8191,128,120811,8.713086094,24832,18757.8125,128
608,0.04384995,70379,5.075848112,1.210489417,16784,128,121264,8.745757192,24896,18759.76563,128
508,0.036637787,69096,4.983316062,0.479464588,6648,128,121113,8.734866826,24960,18761.71875,128
7680,0.553894109,70144,5.058899529,0.583896707,8096,128,121253,8.744963854,25024,18763.67188,128
576,0.041542058,70858,5.110394372,1.183948658,16416,128,122202,8.81340728,25088,18765.625,128
8064,0.581588814,71328,5.144291537,1.772461149,24576,128,122962,8.868219718,25152,18767.57813,128
15,0.001081824,70299,5.070078381,0.521295133,7228,128,121980,8.797396278,25216,18769.53125,128
996,0.071833142,70148,5.059188015,0.58981068,8178,128,121746,8.780519817,25280,18771.48438,128
3083,0.222350982,68874,4.96730506,0.443043166,6143,128,120745,8.708326067,25344,18773.4375,128
4088,0.294833218,68986,4.975382683,0.48177248,6680,128,121434,8.758017869,25408,18775.39063,128
751,0.054163343,70313,5.071088084,0.562765069,7803,128,121946,8.794944143,25472,18777.34375,128
95,0.006851555,69854,5.037984257,0.558509893,7744,128,121428,8.757585139,25536,18779.29688,128
64,0.004615784,69836,5.036686067,0.516895713,7167,128,121566,8.767537924,25600,18781.25,128
2960,0.213480021,68496,4.940043085,0.443620139,6151,128,120863,8.716836419,25664,18783.20313,128
1921,0.138545649,71349,5.145806092,1.255421192,17407,128,122841,8.859493,25728,18785.15625,128
4114,0.296708381,70166,5.060486205,0.519203606,7199,128,121917,8.792852615,25792,18787.10938,128
4090,0.294977462,69626,5.021540525,0.516895713,7167,128,121726,8.779077384,25856,18789.0625,128
7807,0.563053556,70339,5.072963246,0.59024341,8184,128,122585,8.841029863,25920,18791.01563,128
6344,0.457539613,70360,5.074477801,0.589666437,8176,128,122611,8.842905026,25984,18792.96875,128
1148,0.08279563,70753,5.102821601,1.163249751,16129,128,123181,8.884014354,26048,18794.92188,128
144,0.010385515,69781,5.032719378,0.586637328,8134,128,122326,8.822350362,26112,18796.875,128
6340,0.457251126,71877,5.183886312,1.829869965,25372,128,123768,8.92634975,26176,18798.82813,128
4155,0.299665368,70002,5.048658258,0.508241118,7047,128,121654,8.773884627,26240,18800.78125,128
4192,0.302333868,70243,5.06603957,0.582093666,8071,128,122789,8.855742676,26304,18802.73438,128
5917,0.426743677,70941,5.116380467,0.587070058,8140,128,122844,8.859709365,26368,18804.6875,128
5072,0.365800901,70544,5.08774818,0.590748261,8191,128,122811,8.857329352,26432,18806.64063,128
4380,0.315892734,70460,5.081689964,1.123943463,15584,128,123369,8.89757322,26496,18808.59375,128
831,0.059933074,70439,5.080175409,0.590459775,8187,128,122746,8.852641446,26560,18810.54688,128
127,0.009159447,70388,5.076497206,0.517472686,7175,128,122151,8.809729077,26624,18812.5,128
1279,0.092243563,71077,5.126189008,1.17471709,16288,128,123302,8.892741071,26688,18814.45313,128
6236,0.449750477,72273,5.212446477,1.77649996,24632,128,124089,8.949500793,26752,18816.40625,128
3576,0.257906945,72130,5.202133084,1.787390326,24783,128,124312,8.965583916,26816,18818.35938,128
8191,0.590748261,70498,5.084430585,1.107499731,15356,128,123901,8.935941927,26880,18820.3125,128
4111,0.296492016,70574,5.089911829,1.099422109,15244,128,123759,8.925700656,26944,18822.26563,128
5705,0.411453892,71241,5.138016956,1.179477117,16354,128,123746,8.924763074,27008,18824.21875,128
393,0.0283438,72489,5.228024748,1.773615095,24592,128,124594,8.985922216,27072,18826.17188,128
393,0.0283438,71362,5.146743673,1.773615095,24592,128,124690,8.992845892,27136,18828.125,128
7793,0.562043853,71239,5.137872712,1.070717701,14846,128,123338,8.89533745,27200,18830.07813,128
7308,0.527064863,70796,5.105922831,1.052254564,14590,128,123354,8.896491396,27264,18832.03125,128
6176,0.445423179,70184,5.061784394,1.051893956,14585,128,123056,8.874999151,27328,18833.98438,128
7183,0.518049659,69999,5.048441893,1.034152035,14339,128,123058,8.875143394,27392,18835.9375,128
7183,0.518049659,70451,5.081040869,1.034152035,14339,128,122513,8.835837106,27456,18837.89063,128
1944,0.140204446,71481,5.155326147,1.174500725,16285,128,123801,8.928729764,27520,18839.84375,128
5115,0.368902131,70651,5.095465195,0.59024341,8184,128,122866,8.861296041,27584,18841.79688,128
7939,0.572573611,71438,5.152224916,1.152070898,15974,128,123110,8.878893719,27648,18843.75,128
4221,0.304425395,70269,5.067914732,0.590748261,8191,128,122388,8.826821903,27712,18845.70313,128
124,0.008943082,70628,5.093806397,1.034152035,14339,128,122891,8.863099082,27776,18847.65625,128
14,0.001009703,70798,5.106067074,1.116947665,15487,128,123255,8.889351355,27840,18849.60938,128
7807,0.563053556,70782,5.104913128,0.563630529,7815,128,122534,8.83735166,27904,18851.5625,128
8162,0.588656734,71438,5.152224916,1.153873939,15999,128,123134,8.880624638,27968,18853.51563,128
4095,0.29533807,70242,5.065967448,0.590748261,8191,128,122302,8.820619443,28032,18855.46875,128
-1965808,-141.7772748,-1441520,-103.9647703,0.018391015,255,29,475,0.034257774,28096,18857.42188,0
252,0.01817465,472,0.034041409,0,0,144,3260416,235.1465124,28160,18859.375,128
0,0,1,7.21E-05,0,0,142,915648,66.03802515,28224,18861.32813,128
24573,1.772244784,120921,8.721019473,0,0,2,-4194304,-302.5000361,28288,18863.28125,128
196608,14.17968919,120921,8.721019473,0.553894109,7680,2,-4194304,-302.5000361,28352,18865.23438,0
1,7.21E-05,1,7.21E-05,0.013847353,192,148,1204416,86.86444364,28416,18867.1875,0
192,0.013847353,1,7.21E-05,1.032781724,14320,148,1204416,86.86444364,28480,18869.14063,128
131072,9.453126127,69405,5.005601645,1.098989379,15238,128,120767,8.709912742,28544,18871.09375,128
16384,1.181640766,-3686400,-265.8691723,7.21E-05,1,0,-720627,-51.97279298,28608,18873.04688,0
224,0.016155245,68676,4.953024978,0.514587821,7135,128,119706,8.633391694,28672,18875,128
0,0,68524,4.94206249,0.527281228,7311,128,119836,8.642767506,28736,18876.95313,128
896,0.064620979,68584,4.946389788,0.471747574,6541,128,119586,8.624737099,28800,18878.90625,128
3584,0.258483918,69639,5.022478106,0.530815188,7360,128,120380,8.682001672,28864,18880.85938,128
3890,0.280553136,68746,4.958073492,0.590315532,8185,128,119354,8.608004881,28928,18882.8125,128
3720,0.268292459,68344,4.929080597,0.445351058,6175,128,118757,8.564948269,28992,18884.76563,128
13,9.38E-04,70045,5.051759488,0.587286423,8143,128,120143,8.664908846,29056,18886.71875,128
7681,0.553966231,70231,5.065174111,0.590748261,8191,128,119527,8.620481923,29120,18888.67188,128
1,7.21E-05,69436,5.007837416,0.589666437,8176,128,119459,8.615577652,29184,18890.625,128
3872,0.279254947,69419,5.006611348,0.553894109,7680,128,119532,8.620842531,29248,18892.57813,128
3873,0.279327068,67034,4.834601263,0.295915043,4103,128,118969,8.580238054,29312,18894.53125,128
0,0,67900,4.897058594,0.260214837,3608,128,118451,8.54287905,29376,18896.48438,128
63,0.004543663,69324,4.999759793,0.553966231,7681,128,119043,8.585575054,29440,18898.4375,128
96,0.006923676,69389,5.004447699,0.554110474,7683,128,119553,8.622357085,29504,18900.39063,128
4071,0.293607151,68898,4.969035979,0.526127282,7295,128,120036,8.657191832,29568,18902.34375,128
1969,0.142007487,67039,4.834961872,0.312647261,4335,128,118341,8.534945671,29632,18904.29688,128
4063,0.293030178,67898,4.896914351,0.451048666,6254,128,119099,8.589613866,29696,18906.25,128
0,0,66736,4.813109018,0.130323783,1807,128,117787,8.494990289,29760,18908.20313,128
1,7.21E-05,69439,5.008053781,1.202339673,16671,128,119813,8.641108709,29824,18910.15625,128
248,0.017886164,69222,4.992403387,0.590459775,8187,128,120159,8.666062792,29888,18912.10938,128
7,5.05E-04,69144,4.9867779,0.572285124,7935,128,119945,8.650628764,29952,18914.0625,128
2041,0.147200244,66586,4.802290774,0.1107067,1535,128,117293,8.459362204,30016,18916.01563,128
1539,0.110995187,67711,4.883427606,0.267643364,3711,128,119069,8.587450217,30080,18917.96875,128
4081,0.294328367,69118,4.984902738,1.18272259,16399,128,119810,8.640892344,30144,18919.92188,128
4,2.88E-04,67844,4.893019783,0.290866529,4033,128,118217,8.526002589,30208,18921.875,128
3983,0.287260447,69002,4.976536629,1.190583848,16508,128,119508,8.619111612,30272,18923.82813,128
1587,0.114457025,68498,4.940187328,0.58627672,8129,128,118768,8.565741606,30336,18925.78125,128
519,0.037431125,67108,4.839938264,0.258483918,3584,128,118326,8.533863847,30400,18927.73438,128
1799,0.12974681,68569,4.945307964,0.29490534,4089,128,119359,8.608365489,30464,18929.6875,128
14,0.001009703,70021,5.050028569,1.237030177,17152,128,120674,8.703205431,30528,18931.64063,128
3609,0.260286958,68417,4.934345476,0.5171842,7171,128,119129,8.591777514,30592,18933.59375,128
1983,0.14301719,67226,4.848448616,0.147632974,2047,128,118931,8.577497432,30656,18935.54688,128
2022,0.145829933,67871,4.894967067,0.443331652,6147,128,118822,8.569636174,30720,18937.5,128
1024,0.073852548,68311,4.926700583,0.581588814,8064,128,119991,8.653946358,30784,18939.45313,128
1956,0.141069906,67655,4.879388795,0.507808388,7041,128,119664,8.630362586,30848,18941.40625,128
120,0.008654595,68411,4.933912746,0.589666437,8176,128,119656,8.629785613,30912,18943.35938,128
1020,0.073564061,69211,4.991610049,0.590748261,8191,128,119904,8.647671777,30976,18945.3125,128
1007,0.07262648,68442,4.936148517,0.552956528,7667,128,119610,8.626468018,31040,18947.26563,128
36,0.002596379,68098,4.911338676,0.29533807,4095,128,118881,8.57389135,31104,18949.21875,128
8,5.77E-04,67529,4.87030147,0.443331652,6147,128,119194,8.59646542,31168,18951.17188,128
4095,0.29533807,69245,4.994062185,1.181640766,16384,128,120666,8.702628458,31232,18953.125,128
96,0.006923676,68199,4.918622961,0.521006646,7224,128,119703,8.633175329,31296,18955.07813,128
911,0.065702804,67319,4.855155928,0.452346856,6272,128,118863,8.572593161,31360,18957.03125,128
1916,0.138185041,67453,4.864820226,0.447514707,6205,128,118829,8.570141026,31424,18958.98438,128
383,0.027622584,68466,4.937879436,0.531608526,7371,128,120011,8.655388791,31488,18960.9375,128
3855,0.278028879,67901,4.897130716,0.59024341,8184,128,119928,8.649402696,31552,18962.89063,128
496,0.035772328,69079,4.982089994,0.586204599,8128,128,120043,8.657696683,31616,18964.84375,128
192,0.013847353,69756,5.030916337,1.19022324,16503,128,120091,8.661158521,31680,18966.79688,128
3600,0.259637864,68971,4.974300858,0.558149285,7739,128,120298,8.676087698,31744,18968.75,128
1540,0.111067308,69749,5.030411485,1.186328672,16449,128,120664,8.702484215,31808,18970.70313,128
270,0.01947284,68661,4.951943153,0.518698754,7192,128,119646,8.629064397,31872,18972.65625,128
3126,0.225452212,67676,4.880903349,0.297429597,4124,128,119107,8.590190839,31936,18974.60938,128
4032,0.290794407,67198,4.84642921,0.350871724,4865,128,118910,8.575982878,32000,18976.5625,128
127,0.009159447,69553,5.016275646,0.589594315,8175,128,120761,8.709480013,32064,18978.51563,128
1023,0.073780426,67508,4.868786915,0.535575215,7426,128,119073,8.587738703,32128,18980.46875,128
31,0.00223577,67990,4.90354954,0.444197112,6159,128,119368,8.609014584,32192,18982.42188,128
14,0.001009703,67863,4.894390094,0.51631874,7159,128,119236,8.599494529,32256,18984.375,128
12,8.65E-04,68507,4.940836423,0.589882802,8179,128,120286,8.675222239,32320,18986.32813,128
1152,0.083084116,68073,4.909535636,0.553966231,7681,128,119823,8.641829925,32384,18988.28125,128
2040,0.147128123,68995,4.976031777,0.588584612,8161,128,120581,8.696498119,32448,18990.23438,128
254,0.018318894,67318,4.855083806,0.528074566,7322,128,119484,8.617380693,32512,18992.1875,128
905,0.065270074,67684,4.881480322,0.461073573,6393,128,118923,8.576920459,32576,18994.14063,128
111,0.008005501,67935,4.899582851,0.512784781,7110,128,119872,8.645363885,32640,18996.09375,128
255,0.018391015,67819,4.891216742,0.489056765,6781,128,119413,8.612260057,32704,18998.04688,128
511,0.036854152,68051,4.90794896,0.582598517,8078,128,119706,8.633391694,32768,19000,128
2063,0.14878692,67597,4.87520574,0.443331652,6147,128,118867,8.572881648,32832,19001.95313,128
3,2.16E-04,69866,5.038849716,1.329850713,18439,128,121351,8.752031774,32896,19003.90625,128
776,0.055966384,70747,5.102388871,1.30136267,18044,128,121478,8.76119122,32960,19005.85938,128
639,0.046085721,68749,4.958289857,0.572357246,7936,128,119086,8.588676284,33024,19007.8125,128
1028,0.074141034,68788,4.9611026,0.570049354,7904,128,119873,8.645436006,33088,19009.76563,128
588,0.042407518,66727,4.812459923,0.364791198,5058,128,118896,8.574973175,33152,19011.71875,128
224,0.016155245,66683,4.809286572,0.295410191,4096,128,118918,8.576559851,33216,19013.67188,128
307,0.02214134,66933,4.827316979,0.456025059,6323,128,119283,8.602884245,33280,19015.625,128
768,0.055389411,66232,4.776759717,0.304569638,4223,128,118886,8.574251959,33344,19017.57813,128
1631,0.117630377,68462,4.937590949,0.581083963,8057,128,120099,8.661735494,33408,19019.53125,128
2304,0.166168233,68060,4.908598054,0.555625028,7704,128,119603,8.625963166,33472,19021.48438,128
998,0.071977386,67395,4.860637171,0.469006952,6503,128,118960,8.579588959,33536,19023.4375,128
123,0.00887096,68291,4.925258151,0.563053556,7807,128,119621,8.627261356,33600,19025.39063,128
1022,0.073708305,68400,4.933119408,0.588728856,8163,128,119276,8.602379394,33664,19027.34375,128
511,0.036854152,67850,4.893452512,0.517039957,7169,128,119228,8.598917556,33728,19029.29688,128
443,0.031949882,67991,4.903621662,0.572429368,7937,128,119449,8.614856436,33792,19031.25,128
4091,0.295049583,67621,4.876936659,0.555769271,7706,128,119425,8.613125517,33856,19033.20313,128
508,0.036637787,65794,4.745170444,0.144820231,2008,128,118274,8.530113522,33920,19035.15625,128
3,2.16E-04,66219,4.775822136,0.263171823,3649,128,118465,8.543888753,33984,19037.10938,128
950,0.068515547,68278,4.92432057,0.563053556,7807,128,119385,8.610240651,34048,19039.0625,128
287,0.020698907,67419,4.86236809,0.51761693,7177,128,118985,8.581392,34112,19041.01563,128
572,0.041253572,67308,4.85436259,0.461506303,6399,128,119019,8.583844135,34176,19042.96875,128
6,4.33E-04,68548,4.943793409,1.199022078,16625,128,119953,8.651205737,34240,19044.92188,128
1249,0.090079914,68879,4.967665668,1.218494918,16895,128,119764,8.637574749,34304,19046.875,128
247,0.017814042,69108,4.984181521,1.182650469,16398,128,120298,8.676087698,34368,19048.82813,128
4039,0.291299259,68609,4.948192829,0.588079761,8154,128,120095,8.661447008,34432,19050.78125,128
2510,0.181025288,67881,4.895688283,0.518049659,7183,128,119418,8.612620665,34496,19052.73438,128
481,0.034690503,67643,4.878523335,0.47557002,6594,128,118827,8.569996783,34560,19054.6875,128
1984,0.143089311,66151,4.770917865,0.147416609,2044,128,118141,8.520521345,34624,19056.64063,128
1999,0.144171136,69088,4.982739089,1.188708685,16482,128,120955,8.723471609,34688,19058.59375,128
3584,0.258483918,68099,4.911410798,0.590748261,8191,128,119438,8.614063098,34752,19060.54688,128
799,0.057625181,67314,4.854795319,0.453212315,6284,128,119116,8.590839933,34816,19062.5,128
2847,0.205330277,69350,5.001634956,1.182650469,16398,128,120719,8.706450904,34880,19064.45313,128
3104,0.223865536,68551,4.944009774,0.556202001,7712,128,119188,8.596032691,34944,19066.40625,128
3066,0.221124914,68471,4.938240044,0.561683245,7788,128,119412,8.612187935,35008,19068.35938,128
129,0.00930369,67426,4.862872942,0.443331652,6147,128,118998,8.582329581,35072,19070.3125,128
49,0.00353396,67787,4.88890885,0.519275727,7200,128,118989,8.581680486,35136,19072.26563,128
1585,0.114312782,67105,4.839721899,0.143089311,1984,128,118656,8.557663984,35200,19074.21875,128
32671,2.356285734,65307,4.71004721,0.064620979,896,128,117380,8.465636786,35264,19076.17188,128
209,0.01507342,67219,4.847943765,0.589882802,8179,128,119734,8.6354111,35328,19078.125,128
4065,0.293174421,67683,4.8814082,0.558509893,7744,128,119501,8.61860676,35392,19080.07813,128
1148,0.08279563,68729,4.956847424,0.568246313,7879,128,119445,8.614567949,35456,19082.03125,128
1928,0.1390505,67512,4.869075402,0.5198527,7208,128,118891,8.574612567,35520,19083.98438,128
2241,0.16162457,68978,4.97480571,1.181640766,16384,128,119475,8.616731598,35584,19085.9375,128
4046,0.29180411,68271,4.923815718,0.572429368,7937,128,119444,8.614495827,35648,19087.89063,128
2035,0.146767515,67677,4.880975471,0.446577125,6192,128,118815,8.569131323,35712,19089.84375,128
25,0.001803041,67417,4.862223847,0.477805791,6625,128,118408,8.53977782,35776,19091.79688,128
195,0.014063718,66474,4.794213151,0.129458324,1795,128,118866,8.572809526,35840,19093.75,128
1,7.21E-05,66369,4.78664038,0.445351058,6175,128,118653,8.557447619,35904,19095.70313,128
255,0.018391015,66099,4.76716754,0.14655115,2032,128,118151,8.521242561,35968,19097.65625,128
63,0.004543663,66993,4.831644277,0.259349377,3596,128,118547,8.549802726,36032,19099.60938,128
7,5.05E-04,67123,4.841020088,0.443187409,6145,128,119060,8.586801122,36096,19101.5625,128
120,0.008654595,66554,4.799982882,0.443115287,6144,128,118569,8.551389402,36160,19103.51563,128
1803,0.130035297,67716,4.883788214,0.28603438,3966,128,118952,8.579011986,36224,19105.46875,128
159,0.011467339,67448,4.864459618,0.589666437,8176,128,119218,8.598196339,36288,19107.42188,128
48,0.003461838,66822,4.819311478,0.293102299,4064,128,118479,8.544898456,36352,19109.375,128
31,0.00223577,67178,4.844986778,0.274494919,3806,128,118520,8.547855443,36416,19111.32813,128
287,0.020698907,67391,4.860348685,0.294256245,4080,128,118736,8.563433714,36480,19113.28125,128
3072,0.221557644,67894,4.896625864,0.584906409,8110,128,119214,8.597907853,36544,19115.23438,128
94,0.006779433,65752,4.742141335,0.147632974,2047,128,118439,8.542013591,36608,19117.1875,128
1023,0.073780426,66495,4.795727705,0.272836122,3783,128,118479,8.544898456,36672,19119.14063,128
120,0.008654595,65617,4.732404915,0.225019482,3120,128,117874,8.50126487,36736,19121.09375,128
201,0.014496447,66249,4.777985785,0.217158224,3011,128,117703,8.488932072,36800,19123.04688,128
1763,0.127150432,67299,4.853713495,1.219144013,16904,128,119433,8.61370249,36864,19125,128
15,0.001081824,68249,4.922229042,1.189574145,16494,128,119613,8.626684383,36928,19126.95313,128
1,7.21E-05,66356,4.785702799,0.295049583,4091,128,118131,8.519800129,36992,19128.90625,128
1982,0.142945068,68294,4.925474516,1.198877835,16623,128,120165,8.666495522,37056,19130.85938,128
287,0.020698907,66838,4.820465424,0.525910917,7292,128,119084,8.588532041,37120,19132.8125,128
0,0,67456,4.865036591,0.278028879,3855,128,118939,8.578074405,37184,19134.76563,128
1792,0.129241959,66425,4.790679191,0.44765895,6207,128,118351,8.535666887,37248,19136.71875,128
255,0.018391015,67043,4.835250358,0.521655741,7233,128,118919,8.576631972,37312,19138.67188,128
1014,0.073131332,67224,4.848304373,0.249468714,3459,128,118998,8.582329581,37376,19140.625,128
2017,0.145469325,66854,4.82161937,0.534349148,7409,128,118824,8.569780418,37440,19142.57813,128
415,0.029930476,67838,4.892587053,0.581516693,8063,128,119414,8.612332179,37504,19144.53125,128
2128,0.153474826,68398,4.932975165,1.214023377,16833,128,119509,8.619183733,37568,19146.48438,128
3615,0.260719688,69171,4.988725184,1.31109909,18179,128,121337,8.751022071,37632,19148.4375,128
2041,0.147200244,67545,4.871455416,0.350799602,4864,128,119578,8.624160126,37696,19150.39063,128
28,0.002019406,65693,4.737886159,0.148282069,2056,128,117290,8.459145839,37760,19152.34375,128
254,0.018318894,66730,4.812676288,0.260647566,3614,128,118426,8.541076009,37824,19154.29688,128
1537,0.110850943,67209,4.847222548,0.460424478,6384,128,118929,8.577353189,37888,19156.25,128
32515,2.34503476,65063,4.692449533,0.073708305,1022,128,117618,8.482801733,37952,19158.20313,128
1527,0.110129727,66900,4.824936965,1.255132706,17403,128,119667,8.630578951,38016,19160.15625,128
124,0.008943082,67933,4.899438608,0.574448773,7965,128,120349,8.679765902,38080,19162.10938,128
1983,0.14301719,67375,4.859194739,0.558726258,7747,128,119387,8.610384895,38144,19164.0625,128
31,0.00223577,67231,4.848809224,0.55439896,7687,128,119358,8.608293367,38208,19166.01563,128
1537,0.110850943,67008,4.832726101,0.516967835,7168,128,120093,8.661302765,38272,19167.96875,128
1472,0.106163038,67393,4.860492928,0.555985636,7709,128,119844,8.643344479,38336,19169.92188,128
1792,0.129241959,67603,4.87563847,0.582598517,8078,128,120316,8.677385888,38400,19171.875,128
881,0.063539155,67697,4.882417903,1.195488119,16576,128,120311,8.67702528,38464,19173.82813,128
745,0.053730613,66272,4.779644582,0.479753075,6652,128,119403,8.611538841,38528,19175.78125,128
12,8.65E-04,65624,4.732909767,0.452058369,6268,128,118838,8.57079012,38592,19177.73438,128
3,2.16E-04,66114,4.768249365,0.443331652,6147,128,119371,8.609230949,38656,19179.6875,128
126,0.009087325,66183,4.773225757,0.51631874,7159,128,119908,8.647960263,38720,19181.64063,128
255,0.018391015,66601,4.803372598,0.525910917,7292,128,120123,8.663466413,38784,19183.59375,128
1945,0.140276568,67616,4.876576051,1.181857131,16387,128,120556,8.694695079,38848,19185.54688,128
2048,0.147705096,67989,4.903477419,1.237535028,17159,128,120521,8.692170822,38912,19187.5,128
7,5.05E-04,67591,4.874773011,0.590748261,8191,128,120557,8.6947672,38976,19189.45313,128
896,0.064620979,67460,4.865325077,0.557355947,7728,128,121074,8.732054082,39040,19191.40625,128
120,0.008654595,67803,4.890062796,0.590748261,8191,128,120735,8.70760485,39104,19193.35938,128
2254,0.162562151,67726,4.88450943,0.576396057,7992,128,120618,8.69916662,39168,19195.3125,128
124,0.008943082,65893,4.752310485,0.574881503,7971,128,120362,8.680703483,39232,19197.26563,128
3087,0.222639468,67644,4.878595457,1.255060584,17402,128,120818,8.713590945,39296,19199.21875,128
2175,0.156864543,67679,4.881119714,0.572357246,7936,128,120179,8.667505225,39360,19201.17188,128
1795,0.129458324,67334,4.856237752,0.586204599,8128,128,120386,8.682434402,39424,19203.125,128
0,0,66709,4.811161734,0.554975933,7695,128,119919,8.648753601,39488,19205.07813,128
3135,0.226101306,68481,4.93896126,1.183443807,16409,128,120251,8.672697982,39552,19207.03125,128
4039,0.291299259,68521,4.941846125,1.210345174,16782,128,120906,8.719937649,39616,19208.98438,128
3129,0.225668576,67815,4.890928255,0.562981434,7806,128,119976,8.652864534,39680,19210.9375,128
128,0.009231568,67643,4.878523335,0.589882802,8179,128,119790,8.639449911,39744,19212.89063,128
775,0.055894262,67946,4.900376189,0.572717854,7941,128,119860,8.644498425,39808,19214.84375,128
252,0.01817465,66331,4.783899758,0.500740469,6943,128,119334,8.606562448,39872,19216.79688,128
32721,2.359891815,65593,4.730673996,0.313296355,4344,128,119021,8.583988379,39936,19218.75,128
761,0.054884559,67204,4.84686194,0.294328367,4081,128,118633,8.556005187,40000,19220.70313,128
2449,0.176625869,68108,4.912059893,1.245035678,17263,128,119559,8.622789815,40064,19222.65625,128
926,0.066784628,67289,4.852992279,0.553317136,7672,128,119501,8.61860676,40128,19224.60938,128
1565,0.112870349,67962,4.901530135,0.582670639,8079,128,119167,8.594518136,40192,19226.5625,128
2559,0.184559248,67959,4.90131377,0.553894109,7680,128,118784,8.566895553,40256,19228.51563,128
2048,0.147705096,67724,4.884365187,0.58360822,8092,128,119060,8.586801122,40320,19230.46875,128
1056,0.07616044,66669,4.808276869,0.45919841,6367,128,118943,8.578362891,40384,19232.42188,128
515,0.037142639,66067,4.764859648,0.177707693,2464,128,117665,8.48619145,40448,19234.375,128
1548,0.111644281,67293,4.853280765,0.276947054,3840,128,118274,8.530113522,40512,19236.32813,128
2052,0.147993582,67765,4.887322174,0.28827015,3997,128,118293,8.531483833,40576,19238.28125,128
961,0.069308885,66261,4.778851244,0.175904653,2439,128,117526,8.476166544,40640,19240.23438,128
98,0.00706792,66114,4.768249365,0.276802811,3838,128,118008,8.510929169,40704,19242.1875,128
15,0.001081824,66638,4.806041098,0.244275957,3387,128,118059,8.514607372,40768,19244.14063,128
510,0.036782031,67288,4.852920157,0.259637864,3600,128,117721,8.490230261,40832,19246.09375,128
96,0.006923676,67912,4.897924053,1.21899977,16902,128,118751,8.564515539,40896,19248.04688,128
639,0.046085721,65774,4.743728011,0.226966766,3147,128,117405,8.467439826,40960,19250,128
398,0.028704408,67447,4.864387496,0.286394988,3971,128,118314,8.532998387,41024,19251.95313,128
1984,0.143089311,65751,4.742069214,0.263099702,3648,128,116911,8.431811742,41088,19253.90625,128
144,0.010385515,65929,4.754906864,0.14878692,2063,128,117277,8.458208258,41152,19255.85938,128
12,8.65E-04,65892,4.752238363,0.191482924,2655,128,117427,8.469026502,41216,19257.8125,128
736,0.053081519,65813,4.746540755,0.221774008,3075,128,117857,8.500038803,41280,19259.76563,128
51,0.003678203,66413,4.789813732,0.287332569,3984,128,117523,8.475950179,41344,19261.71875,128
8,5.77E-04,66094,4.766806932,0.29533807,4095,128,117391,8.466430124,41408,19263.67188,128
1022,0.073708305,66098,4.767095419,0.258339674,3582,128,117246,8.455972487,41472,19265.625,128
159,0.011467339,66972,4.830129722,1.200103903,16640,128,117520,8.475733814,41536,19267.57813,128
46,0.003317595,67946,4.900376189,1.29696325,17983,128,118463,8.54374451,41600,19269.53125,128
1263,0.091089617,66798,4.817580559,0.26259485,3641,128,117409,8.467728313,41664,19271.48438,128
127,0.009159447,68091,4.910833825,1.190295361,16504,128,118904,8.575550148,41728,19273.4375,128
647,0.046662694,66191,4.77380273,0.035195355,488,128,116651,8.413060118,41792,19275.39063,128
767,0.055317289,66239,4.777264568,0.239732294,3324,128,116988,8.437365107,41856,19277.34375,128
63,0.004543663,66874,4.823061803,0.29533807,4095,128,118375,8.537397806,41920,19279.29688,128
3952,0.285024677,69494,5.01202047,1.218494918,16895,128,120311,8.67702528,41984,19281.25,128
32307,2.330033461,64114,4.624006107,0.018246772,253,128,114941,8.289732133,42048,19283.20313,128
2071,0.149363893,67924,4.898789513,1.181640766,16384,128,118308,8.532565657,42112,19285.15625,128
2035,0.146767515,67603,4.87563847,1.189718388,16496,128,117728,8.490735113,42176,19287.10938,128
1022,0.073708305,66476,4.794357394,0.289496218,4014,128,117498,8.474147138,42240,19289.0625,128
176,0.012693407,66198,4.774307582,0.147921461,2051,128,117055,8.442197256,42304,19291.01563,128
15,0.001081824,67053,4.835971574,0.268220337,3719,128,117384,8.465925272,42368,19292.96875,128
951,0.068587669,66023,4.761686297,0.221485522,3071,128,118278,8.530402008,42432,19294.92188,128
2046,0.147560852,67598,4.875277862,1.255421192,17407,128,118914,8.576271364,42496,19296.875,128
32720,2.359819694,64762,4.670740923,0.071544656,992,128,116496,8.401881266,42560,19298.82813,128
7,5.05E-04,65756,4.742429822,0.131333486,1821,128,117019,8.439600878,42624,19300.78125,128
32704,2.358665747,65931,4.755051107,0.166023989,2302,128,117040,8.441115432,42688,19302.73438,128
771,0.055605776,66371,4.786784623,0.287476812,3986,128,117138,8.448183352,42752,19304.6875,128
383,0.027622584,65871,4.750723809,0.286250745,3969,128,117531,8.476527152,42816,19306.64063,128
622,0.044859653,67176,4.844842535,1.188564442,16480,128,117441,8.470036205,42880,19308.59375,128
1020,0.073564061,66528,4.798107719,0.262522729,3640,128,117280,8.458424623,42944,19310.54688,128
1019,0.07349194,66547,4.79947803,0.295265948,4094,128,117364,8.46448284,43008,19312.5,128
2044,0.147416609,67568,4.873114213,1.246261745,17280,128,117689,8.487922369,43072,19314.45313,128
1091,0.078684697,66771,4.815633275,0.251560241,3488,128,117160,8.449770027,43136,19316.40625,128
32512,2.344818395,65344,4.712715711,0.04204691,583,128,116319,8.389115738,43200,19318.35938,128
207,0.014929177,66701,4.810584761,1.190800213,16511,128,116859,8.428061417,43264,19320.3125,128
1984,0.143089311,67528,4.870229348,1.182145617,16391,128,116814,8.424815944,43328,19322.26563,128
928,0.066928872,66474,4.794213151,0.294184124,4079,128,117386,8.466069515,43392,19324.21875,128
1024,0.073852548,67338,4.856526239,1.182145617,16391,128,117744,8.491889059,43456,19326.17188,128
4088,0.294833218,68366,4.930667273,1.292419588,17920,128,118383,8.537974779,43520,19328.125,128
3590,0.258916647,67444,4.864171131,1.181640766,16384,128,118397,8.538984482,43584,19330.07813,128
207,0.014929177,67439,4.863810523,0.29533807,4095,128,119392,8.610745503,43648,19332.03125,128
3100,0.223577049,67628,4.877441511,1.181640766,16384,128,120378,8.681857429,43712,19333.98438,128
1983,0.14301719,66653,4.807122923,0.576900909,7999,128,120709,8.705729688,43776,19335.9375,128
480,0.034618382,66575,4.801497436,0.478887615,6640,128,122106,8.806483603,43840,19337.89063,128
224,0.016155245,67303,4.854001981,1.159571547,16078,128,123498,8.906876911,43904,19339.84375,128
2175,0.156864543,67711,4.883427606,1.809171058,25085,128,123901,8.935941927,43968,19341.79688,128
2047,0.147632974,69453,5.009063483,1.844510656,25575,128,125671,9.06359721,44032,19343.75,128
3599,0.259565742,69132,4.985912441,1.816311099,25184,128,125632,9.060784466,44096,19345.70313,128
33,0.002380014,69153,4.987426995,1.819700816,25231,128,126607,9.131103054,44160,19347.65625,128
2249,0.162201543,67785,4.888764607,1.172625562,16259,128,126739,9.140623109,44224,19349.60938,128
775,0.055894262,67199,4.846501332,1.03393567,14336,128,127025,9.161249895,44288,19351.5625,128
31799,2.293395673,64935,4.683217965,0.90375613,12531,128,123559,8.91127633,44352,19353.51563,128
32704,2.358665747,64721,4.667783936,0.586781572,8136,128,121544,8.765951248,44416,19355.46875,128
30703,2.214350368,63116,4.552028722,0.297357475,4123,128,119802,8.640315371,44480,19357.42188,128
28927,2.086262356,62409,4.50103873,0.055605776,771,128,118551,8.550091213,44544,19359.375,128
32735,2.360901518,63133,4.55325479,0.004038811,56,128,117040,8.441115432,44608,19361.32813,128
32751,2.362055464,64111,4.623789742,0.080704103,1119,128,116191,8.379884169,44672,19363.28125,128
32572,2.349145692,63548,4.583185265,0.008943082,124,128,115809,8.352333707,44736,19365.23438,128
30766,2.218894031,64127,4.624943689,0.071184048,987,128,114759,8.276605997,44800,19367.1875,128
32740,2.361262126,66052,4.763777824,1.190800213,16511,128,114867,8.284395133,44864,19369.14063,128
32705,2.358737869,66097,4.767023297,1.217413094,16880,128,115563,8.334591786,44928,19371.09375,128
1031,0.074357399,66220,4.775894258,1.213951256,16832,128,113682,8.198931002,44992,19373.04688,128
39,0.002812744,67119,4.840731602,7.21E-05,1,128,114268,8.241194277,45056,19375,128
507,0.036565666,66425,4.790679191,1.190583848,16508,128,114409,8.251363427,45120,19376.95313,128
512,0.036926274,66759,4.814767815,0.016299488,226,128,115702,8.344616693,45184,19378.90625,128
252,0.01817465,67260,4.850900751,1.292635953,17923,128,116234,8.382985399,45248,19380.85938,128
2146,0.154773015,67778,4.888259755,1.254555733,17395,128,116451,8.398635793,45312,19382.8125,128
126,0.009087325,66414,4.789885854,0.115322484,1599,128,116321,8.389259981,45376,19384.76563,128
258,0.01860738,67414,4.862007482,1.247271448,17294,128,117438,8.46981984,45440,19386.71875,128
0,0,67745,4.885879741,1.181640766,16384,128,117213,8.453592474,45504,19388.67188,128
96,0.006923676,65608,4.731755821,0.165447016,2294,128,117220,8.454097325,45568,19390.625,128
63,0.004543663,65849,4.749137133,0.239011078,3314,128,117222,8.454241568,45632,19392.57813,128
1921,0.138545649,66965,4.829624871,1.218494918,16895,128,118118,8.518862548,45696,19394.53125,128
2016,0.145397204,67169,4.844337683,0.29533807,4095,128,118173,8.522829237,45760,19396.48438,128
32652,2.354915423,65453,4.720576968,0.156864543,2175,128,116854,8.427700809,45824,19398.4375,128
15,0.001081824,66446,4.792193746,0.260214837,3608,128,117266,8.45741492,45888,19400.39063,128
72,0.005192757,66651,4.80697868,0.288342272,3998,128,117654,8.485398112,45952,19402.34375,128
383,0.027622584,66381,4.78750584,0.262450607,3639,128,117287,8.458929474,46016,19404.29688,128
127,0.009159447,67721,4.884148822,1.188636564,16481,128,118154,8.521458926,46080,19406.25,128
2175,0.156864543,67179,4.8450589,1.198877835,16623,128,118113,8.51850194,46144,19408.20313,128
0,0,67154,4.843255859,1.209912444,16776,128,118236,8.5273729,46208,19410.15625,128
1024,0.073852548,66959,4.829192141,0.295121705,4092,128,118076,8.515833439,46272,19412.10938,128
499,0.035988693,65845,4.748848647,0.294112002,4078,128,117553,8.478113827,46336,19414.0625,128
527,0.038008098,66625,4.805103517,0.261873634,3631,128,117627,8.483450828,46400,19416.01563,128
575,0.041469937,65858,4.749786228,0.292525326,4056,128,117486,8.473281678,46464,19417.96875,128
127,0.009159447,66135,4.769763919,0.259565742,3599,128,117259,8.456910069,46528,19419.92188,128
2040,0.147128123,67032,4.83445702,0.292958056,4062,128,117918,8.504438222,46592,19421.875,128
15,0.001081824,67083,4.838135223,1.199815416,16636,128,118716,8.561991282,46656,19423.82813,128
286,0.020626786,66328,4.783683393,0.290217434,4024,128,117681,8.487345396,46720,19425.78125,128
1794,0.129386202,66854,4.82161937,1.199454808,16631,128,117447,8.470468935,46784,19427.73438,128
2496,0.180015585,68544,4.943504923,1.190728091,16510,128,119420,8.612764908,46848,19429.6875,128
51,0.003678203,66546,4.799405909,0.239515929,3321,128,118267,8.52960867,46912,19431.64063,128
1528,0.110201849,67000,4.832149128,0.277163419,3843,128,118087,8.516626777,46976,19433.59375,128
479,0.03454626,65879,4.751300782,0.237135915,3288,128,117211,8.45344823,47040,19435.54688,128
1,7.21E-05,66761,4.814912059,0.293030178,4063,128,118045,8.513597669,47104,19437.5,128
2047,0.147632974,66799,4.817652681,0.277235541,3844,128,118293,8.531483833,47168,19439.45313,128
2,1.44E-04,66758,4.814695694,0.286106501,3967,128,118111,8.518357696,47232,19441.40625,128
2038,0.146983879,66806,4.818157532,0.29533807,4095,128,117694,8.488282977,47296,19443.35938,128
7,5.05E-04,66950,4.828543047,1.19022324,16503,128,118884,8.574107715,47360,19445.3125,128
15,0.001081824,68786,4.960958357,1.195488119,16576,128,119598,8.625602558,47424,19447.26563,128
510,0.036782031,68994,4.975959656,1.189574145,16494,128,119451,8.615000679,47488,19449.21875,128
508,0.036637787,66158,4.771422717,0.21961036,3045,128,116774,8.421931079,47552,19451.17188,128
28,0.002019406,66308,4.782240961,0.073780426,1023,128,117323,8.461525853,47616,19453.125,128
898,0.064765223,68283,4.924681178,1.199166322,16627,128,119549,8.622068599,47680,19455.07813,128
1993,0.143738406,67529,4.87030147,0.588656734,8162,128,119082,8.588387798,47744,19457.03125,128
2056,0.148282069,67640,4.87830697,0.586781572,8136,128,119370,8.609158827,47808,19458.98438,128
1807,0.130323783,67117,4.840587359,0.294833218,4088,128,118769,8.565813728,47872,19460.9375,128
0,0,67332,4.856093509,0.521511498,7231,128,118833,8.570429512,47936,19462.89063,128
31,0.00223577,66899,4.824864843,0.286106501,3967,128,118623,8.55528397,48000,19464.84375,128
1010,0.072842845,67398,4.860853536,0.295265948,4094,128,118174,8.522901359,48064,19466.79688,128
4064,0.293102299,68416,4.934273354,1.197796011,16608,128,119009,8.583122919,48128,19468.75,128
2050,0.147849339,67842,4.892875539,1.182073496,16390,128,118838,8.57079012,48192,19470.70313,128
2552,0.184054397,67984,4.903116811,1.214888837,16845,128,119241,8.599855137,48256,19472.65625,128
3972,0.286467109,68484,4.939177625,1.209840323,16775,128,119599,8.62567468,48320,19474.60938,128
3324,0.239732294,67781,4.88847612,0.525694552,7289,128,119033,8.584853838,48384,19476.5625,128
1053,0.075944075,66781,4.816354491,0.288414393,3999,128,118301,8.532060806,48448,19478.51563,128
1996,0.143954771,67468,4.86590205,0.290794407,4032,128,118672,8.55881793,48512,19480.46875,128
768,0.055389411,67346,4.857103212,0.258700282,3587,128,118434,8.541652982,48576,19482.42188,128
2563,0.184847735,68246,4.922012677,1.209912444,16776,128,119225,8.598701191,48640,19484.375,128
4095,0.29533807,68407,4.93362426,1.213951256,16832,128,119112,8.590551447,48704,19486.32813,128
1088,0.078468332,69751,5.030555729,1.255421192,17407,128,120003,8.654811818,48768,19488.28125,128
1920,0.138473527,68542,4.94336068,1.183876536,16415,128,119860,8.644498425,48832,19490.23438,128
3584,0.258483918,68103,4.911699285,0.559591718,7759,128,119684,8.631805018,48896,19492.1875,128
2623,0.189175032,67752,4.886384593,0.5685348,7883,128,119079,8.588171433,48960,19494.14063,128
2017,0.145469325,67489,4.867416604,0.521078768,7225,128,118841,8.571006485,49024,19496.09375,128
1664,0.12001039,67202,4.846717697,0.518049659,7183,128,118942,8.57829077,49088,19498.04688,128
63,0.004543663,68013,4.905208338,1.181857131,16387,128,119943,8.65048452,49152,19500,128
1564,0.112798227,69144,4.9867779,1.247127205,17292,128,120716,8.706234539,49216,19501.95313,128
4071,0.293607151,68526,4.942206733,1.191088699,16515,128,119942,8.650412399,49280,19503.90625,128
25,0.001803041,68113,4.912420501,0.5712033,7920,128,119426,8.613197638,49344,19505.85938,128
4092,0.295121705,68952,4.972930547,1.214528229,16840,128,120201,8.6690919,49408,19507.8125,128
1921,0.138545649,69543,5.01555443,1.244530826,17256,128,120682,8.703782404,49472,19509.76563,128
4088,0.294833218,69320,4.999471307,1.25268057,17369,128,120731,8.707316364,49536,19511.71875,128
6144,0.443115287,69673,5.024930242,1.185102604,16432,128,121202,8.741285651,49600,19513.67188,128
4095,0.29533807,69037,4.979060886,0.590531896,8188,128,120308,8.676808915,49664,19515.625,128
3262,0.235260753,68774,4.960092897,0.581877301,8068,128,120452,8.687194429,49728,19517.57813,128
2240,0.161552448,68236,4.921291461,0.535142486,7420,128,119949,8.65091725,49792,19519.53125,128
947,0.068299182,69555,5.01641989,1.217413094,16880,128,121264,8.745757192,49856,19521.48438,128
52,0.003750325,70180,5.061495907,1.253762395,17384,128,121448,8.759027572,49920,19523.4375,128
1820,0.131261364,69400,5.005241037,0.581300328,8060,128,120948,8.722966757,49984,19525.39063,128
1948,0.140492933,70199,5.062866218,1.19866147,16620,128,121215,8.742223232,50048,19527.34375,128
4167,0.300530827,70542,5.087603937,1.255421192,17407,128,121681,8.775831911,50112,19529.29688,128
16,0.001153946,70809,5.106860412,1.209840323,16775,128,121413,8.756503315,50176,19531.25,128
3847,0.277451906,71718,5.172418973,1.325811902,18383,128,122253,8.817085483,50240,19533.20313,128
6120,0.441384368,70699,5.098927033,1.200103903,16640,128,122134,8.808503009,50304,19535.15625,128
2087,0.150517839,68135,4.914007177,0.59024341,8184,128,121450,8.759171815,50368,19537.10938,128
2877,0.207493926,68461,4.937518828,0.461073573,6393,128,121049,8.730251042,50432,19539.0625,128
4209,0.303559936,70369,5.075126895,1.227582243,17021,128,122481,8.833529214,50496,19541.01563,128
4416,0.318489113,71488,5.155830998,1.772677514,24579,128,123139,8.880985246,50560,19542.96875,128
4748,0.342433493,70284,5.068996557,0.590531896,8188,128,122300,8.820475199,50624,19544.92188,128
4799,0.346111696,70321,5.071665057,1.182794712,16400,128,121970,8.796675062,50688,19546.875,128
7164,0.516679349,72604,5.236318736,1.772893879,24582,128,123950,8.939475887,50752,19548.82813,128
5540,0.399553823,71084,5.12669386,1.190511726,16507,128,122618,8.843409877,50816,19550.78125,128
3648,0.263099702,69206,4.991249441,0.514587821,7135,128,121758,8.781385276,50880,19552.73438,128
8191,0.590748261,71605,5.164269228,1.846313697,25600,128,124054,8.946976536,50944,19554.6875,128
7316,0.527641836,72084,5.198815489,1.83008633,25375,128,123422,8.901395667,51008,19556.64063,128
4150,0.299304759,69814,5.035099391,0.55793292,7736,128,122041,8.801795697,51072,19558.59375,128
5730,0.413256933,71238,5.137800591,1.799001908,24944,128,123204,8.885673152,51136,19560.54688,128
6081,0.438571625,71579,5.162394066,1.200031781,16639,128,122622,8.843698364,51200,19562.5,128
4049,0.292020475,72081,5.198599124,1.801165557,24974,128,124314,8.96572816,51264,19564.45313,128
4992,0.360031171,71553,5.160518904,1.181280158,16379,128,123379,8.898294437,51328,19566.40625,128
8183,0.590171288,70539,5.087387572,0.526127282,7295,128,121419,8.756936044,51392,19568.35938,128
4991,0.359959049,69572,5.017645957,0.553894109,7680,128,121259,8.745396584,51456,19570.3125,128
504,0.036349301,68042,4.907299865,0.518049659,7183,128,120873,8.717557635,51520,19572.26563,128
24,0.001730919,69881,5.03993154,0.530887309,7361,128,120969,8.724481311,51584,19574.21875,128
2016,0.145397204,71563,5.16124012,1.772966,24583,128,122893,8.863243325,51648,19576.17188,128
7420,0.535142486,69885,5.040220027,0.581588814,8064,128,121760,8.78152952,51712,19578.125,128
3582,0.258339674,68980,4.974949953,0.572357246,7936,128,120631,8.700104201,51776,19580.07813,128
0,0,69620,5.021107795,0.518698754,7192,128,120914,8.720514622,51840,19582.03125,128
1820,0.131261364,69436,5.007837416,0.588728856,8163,128,120771,8.710201229,51904,19583.98438,128
1022,0.073708305,69610,5.020386579,0.551802582,7651,128,121223,8.742800205,51968,19585.9375,128
1504,0.10847093,69089,4.98281121,0.587070058,8140,128,120781,8.710922445,52032,19587.89063,128
8185,0.590315532,70147,5.059115894,1.182794712,16400,128,121108,8.734506218,52096,19589.84375,128
3847,0.277451906,69444,5.008414389,0.587358545,8144,128,120658,8.702051485,52160,19591.79688,128
4081,0.294328367,69105,4.983965157,0.526127282,7295,128,120143,8.664908846,52224,19593.75,128
3985,0.287404691,68919,4.970550534,0.589017342,8167,128,119623,8.627405599,52288,19595.70313,128
4047,0.291876232,68813,4.962905641,0.522088471,7239,128,119893,8.646878439,52352,19597.65625,128
500,0.036060814,69028,4.978411791,0.589666437,8176,128,120368,8.681136212,52416,19599.60938,128
3843,0.277163419,68866,4.966728087,0.588512491,8160,128,119688,8.632093505,52480,19601.5625,128
19,0.001370311,68503,4.940547936,0.533627931,7399,128,119015,8.583555649,52544,19603.51563,128
3199,0.23071709,68986,4.975382683,0.583968828,8097,128,119203,8.597114515,52608,19605.46875,128
4043,0.291587745,69672,5.02485812,1.190872334,16512,128,119496,8.618246152,52672,19607.42188,128
3647,0.26302758,68979,4.974877831,0.573366949,7950,128,118562,8.550884551,52736,19609.375,128
1277,0.09209932,68797,4.961751695,0.518049659,7183,128,118799,8.567977377,52800,19611.32813,128
3327,0.239948659,68081,4.910112609,0.290794407,4032,128,118489,8.545619672,52864,19613.28125,128
3339,0.240814118,68939,4.971992966,0.588440369,8159,128,119006,8.582906554,52928,19615.23438,128
3967,0.286106501,69459,5.009496213,1.186112307,16446,128,119678,8.631372289,52992,19617.1875,128
2047,0.147632974,67566,4.87296997,0.477950034,6627,128,119146,8.593003582,53056,19619.14063,128
3903,0.281490717,68479,4.938817017,0.587214301,8142,128,119048,8.585935663,53120,19621.09375,128
998,0.071977386,69326,4.999904037,1.200031781,16639,128,119524,8.620265558,53184,19623.04688,128
2047,0.147632974,67326,4.855660779,0.290794407,4032,128,118274,8.530113522,53248,19625,128
254,0.018318894,69886,5.040292149,1.185174726,16433,128,119203,8.597114515,53312,19626.95313,128
4096,0.295410191,70433,5.07974268,1.194550537,16563,128,119731,8.635194735,53376,19628.90625,128
317,0.022862556,68981,4.975022075,0.572934219,7944,128,119114,8.59069569,53440,19630.85938,128
511,0.036854152,67019,4.833519439,0.138978379,1927,128,117934,8.505592168,53504,19632.8125,128
4081,0.294328367,69091,4.982955454,1.213951256,16832,128,119116,8.590839933,53568,19634.76563,128
4071,0.293607151,68198,4.918550839,0.230212239,3192,128,117112,8.446308189,53632,19636.71875,128
2046,0.147560852,66656,4.807339288,0.009231568,128,128,116612,8.410247375,53696,19638.67188,128
1806,0.130251662,68878,4.967593547,1.251742989,17356,128,118604,8.553913659,53760,19640.625,128
4596,0.331471006,70100,5.055726177,1.181640766,16384,128,119313,8.605047894,53824,19642.57813,128
1880,0.135588662,67408,4.861574753,0.147921461,2051,128,116846,8.427123836,53888,19644.53125,128
3647,0.26302758,69311,4.998822212,1.198949957,16624,128,117927,8.505087317,53952,19646.48438,128
6913,0.49857682,70209,5.063587435,1.327326456,18404,128,118637,8.556293673,54016,19648.4375,128
3271,0.235909848,69062,4.980863927,0.293102299,4064,128,118312,8.532854144,54080,19650.39063,128
523,0.037719612,67146,4.842678886,0.286178623,3968,128,118274,8.530113522,54144,19652.34375,128
124,0.008943082,68684,4.953601951,1.199815416,16636,128,117480,8.472848949,54208,19654.29688,128
4349,0.313656964,69869,5.039066081,1.254555733,17395,128,118755,8.564804025,54272,19656.25,128
920,0.066351898,68504,4.940620058,0.258483918,3584,128,117851,8.499606073,54336,19658.20313,128
3076,0.22184613,68042,4.907299865,0.277163419,3843,128,118199,8.5247044,54400,19660.15625,128
3072,0.221557644,68616,4.94869768,0.278677974,3864,128,118552,8.550163335,54464,19662.10938,128
3072,0.221557644,67441,4.863954766,0.278677974,3864,128,117573,8.47955626,54528,19664.0625,128
99,0.007140041,67591,4.874773011,0.259998472,3605,128,117403,8.467295583,54592,19666.01563,128
2044,0.147416609,68705,4.955116505,1.181857131,16387,128,118119,8.518934669,54656,19667.96875,128
3521,0.253940255,69708,5.027454499,1.21899977,16902,128,118584,8.552471227,54720,19669.92188,128
1414,0.101979983,69014,4.977402088,1.185895942,16443,128,117874,8.50126487,54784,19671.875,128
1414,0.101979983,68598,4.947399491,1.185895942,16443,128,117812,8.496793329,54848,19673.82813,128
2166,0.156215448,68182,4.917396893,0.234755902,3255,128,117941,8.506097019,54912,19675.78125,128
31,0.00223577,68119,4.912853231,0.230212239,3192,128,117976,8.508621276,54976,19677.73438,128
2432,0.175399801,68011,4.905064095,0.284880434,3950,128,117582,8.480205355,55040,19679.6875,128
176,0.012693407,67761,4.887033687,0.221990373,3078,128,117804,8.496216356,55104,19681.64063,128
0,0,67616,4.876576051,0.290001069,4021,128,117557,8.478402314,55168,19683.59375,128
1026,0.073996791,68702,4.95490014,1.191088699,16515,128,118154,8.521458926,55232,19685.54688,128
1008,0.072698602,68469,4.938095801,0.293102299,4064,128,118244,8.527949873,55296,19687.5,128
125,0.009015204,69721,5.02839208,1.194911146,16568,128,118968,8.580165932,55360,19689.45313,128
991,0.071472534,70751,5.102677358,1.220586445,16924,128,119687,8.632021383,55424,19691.40625,128
449,0.032382611,-5177075,-373.3790813,0.004615784,64,1,460,0.033175949,55488,19693.35938,0
64,0.004615784,-5177075,-373.3790813,1.181640766,16384,1,460,0.033175949,55552,19695.3125,0
1,7.21E-05,1,7.21E-05,0.016155245,224,159,730560,52.68917712,55616,19697.26563,128
25662,1.850785238,117809,8.496576964,0,0,2,-4194304,-302.5000361,55680,19699.21875,128
30720,2.215576436,-6438912,-464.384821,0,0,0,-3145458,-226.8555542,55744,19701.17188,0
1,7.21E-05,1,7.21E-05,0.017309191,240,156,987840,71.24462977,55808,19703.125,128
120,0.008654595,1,7.21E-05,1.006240965,13952,156,987840,71.24462977,55872,19705.07813,128
28672,2.06787134,3457024,249.3262016,0.147705096,2048,0,-196346,-14.16079332,55936,19707.03125,128
28672,2.06787134,70270,5.067986854,0.033392314,463,128,118394,8.538768117,56000,19708.98438,0
0,0,1164992,84.02112055,2.321811595,32193,0,-3310335,-238.746752,56064,19710.9375,0
0,0,68144,4.914656271,0.223793414,3103,128,118361,8.536388104,56128,19712.89063,128
3968,0.286178623,69569,5.017429592,1.181712887,16385,128,118791,8.567400404,56192,19714.84375,128
256,0.018463137,69875,5.039498811,1.246405989,17282,128,118033,8.512732209,56256,19716.79688,128
3072,0.221557644,67849,4.893380391,0.179871342,2494,128,117144,8.448616081,56320,19718.75,128
2049,0.147777217,67444,4.864171131,0.221485522,3071,128,117193,8.452150041,56384,19720.70313,128
0,0,69034,4.978844521,1.203782106,16691,128,118533,8.548793024,56448,19722.65625,128
4291,0.309473909,69787,5.033152107,1.237030177,17152,128,119588,8.624881342,56512,19724.60938,128
1982,0.142945068,69550,5.016059281,1.182794712,16400,128,118960,8.579588959,56576,19726.5625,128
15,0.001081824,68634,4.949995869,0.294112002,4078,128,118284,8.530834738,56640,19728.51563,128
467,0.033680801,69364,5.002644658,1.190295361,16504,128,117948,8.506601871,56704,19730.46875,128
4167,0.300530827,70566,5.089334856,1.329129497,18429,128,119299,8.604038191,56768,19732.42188,128
1952,0.140781419,68888,4.968314763,0.267643364,3711,128,117779,8.494413316,56832,19734.375,128
4087,0.294761097,69723,5.028536323,1.217990067,16888,128,117637,8.484172044,56896,19736.32813,128
4095,0.29533807,68396,4.932830922,0.221557644,3072,128,117666,8.486263572,56960,19738.28125,128
3841,0.277019176,69145,4.986850022,0.292092597,4050,128,118483,8.545186942,57024,19740.23438,128
6,4.33E-04,69593,5.019160511,1.200320268,16643,128,118562,8.550884551,57088,19742.1875,128
3637,0.262306364,68753,4.958578343,0.295265948,4094,128,118302,8.532132927,57152,19744.14063,128
4028,0.290505921,68709,4.955404992,0.286250745,3969,128,118445,8.54244632,57216,19746.09375,128
760,0.054812438,69261,4.995216131,1.181640766,16384,128,118127,8.519511642,57280,19748.04688,128
0,0,70203,5.063154705,1.252752692,17370,128,118397,8.538984482,57344,19750,128
1920,0.138473527,69836,5.036686067,1.181712887,16385,128,118841,8.571006485,57408,19751.95313,128
4027,0.290433799,68718,4.956054086,0.242184429,3358,128,117599,8.481431422,57472,19753.90625,128
3108,0.224154022,68446,4.936437003,0.239660172,3323,128,118033,8.512732209,57536,19755.85938,128
9,6.49E-04,68774,4.960092897,0.25949362,3598,128,117817,8.497153937,57600,19757.8125,128
1599,0.115322484,68676,4.953024978,0.272403392,3777,128,118099,8.517492237,57664,19759.76563,128
1827,0.131766216,69323,4.999687672,1.18272259,16399,128,118268,8.529680792,57728,19761.71875,128
19,0.001370311,69298,4.997884631,1.183660171,16412,128,118005,8.510712804,57792,19763.67188,128
63,0.004543663,68799,4.961895938,0.276947054,3840,128,117584,8.480349598,57856,19765.625,128
3555,0.25639239,69539,5.015265943,1.185895942,16443,128,118628,8.555644578,57920,19767.57813,128
5117,0.369046374,69933,5.043681865,1.18979051,16497,128,118161,8.521963778,57984,19769.53125,128
4111,0.296492016,70178,5.061351664,1.190800213,16511,128,118878,8.573674986,58048,19771.48438,128
1921,0.138545649,69444,5.008414389,0.287044083,3980,128,118775,8.566246458,58112,19773.4375,128
3846,0.277379784,69186,4.989807008,0.288775002,4004,128,118303,8.532205049,58176,19775.39063,128
3200,0.230789212,68863,4.966511722,0.256176025,3552,128,118267,8.52960867,58240,19777.34375,128
3843,0.277163419,68121,4.912997474,0.281490717,3903,128,118004,8.510640682,58304,19779.29688,128
4000,0.288486515,68433,4.935499422,0.281490717,3903,128,118211,8.525569859,58368,19781.25,128
919,0.066279777,69803,5.034306053,1.237535028,17159,128,118346,8.535306279,58432,19783.20313,128
4118,0.296996867,69521,5.013967754,1.19952693,16632,128,118903,8.575478026,58496,19785.15625,128
4077,0.294039881,68655,4.951510424,0.295121705,4092,128,117951,8.506818236,58560,19787.10938,128
3580,0.258195431,70453,5.081185112,1.258450301,17449,128,118522,8.547999686,58624,19789.0625,128
4383,0.316109099,70609,5.092436086,1.327037969,18400,128,118554,8.550307578,58688,19791.01563,128
2047,0.147632974,68644,4.950717086,0.277091298,3842,128,117170,8.450491244,58752,19792.96875,128
2147,0.154845137,68376,4.931388489,0.267643364,3711,128,117824,8.497658789,58816,19794.92188,128
4090,0.294977462,70063,5.053057677,1.219648864,16911,128,119131,8.591921758,58880,19796.875,128
4127,0.297645962,69118,4.984902738,0.583824585,8095,128,118132,8.519872251,58944,19798.82813,128
2303,0.166096111,68434,4.935571544,0.221629765,3073,128,117713,8.489653288,59008,19800.78125,128
1984,0.143089311,68818,4.963266249,0.27233127,3776,128,117973,8.508404912,59072,19802.73438,128
0,0,68883,4.967954155,1.182145617,16391,128,118028,8.512371601,59136,19804.6875,128
1976,0.142512338,69291,4.99737978,0.293607151,4071,128,117863,8.500471532,59200,19806.64063,128
960,0.069236764,69172,4.988797306,0.279182825,3871,128,117716,8.489869653,59264,19808.59375,128
2035,0.146767515,70368,5.075054774,1.217124607,16876,128,118697,8.560620971,59328,19810.54688,128
6176,0.445423179,69872,5.039282446,1.197868132,16609,128,117875,8.501336992,59392,19812.5,128
6151,0.443620139,70868,5.111115588,1.260036976,17471,128,118685,8.559755511,59456,19814.45313,128
7168,0.516967835,69488,5.01158774,0.581805179,8067,128,117901,8.503212154,59520,19816.40625,128
575,0.041469937,67972,4.902251351,0.184559248,2559,128,117541,8.477248368,59584,19818.35938,128
780,0.05625487,68794,4.96153533,0.286178623,3968,128,117777,8.494269072,59648,19820.3125,128
3536,0.255022079,69169,4.988580941,0.291659867,4044,128,118611,8.554418511,59712,19822.26563,128
63,0.004543663,70028,5.05053342,1.21856704,16896,128,118304,8.532277171,59776,19824.21875,128
6147,0.443331652,69999,5.048441893,1.181640766,16384,128,118128,8.519583764,59840,19826.17188,128
311,0.022429827,69294,4.997596144,0.293102299,4064,128,118098,8.517420115,59904,19828.125,128
4085,0.294616854,69880,5.039859419,1.181640766,16384,128,118169,8.522540751,59968,19830.07813,128
6151,0.443620139,69146,4.986922143,0.267571243,3710,128,118178,8.523189845,60032,19832.03125,128
3831,0.27629796,69054,4.980286953,0.295121705,4092,128,117526,8.476166544,60096,19833.98438,128
1984,0.143089311,69681,5.025507215,0.290505921,4028,128,118124,8.519295278,60160,19835.9375,128
400,0.028848652,69304,4.998317361,0.258483918,3584,128,117367,8.464699205,60224,19837.89063,128
1919,0.138401406,69231,4.993052482,0.286178623,3968,128,117504,8.474579868,60288,19839.84375,128
3056,0.220403698,68580,4.946101301,0.22271159,3088,128,117808,8.496504843,60352,19841.79688,128
920,0.066351898,69424,5.006971956,0.281490717,3903,128,117864,8.500543654,60416,19843.75,128
6384,0.460424478,69876,5.039570932,1.204719687,16704,128,118093,8.517059507,60480,19845.70313,128
4107,0.296203529,68919,4.970550534,0.236342577,3277,128,117715,8.489797531,60544,19847.65625,128
3470,0.250262052,69498,5.012308957,0.293679272,4072,128,118266,8.529536549,60608,19849.60938,128
2030,0.146406906,69701,5.026949647,1.181712887,16385,128,118397,8.538984482,60672,19851.5625,128
4111,0.296492016,70624,5.093517911,1.246261745,17280,128,118482,8.545114821,60736,19853.51563,128
6158,0.44412499,69353,5.00185132,0.293318664,4067,128,118150,8.52117044,60800,19855.46875,128
460,0.033175949,69493,5.011948349,0.29490534,4089,128,118106,8.517997088,60864,19857.42188,128
4078,0.294112002,69618,5.020963552,0.29533807,4095,128,118035,8.512876453,60928,19859.375,128
1036,0.074718007,67502,4.868354186,0.223793414,3103,128,117274,8.457991893,60992,19861.32813,128
2079,0.149940866,69365,5.00271678,0.281562839,3904,128,117606,8.481936274,61056,19863.28125,128
4208,0.303487814,70027,5.050461298,1.237030177,17152,128,117704,8.489004193,61120,19865.23438,128
1792,0.129241959,68918,4.970478412,0.23071709,3199,128,118123,8.519223156,61184,19867.1875,128
4028,0.290505921,70186,5.061928637,1.246261745,17280,128,118794,8.567616769,61248,19869.14063,128
6191,0.446505004,70744,5.102172506,1.254916341,17400,128,118639,8.556437916,61312,19871.09375,128
6911,0.498432576,69709,5.02752662,0.290505921,4028,128,117848,8.499389708,61376,19873.04688,128
1550,0.111788525,69573,5.017718079,0.286178623,3968,128,118143,8.520665588,61440,19875,128
4351,0.313801207,70389,5.076569328,1.21503308,16847,128,118482,8.545114821,61504,19876.95313,128
6144,0.443115287,70155,5.059692867,1.182145617,16391,128,118102,8.517708602,61568,19878.90625,128
7664,0.552740163,70096,5.055437691,0.276947054,3840,128,118036,8.512948574,61632,19880.85938,128
4033,0.290866529,69057,4.980503318,0.253868133,3520,128,118153,8.521386805,61696,19882.8125,128
77,0.005553365,67929,4.899150121,0.157008786,2177,128,117387,8.466141637,61760,19884.76563,128
2047,0.147632974,69571,5.017573836,1.181929252,16388,128,117348,8.463328894,61824,19886.71875,128
4303,0.310339369,70984,5.119481697,1.250877529,17344,128,118864,8.572665283,61888,19888.67188,128
7929,0.571852395,70346,5.073468098,1.225490716,16992,128,118018,8.511650385,61952,19890.625,128
5118,0.369118496,70532,5.086882721,1.214023377,16833,128,118461,8.543600266,62016,19892.57813,128
4222,0.304497517,70114,5.05673588,0.291948353,4048,128,118398,8.539056604,62080,19894.53125,128
4111,0.296492016,69221,4.992331265,0.229707388,3185,128,117774,8.494052707,62144,19896.48438,128
6207,0.44765895,71147,5.131237523,1.254916341,17400,128,119524,8.620265558,62208,19898.4375,128
8191,0.590748261,70307,5.070655354,1.182434104,16395,128,118846,8.571367093,62272,19900.39063,128
1944,0.140204446,69062,4.980863927,0.295121705,4092,128,117954,8.507034601,62336,19902.34375,128
4088,0.294833218,70357,5.074261436,0.294833218,4088,128,118144,8.52073771,62400,19904.29688,128
5112,0.368685766,70504,5.084863315,1.195776605,16580,128,118331,8.534224455,62464,19906.25,128
8159,0.588440369,70396,5.077074179,1.185751699,16441,128,118599,8.553553051,62528,19908.20313,128
6207,0.44765895,70112,5.056591637,0.29137138,4040,128,118348,8.535450522,62592,19910.15625,128
8183,0.590171288,70249,5.0664723,0.293607151,4071,128,118530,8.548576659,62656,19912.10938,128
4097,0.295482313,69774,5.032214526,0.276947054,3840,128,118379,8.537686293,62720,19914.0625,128
6144,0.443115287,69917,5.042527919,0.277451906,3847,128,118542,8.549442118,62784,19916.01563,128
7231,0.521511498,70780,5.104768885,1.21503308,16847,128,119243,8.59999938,62848,19917.96875,128
7171,0.5171842,69935,5.043826108,0.295265948,4094,128,118518,8.547711199,62912,19919.92188,128
6147,0.443331652,70275,5.068347462,0.558509893,7744,128,119379,8.609807922,62976,19921.875,128
6203,0.447370463,70011,5.049307352,0.560817785,7776,128,119533,8.620914652,63040,19923.82813,128
3970,0.286322866,69298,4.997884631,0.293174421,4065,128,118759,8.565092512,63104,19925.78125,128
4064,0.293102299,70181,5.061568029,0.294833218,4088,128,119059,8.586729,63168,19927.73438,128
4991,0.359959049,70591,5.091137897,1.181640766,16384,128,119247,8.600287867,63232,19929.6875,128
7329,0.528579417,71731,5.173356554,1.19952693,16632,128,120257,8.673130712,63296,19931.64063,128
6083,0.438715868,69429,5.007332564,0.533050958,7391,128,119856,8.644209939,63360,19933.59375,128
3983,0.287260447,70021,5.050028569,0.59067614,8190,128,119208,8.597475123,63424,19935.54688,128
8064,0.581588814,71738,5.173861405,1.257224233,17432,128,120466,8.688204132,63488,19937.5,128
7936,0.572357246,70651,5.095465195,1.191377186,16519,128,120524,8.692387187,63552,19939.45313,128
4592,0.331182519,69805,5.034450297,0.529877607,7347,128,119932,8.649691182,63616,19941.40625,128
6652,0.479753075,70848,5.109673156,1.181640766,16384,128,120635,8.700392687,63680,19943.35938,128
7741,0.558293528,71220,5.136502401,1.195488119,16576,128,121189,8.74034807,63744,19945.3125,128
30,0.002163649,70259,5.067193516,0.581516693,8063,128,120762,8.709552134,63808,19947.26563,128
6399,0.461506303,71166,5.132607833,1.190800213,16511,128,120073,8.659860332,63872,19949.21875,128
8,5.77E-04,71701,5.171192905,1.222894338,16956,128,120306,8.676664672,63936,19951.17188,128
927,0.06685675,73228,5.281322632,1.437816791,19936,128,122303,8.820691564,64000,19953.125,128
504,0.036349301,72658,5.240213304,1.181857131,16387,128,121799,8.784342263,64064,19955.07813,128
8063,0.581516693,71291,5.141623037,0.590315532,8185,128,120281,8.674861631,64128,19957.03125,128
7168,0.516967835,70681,5.097628844,0.521655741,7233,128,120129,8.663899143,64192,19958.98438,128
0,0,70656,5.095825803,0.57343907,7951,128,119914,8.648392993,64256,19960.9375,128
7136,0.514659943,70532,5.086882721,0.515453281,7147,128,119658,8.629929856,64320,19962.89063,128
6880,0.496196806,70304,5.070438989,0.590171288,8183,128,119781,8.638800816,64384,19964.84375,128
8188,0.590531896,71344,5.145445483,1.255421192,17407,128,120509,8.691305362,64448,19966.79688,128
8187,0.590459775,71867,5.183165095,1.182145617,16391,128,119774,8.638295965,64512,19968.75,128
8182,0.590099167,71504,5.156984944,1.217990067,16888,128,119368,8.609014584,64576,19970.70313,128
7680,0.553894109,70744,5.102172506,0.59024341,8184,128,119522,8.620121315,64640,19972.65625,128
6851,0.494105279,70240,5.065823205,0.517039957,7169,128,118849,8.571583458,64704,19974.60938,128
6270,0.452202612,70119,5.057096488,0.519492092,7203,128,118888,8.574396202,64768,19976.5625,128
4096,0.295410191,70288,5.069285043,0.5712033,7920,128,118928,8.577281067,64832,19978.51563,128
2047,0.147632974,68580,4.946101301,0.131477729,1823,128,118552,8.550163335,64896,19980.46875,128
4064,0.293102299,69504,5.012741686,0.276947054,3840,128,117816,8.497081816,64960,19982.42188,128
239,0.017237069,70072,5.053706772,0.275937352,3826,128,118816,8.569203445,65024,19984.375,128
32,0.002307892,70856,5.110250129,1.190728091,16510,128,118802,8.568193742,65088,19986.32813,128
7959,0.574016043,70671,5.096907627,1.217845824,16886,128,118699,8.560765214,65152,19988.28125,128
7804,0.562837191,70541,5.087531815,0.294256245,4080,128,119198,8.596753907,65216,19990.23438,128
8161,0.588584612,70662,5.096258533,1.182506225,16396,128,118324,8.533719603,65280,19992.1875,128
7800,0.562548704,70264,5.067554124,0.286250745,3969,128,117669,8.486479936,65344,19994.14063,128
4358,0.314306058,69926,5.043177014,1.211354877,16796,128,117684,8.487561761,65408,19996.09375,128
8191,0.590748261,71524,5.158427377,1.185968064,16444,128,118816,8.569203445,65472,19998.04688,128
7054,0.508745969,70574,5.089911829,1.186184428,16447,128,117869,8.500904262,0,20000,128
4095,0.29533807,69617,5.02089143,0.156071205,2164,128,117476,8.472560462,64,20001.95313,128
1564,0.112798227,69149,4.987138508,0.258339674,3582,128,118172,8.522757116,128,20003.90625,128
7680,0.553894109,70342,5.073179611,1.190367483,16505,128,117361,8.464266475,192,20005.85938,128
112,0.008077622,70359,5.074405679,1.185102604,16432,128,117774,8.494052707,256,20007.8125,128
6147,0.443331652,70204,5.063226827,0.258556039,3585,128,117637,8.484172044,320,20009.76563,128
7686,0.554326839,70993,5.120130792,1.237030177,17152,128,118391,8.538551752,384,20011.71875,128
5120,0.369262739,70393,5.076857814,1.183660171,16412,128,117664,8.486119328,448,20013.67188,128
1585,0.114312782,69099,4.983532427,0.055389411,768,128,116466,8.399717617,512,20015.625,128
4879,0.351881427,71092,5.127270833,1.190295361,16504,128,118216,8.525930467,576,20017.57813,128
79,0.005697609,69182,4.989518522,0.250262052,3470,128,117260,8.45698219,640,20019.53125,128
2689,0.19393506,68574,4.945668572,0.036854152,511,128,116902,8.431162647,704,20021.48438,128
6212,0.448019558,70338,5.072891125,1.181929252,16388,128,117596,8.481215058,768,20023.4375,128
6159,0.444197112,69643,5.022766593,0.277524028,3848,128,117253,8.456477339,832,20025.39063,128
6157,0.444052868,69905,5.04166246,0.291299259,4039,128,117467,8.471911367,896,20027.34375,128
4124,0.297429597,70835,5.108735574,1.21856704,16896,128,117614,8.482513247,960,20029.29688,128
6147,0.443331652,70503,5.084791194,0.29533807,4095,128,117734,8.491167842,1024,20031.25,128
4508,0.325124303,70549,5.088108789,1.189718388,16496,128,118261,8.529175941,1088,20033.20313,128
8191,0.590748261,70316,5.071304449,0.276947054,3840,128,117835,8.498452127,1152,20035.15625,128
4223,0.304569638,69745,5.030122999,0.293102299,4064,128,116992,8.437653594,1216,20037.10938,128
504,0.036349301,70928,5.115442886,1.217629459,16883,128,117619,8.482873855,1280,20039.0625,128
7695,0.554975933,70287,5.069212922,0.250334173,3471,128,117007,8.438735418,1344,20041.01563,128
3584,0.258483918,69123,4.985263346,0.237712888,3296,128,116964,8.435634188,1408,20042.96875,128
27,0.001947284,70675,5.097196114,1.185607455,16439,128,118071,8.515472831,1472,20044.92188,128
8191,0.590748261,71541,5.159653444,1.301867521,18051,128,118419,8.540571158,1536,20046.875,128
7926,0.57163603,69684,5.02572358,0.572357246,7936,128,117721,8.490230261,1600,20048.82813,128
6252,0.450904423,71121,5.12936236,1.189141415,16488,128,117416,8.468233164,1664,20050.78125,128
5767,0.415925433,70858,5.110394372,1.209407593,16769,128,118334,8.53444082,1728,20052.73438,128
7712,0.556202001,69498,5.012308957,0.518987241,7196,128,118501,8.546485132,1792,20054.6875,128
3587,0.258700282,68489,4.939538233,0.262955459,3646,128,117230,8.454818541,1856,20056.64063,128
2092,0.150878447,67946,4.900376189,0.110995187,1539,128,116496,8.401881266,1920,20058.59375,128
2334,0.168331882,68599,4.947471612,0.14965238,2075,128,117251,8.456333096,1984,20060.54688,128
3598,0.25949362,71657,5.168019553,1.246261745,17280,128,120710,8.70580181,2048,20062.5,128
8191,0.590748261,72200,5.207181598,1.345356863,18654,128,119459,8.615577652,2112,20064.45313,128
7999,0.576900909,69959,5.045557028,1.200103903,16640,128,117744,8.491889059,2176,20066.40625,128
513,0.036998396,68134,4.913935055,0.129891053,1801,128,115864,8.356300396,2240,20068.35938,128
3088,0.22271159,68976,4.974661466,0.110562457,1533,128,116181,8.379162953,2304,20070.3125,128
5063,0.365151806,70599,5.09171487,1.21856704,16896,128,117269,8.457631285,2368,20072.26563,128
5087,0.366882726,70367,5.074982652,1.185102604,16432,128,117041,8.441187554,2432,20074.21875,128
8064,0.581588814,69938,5.044042473,0.258556039,3585,128,116753,8.420416524,2496,20076.17188,128
7360,0.530815188,69828,5.036109094,1.190800213,16511,128,116848,8.427268079,2560,20078.125,128
7280,0.525045457,70997,5.120419278,1.218783405,16899,128,117439,8.469891962,2624,20080.07813,128
4028,0.290505921,69433,5.007621051,0.18463137,2560,128,117264,8.457270677,2688,20082.03125,128
519,0.037431125,70228,5.064957746,1.18272259,16399,128,119019,8.583844135,2752,20083.98438,128
8071,0.582093666,70591,5.091137897,0.590748261,8191,128,119679,8.63144441,2816,20085.9375,128
7740,0.558221407,70193,5.062433489,1.190583848,16508,128,119932,8.649691182,2880,20087.89063,128
257,0.018535259,71674,5.169245621,1.193108105,16543,128,122313,8.82141278,2944,20089.84375,128
7872,0.567741462,70638,5.094527613,1.187266253,16462,128,122112,8.806916333,3008,20091.79688,128
7221,0.520790281,70596,5.091498505,1.183948658,16416,128,123399,8.899736869,3072,20093.75,128
8187,0.590459775,70988,5.119770184,1.777076933,24640,128,124214,8.958515997,3136,20095.70313,128
831,0.059933074,71181,5.133689658,1.838236074,25488,128,125103,9.022632125,3200,20097.65625,128
396,0.028560165,71388,5.148618835,1.845159751,25584,128,125992,9.086748253,3264,20099.60938,128
1016,0.073275575,69693,5.026372674,1.116947665,15487,128,126144,9.09771074,3328,20101.5625,128
120,0.008654595,69977,5.046855217,1.180703185,16371,128,127158,9.170842072,3392,20103.51563,128
96,0.006923676,69686,5.025867823,1.172409197,16256,128,126365,9.11364962,3456,20105.46875,128
4012,0.289351975,69288,4.997163415,1.036099319,14366,128,125278,9.03525341,3520,20107.42188,128
319,0.0230068,67903,4.897274959,0.581516693,8063,128,122479,8.833384971,3584,20109.375,128
3597,0.259421499,67641,4.878379092,0.443115287,6144,128,121028,8.728736487,3648,20111.32813,128
1568,0.113086714,67168,4.844265562,0.454726869,6305,128,119459,8.615577652,3712,20113.28125,128
2,1.44E-04,67618,4.876720295,0.291659867,4044,128,118669,8.558601565,3776,20115.23438,128
48,0.003461838,67892,4.896481621,0.25949362,3598,128,117386,8.466069515,3840,20117.1875,128
131,0.009447933,67719,4.884004579,0.074357399,1031,128,115726,8.346347612,3904,20119.14063,128
3,2.16E-04,67971,4.90217923,0.002019406,28,128,115261,8.312811054,3968,20121.09375,128
2032,0.14655115,66849,4.821258762,1.145796316,15887,128,114251,8.239968209,4032,20123.04688,128
4094,0.295265948,69104,4.983893035,0.073996791,1026,128,114038,8.224606302,4096,20125,128
7392,0.53312308,69837,5.036758189,0.124626175,1728,128,114304,8.243790656,4160,20126.95313,128
8064,0.581588814,68435,4.935643665,1.254916341,17400,128,114729,8.274442348,4224,20128.90625,128
798,0.05755306,69418,5.006539226,1.145219343,15879,128,113823,8.209100152,4288,20130.85938,128
8191,0.590748261,71007,5.121140494,1.183804415,16414,128,115741,8.347429436,4352,20132.8125,128
6783,0.489201008,71598,5.163764377,1.31557063,18241,128,118420,8.54064328,4416,20134.76563,128
1007,0.07262648,70008,5.049090987,1.257729084,17439,128,116551,8.405847955,4480,20136.71875,128
7141,0.515020551,70116,5.056880123,1.239265947,17183,128,116269,8.385509656,4544,20138.67188,128
897,0.064693101,68070,4.909319271,0.036349301,504,128,116251,8.384211467,4608,20140.625,128
432,0.031156544,68842,4.964997168,0.069308885,961,128,116834,8.426258376,4672,20142.57813,128
7183,0.518049659,70204,5.063226827,1.255421192,17407,128,117573,8.47955626,4736,20144.53125,128
7204,0.519564214,69988,5.047648555,1.18402078,16417,128,117353,8.463689502,4800,20146.48438,128
7936,0.572357246,69665,5.024353269,1.189934753,16499,128,117490,8.473570165,4864,20148.4375,128
3859,0.278317365,69399,5.005168915,0.276947054,3840,128,117504,8.474579868,4928,20150.39063,128
28,0.002019406,69789,5.033296351,1.198372984,16616,128,117928,8.505159438,4992,20152.34375,128
7683,0.554110474,70211,5.063731678,1.223110702,16959,128,118394,8.538768117,5056,20154.29688,128
4033,0.290866529,69249,4.994350671,0.227255252,3151,128,117836,8.498524248,5120,20156.25,128
7231,0.521511498,70067,5.053346163,1.181640766,16384,128,118816,8.569203445,5184,20158.20313,128
240,0.017309191,69364,5.002644658,0.277740392,3851,128,118315,8.533070509,5248,20160.15625,128
7710,0.556057758,70686,5.097989452,1.189646267,16495,128,119151,8.59336419,5312,20162.10938,128
736,0.053081519,68330,4.928070894,0.175832531,2438,128,117172,8.450635487,5376,20164.0625,128
2019,0.145613568,69251,4.994494914,0.294688975,4086,128,117574,8.479628382,5440,20166.01563,128
4089,0.29490534,68987,4.975454804,0.260719688,3615,128,117298,8.459722812,5504,20167.96875,128
2014,0.14525296,69644,5.022838714,1.190295361,16504,128,117761,8.493115126,5568,20169.92188,128
4323,0.311781801,70309,5.070799598,1.214023377,16833,128,118108,8.518141331,5632,20171.875,128
4319,0.311493315,70710,5.099720371,1.271648559,17632,128,118456,8.543239658,5696,20173.82813,128
7097,0.511847199,69999,5.048441893,1.218422797,16894,128,118139,8.520377102,5760,20175.78125,128
6175,0.445351058,69778,5.032503013,0.294256245,4080,128,117836,8.498524248,5824,20177.73438,128
994,0.071688899,69017,4.977618453,0.237929253,3299,128,118129,8.519655886,5888,20179.6875,128
2055,0.148209947,68421,4.934633962,0.290794407,4032,128,118076,8.515833439,5952,20181.64063,128
3839,0.276874933,69317,4.999254942,0.277163419,3843,128,118243,8.527877751,6016,20183.59375,128
4082,0.294400489,69494,5.01202047,0.29533807,4095,128,118180,8.523334089,6080,20185.54688,128
7673,0.553389258,69945,5.044547325,1.186184428,16447,128,118380,8.537758414,6144,20187.5,128
7423,0.53535885,70030,5.050677663,1.239265947,17183,128,118581,8.552254862,6208,20189.45313,128
31,0.00223577,70044,5.051687366,1.196569943,16591,128,118494,8.54598028,6272,20191.40625,128
30,0.002163649,70396,5.077074179,1.184453509,16423,128,118821,8.569564053,6336,20193.35938,128
6399,0.461506303,69887,5.04036427,1.190800213,16511,128,118359,8.53624386,6400,20195.3125,128
0,0,69316,4.99918282,0.290722286,4031,128,118455,8.543167537,6464,20197.26563,128
4145,0.298944151,69681,5.025507215,1.217990067,16888,128,118538,8.549153632,6528,20199.21875,128
6143,0.443043166,71163,5.132391469,1.248497516,17311,128,119314,8.605120016,6592,20201.17188,128
2032,0.14655115,69552,5.016203525,0.291227137,4038,128,118724,8.562568255,6656,20203.125,128
7728,0.557355947,69668,5.024569634,0.582670639,8079,128,118925,8.577064702,6720,20205.07813,128
8068,0.581877301,71708,5.171697756,1.327037969,18400,128,120033,8.656975467,6784,20207.03125,128
775,0.055894262,72051,5.196435475,1.182145617,16391,128,120384,8.682290159,6848,20208.98438,128
1573,0.113447322,69664,5.024281147,0.574665138,7968,128,117843,8.4990291,6912,20210.9375,128
4043,0.291587745,70548,5.088036667,0.281490717,3903,128,118513,8.547350591,6976,20212.89063,128
3,2.16E-04,70001,5.048586136,1.195343875,16574,128,118957,8.579372594,7040,20214.84375,128
4337,0.312791504,70736,5.101595533,0.291227137,4038,128,119149,8.593219947,7104,20216.79688,128
6471,0.46669906,69555,5.01641989,0.29533807,4095,128,118149,8.521098318,7168,20218.75,128
6200,0.447154098,69962,5.045773392,0.554615325,7690,128,118971,8.580382297,7232,20220.70313,128
7168,0.516967835,69969,5.046278244,0.58447368,8104,128,118954,8.579156229,7296,20222.65625,128
460,0.033175949,70088,5.054860718,0.554038352,7682,128,118786,8.567039796,7360,20224.60938,128
7420,0.535142486,70121,5.057240731,1.181857131,16387,128,118823,8.569708296,7424,20226.5625,128
45,0.003245473,69357,5.002139807,0.258411796,3583,128,118239,8.527589265,7488,20228.51563,128
26,0.001875162,70034,5.05096615,1.181640766,16384,128,118864,8.572665283,7552,20230.46875,128
7873,0.567813583,71383,5.148258227,1.248425394,17310,128,119702,8.633103208,7616,20232.42188,128
5632,0.406189013,71174,5.133184806,1.181712887,16385,128,119503,8.618751004,7680,20234.375,128
20,0.001442433,70548,5.088036667,1.18272259,16399,128,118799,8.567977377,7744,20236.32813,128
6956,0.50167805,70440,5.080247531,1.186761402,16455,128,118853,8.571871945,7808,20238.28125,128
14,0.001009703,70968,5.118327751,1.196714186,16593,128,119251,8.600576353,7872,20240.23438,128
254,0.018318894,70646,5.095104586,0.590748261,8191,128,119244,8.600071502,7936,20242.1875,128
4224,0.30464176,69804,5.034378175,0.291299259,4039,128,118671,8.558745808,8000,20244.14063,128
7060,0.509178699,70549,5.088108789,1.21503308,16847,128,119774,8.638295965,8064,20246.09375,128
287,0.020698907,70930,5.115587129,1.21856704,16896,128,119424,8.613053395,8128,20248.04688,128
1024,0.073852548,70700,5.098999154,1.200031781,16639,128,118842,8.571078607,8192,20250,128
2047,0.147632974,71737,5.173789283,1.252896935,17372,128,120139,8.664620359,8256,20251.95313,128
633,0.045652991,71674,5.169245621,1.324730077,18368,128,120479,8.689141713,8320,20253.90625,128
7681,0.553966231,71519,5.158066768,1.196569943,16591,128,119843,8.643272357,8384,20255.85938,128
8191,0.590748261,70650,5.095393073,1.189718388,16496,128,120144,8.664980968,8448,20257.8125,128
1087,0.07839621,71916,5.186699055,1.200320268,16643,128,121184,8.739987462,8512,20259.76563,128
8125,0.585988234,71613,5.164846202,1.190295361,16504,128,120953,8.723327365,8576,20261.71875,128
8159,0.588440369,71505,5.157057066,1.238112001,17167,128,120651,8.701546633,8640,20263.67188,128
2046,0.147560852,71512,5.157561917,1.190800213,16511,128,120943,8.722606149,8704,20265.625,128
7,5.05E-04,72149,5.203503395,1.183299563,16407,128,121206,8.741574137,8768,20267.57813,128
8095,0.583824585,72084,5.198815489,1.191954159,16527,128,120975,8.724914041,8832,20269.53125,128
1025,0.073924669,72771,5.248363048,1.246333867,17281,128,121353,8.752176017,8896,20271.48438,128
64,0.004615784,72924,5.259397657,1.182073496,16390,128,120998,8.726572839,8960,20273.4375,128
1999,0.144171136,73676,5.313633122,1.310810603,18175,128,122503,8.83511589,9024,20275.39063,128
1055,0.076088318,72733,5.245622426,1.21416762,16835,128,121751,8.780880425,9088,20277.34375,128
8191,0.590748261,72648,5.239492087,1.21856704,16896,128,121393,8.755060882,9152,20279.29688,128
4095,0.29533807,73705,5.315724649,1.790924286,24832,128,123183,8.884158597,9216,20281.25,128
8143,0.587286423,71115,5.12892963,0.588945221,8166,128,120716,8.706234539,9280,20283.20313,128
7215,0.520357552,71149,5.131381766,0.564207502,7823,128,120991,8.726067987,9344,20285.15625,128
4087,0.294761097,72854,5.254349143,1.218855526,16900,128,122501,8.834971647,9408,20287.10938,128
4064,0.293102299,72265,5.211869503,1.199382687,16630,128,121780,8.782971952,9472,20289.0625,128
816,0.058851249,72726,5.245117574,1.193396591,16547,128,122301,8.820547321,9536,20291.01563,128
1,7.21E-05,74416,5.367003127,1.327110091,18401,128,122911,8.864541514,9600,20292.96875,128
4087,0.294761097,73151,5.275769267,1.250877529,17344,128,122805,8.856896622,9664,20294.92188,128
4090,0.294977462,73941,5.332745353,1.78046665,24687,128,122796,8.856247527,9728,20296.875,128
4095,0.29533807,73659,5.312407054,1.218783405,16899,128,122374,8.8258122,9792,20298.82813,128
3968,0.286178623,72716,5.244396358,0.573150584,7947,128,122715,8.850405675,9856,20300.78125,128
3091,0.222927955,72754,5.24713698,0.581805179,8067,128,122634,8.844563823,9920,20302.73438,128
3847,0.277451906,72487,5.227880505,0.559014745,7751,128,122438,8.830427984,9984,20304.6875,128
4079,0.294184124,73134,5.274543199,1.20926335,16767,128,122719,8.850694162,10048,20306.64063,128
3889,0.280481014,73335,5.289039646,1.18272259,16399,128,122381,8.826317051,10112,20308.59375,128
7,5.05E-04,72797,5.25023821,0.579208801,8031,128,122451,8.831365565,10176,20310.54688,128
113,0.008149744,73809,5.323225298,1.779889677,24679,128,123494,8.906588424,10240,20312.5,128
0,0,73280,5.285072957,1.18272259,16399,128,121951,8.795304751,10304,20314.45313,128
1799,0.12974681,73236,5.281899605,1.817969897,25207,128,123509,8.907670248,10368,20316.40625,128
303,0.021852854,75118,5.41763251,1.773542973,24591,128,125119,9.023786071,10432,20318.35938,128
455,0.032815341,74055,5.340967219,1.792583083,24855,128,123223,8.887043463,10496,20320.3125,128
2051,0.147921461,72206,5.207614327,0.5198527,7208,128,122283,8.819249132,10560,20322.26563,128
3904,0.281562839,72263,5.21172526,0.586997937,8139,128,121819,8.785784696,10624,20324.21875,128
4344,0.313296355,71673,5.169173499,0.572645732,7940,128,122373,8.825740078,10688,20326.17188,128
3708,0.267427,72824,5.252185494,1.183948658,16416,128,122401,8.827759484,10752,20328.125,128
1056,0.07616044,73079,5.270576509,1.190583848,16508,128,122220,8.814705469,10816,20330.07813,128
1329,0.095849645,73592,5.307574905,1.183804415,16414,128,122544,8.838072877,10880,20332.03125,128
639,0.046085721,74067,5.341832679,1.772677514,24579,128,122814,8.857545716,10944,20333.98438,128
1,7.21E-05,72198,5.207037354,0.559519596,7758,128,121483,8.761551829,11008,20335.9375,128
255,0.018391015,72446,5.224923518,0.570049354,7904,128,121547,8.766167613,11072,20337.89063,128
736,0.053081519,72424,5.223336842,0.562837191,7804,128,121461,8.759965153,11136,20339.84375,128
2335,0.168404003,71993,5.19225242,0.552956528,7667,128,121298,8.748209327,11200,20341.79688,128
7040,0.507736267,72196,5.206893111,0.572213003,7934,128,122094,8.805618144,11264,20343.75,128
56,0.004038811,72442,5.224635032,1.181640766,16384,128,120994,8.726284352,11328,20345.70313,128
797,0.057480938,72473,5.226870802,1.190872334,16512,128,121500,8.762777896,11392,20347.65625,128
7935,0.572285124,72355,5.21836045,1.190800213,16511,128,120943,8.722606149,11456,20349.60938,128
3194,0.230356482,72946,5.260984333,1.248281151,17308,128,120732,8.707388485,11520,20351.5625,128
29,0.002091527,72209,5.207830692,0.582237909,8073,128,120603,8.698084795,11584,20353.51563,128
243,0.017525556,71923,5.187203906,0.555625028,7704,128,120377,8.681785307,11648,20355.46875,128
7936,0.572357246,71231,5.137295739,0.586565207,8133,128,119757,8.637069897,11712,20357.42188,128
32,0.002307892,71010,5.121356859,0.581588814,8064,128,119581,8.624376491,11776,20359.375,128
6260,0.451481396,72564,5.23343387,1.211571242,16799,128,120255,8.672986468,11840,20361.32813,128
63,0.004543663,70767,5.103831304,0.488263427,6770,128,119366,8.60887034,11904,20363.28125,128
7790,0.561827488,70254,5.066832908,0.55129773,7644,128,119256,8.600936961,11968,20365.23438,128
6879,0.496124684,72351,5.218071964,1.256791503,17426,128,120146,8.665125211,12032,20367.1875,128
8191,0.590748261,72333,5.216773774,1.306194819,18111,128,120013,8.655533034,12096,20369.14063,128
8070,0.582021544,70585,5.090705167,0.535935823,7431,128,118696,8.560548849,12160,20371.09375,128
7936,0.572357246,71224,5.136790888,0.294256245,4080,128,119118,8.590984177,12224,20373.04688,128
2559,0.184559248,71824,5.180063865,1.2531133,17375,128,119608,8.626323775,12288,20375,128
1020,0.073564061,71364,5.146887916,1.18272259,16399,128,119374,8.609447313,12352,20376.95313,128
1792,0.129241959,72966,5.262426765,1.186328672,16449,128,119381,8.609952165,12416,20378.90625,128
8160,0.588512491,69674,5.025002363,0.293895637,4075,128,118763,8.565380998,12480,20380.85938,128
24,0.001730919,69714,5.027887228,0.290794407,4032,128,118720,8.562279768,12544,20382.8125,128
8191,0.590748261,70591,5.091137897,0.277307663,3845,128,118533,8.548793024,12608,20384.76563,128
7231,0.521511498,71142,5.130876914,1.216114904,16862,128,118746,8.564154931,12672,20386.71875,128
755,0.05445183,71399,5.149412173,1.190800213,16511,128,119285,8.603028489,12736,20388.67188,128
353,0.025458935,71021,5.122150197,1.190800213,16511,128,118901,8.575333783,12800,20390.625,128
7408,0.534277026,71152,5.131598131,1.182650469,16398,128,118478,8.544826334,12864,20392.57813,128
8163,0.588728856,71811,5.179126284,1.254267246,17391,128,118476,8.544682091,12928,20394.53125,128
4088,0.294833218,73128,5.274110469,1.327254334,18403,128,120034,8.657047588,12992,20396.48438,128
8191,0.590748261,71103,5.128064171,0.295121705,4092,128,118588,8.552759713,13056,20398.4375,128
7939,0.572573611,71438,5.152224916,1.183948658,16416,128,118624,8.555356092,13120,20400.39063,128
1215,0.087627779,71103,5.128064171,0.29533807,4095,128,118377,8.53754205,13184,20402.34375,128
1021,0.073636183,70637,5.094455492,0.28560165,3960,128,118634,8.556077308,13248,20404.29688,128
14,0.001009703,71180,5.133617536,1.200103903,16640,128,118636,8.556221551,13312,20406.25,128
16252,1.172120711,74104,5.344501179,1.200031781,16639,128,120469,8.688420497,13376,20408.20313,128
8161,0.588584612,71303,5.142488497,1.186184428,16447,128,118590,8.552903957,13440,20410.15625,128
446,0.032166246,70423,5.079021463,0.293102299,4064,128,118676,8.559106417,13504,20412.10938,128
7944,0.572934219,71176,5.13332905,0.581516693,8063,128,118849,8.571583458,13568,20414.0625,128
459,0.033103828,72011,5.19355061,1.219720986,16912,128,119314,8.605120016,13632,20416.01563,128
2109,0.152104515,71921,5.187059663,1.213951256,16832,128,119616,8.626900748,13696,20417.96875,128
8140,0.587070058,70604,5.092075478,0.258411796,3583,128,118243,8.527877751,13760,20419.92188,128
61,0.004399419,70845,5.109456791,0.258628161,3586,128,118310,8.5327099,13824,20421.875,128
6650,0.479608831,70010,5.049235231,0.295121705,4092,128,118189,8.523983183,13888,20423.82813,128
8185,0.590315532,70633,5.094167005,0.290866529,4033,128,118621,8.555139727,13952,20425.78125,128
