Device,Device,Device,Device,Device,Device,Device,Device,Device,Device,Device,Device
ECG Vx-RL,ECG Vx-RL,ECG LA-RA,ECG LA-RA,ExG2 CH1,ExG2 CH1,EXG1 Status,ECG LL-RA,ECG LL-RA,Timestamp,Timestamp,EXG2 Status
CAL,RAW,CAL,RAW,RAW,CAL,RAW,CAL,RAW,RAW,CAL,RAW
mV,No Units,mV,No Units,No Units,mV,No Units,mV,No Units,No Units,mSecs,No Units
0.00973642,135,3.703950489,51357,184,0.01327038,0,5.718451824,79289,64,46001.95313,0
7.21E-05,1,3.650580484,50617,16111,1.161951561,0,5.698978984,79019,128,46003.90625,0
0.00973642,135,6.046677357,83840,184,0.01327038,128,5.684338294,78816,192,46005.85938,0
2.353977842,32639,6.045307046,83821,15134,1.09148873,128,5.651883561,78366,256,46007.8125,128
0.004327298,60,5.985806702,82996,12798,0.923012605,128,5.640199857,78204,320,46009.76563,128
-17.72475573,-245762,5.892769801,81706,12415,0.895390021,128,5.682463131,78790,384,46011.71875,128
0.010313393,143,5.918156614,82058,12350,0.890702115,128,5.61553426,77862,448,46013.67188,128
-18.89687644,-262014,5.991720675,83078,16359,1.179837725,128,5.59252746,77543,512,46015.625,128
1.164475818,16146,5.891038882,81682,16256,1.172409197,128,5.530574981,76684,576,46017.57813,128
-18.90625225,-262144,5.917146911,82044,16127,1.163105507,128,5.591806244,77533,640,46019.53125,128
587.289885,8143048,5.953207726,82544,3072,0.221557644,128,5.626785234,78018,704,46021.48438,0
0.010241271,142,5.953207726,82544,0,0,128,5.626785234,78018,768,46023.4375,0
-14.32732216,-198655,217.2742679,3012609,1,7.21E-05,30,7.21E-05,1,832,46025.39063,128
0,0,217.2742679,3012609,192,0.013847353,30,7.21E-05,1,896,46027.34375,0
0.091738712,1272,-302.5000361,-4194304,0,0,2,5.967776295,82746,960,46029.29688,0
4.431152872,61440,-388.759812,-5390336,14080,1.015472533,0,217.4446914,3014972,1024,46031.25,0
7.21E-05,1,7.21E-05,1,192,0.013847353,19,283.7737994,3934656,1088,46033.20313,128
-14.17867949,-196594,7.21E-05,1,14337,1.034007792,19,283.7737994,3934656,1152,46035.15625,0
4.68963679,65024,-157.1582219,-2179072,14336,1.03393567,0,-179.5864617,-2490050,1216,46037.10938,128
594.3653052,8241152,5.84711681,81073,318,0.022934678,128,5.49069172,76131,1280,46039.0625,0
-18.88894306,-261904,5.84711681,81073,16369,1.180558941,128,5.49069172,76131,1344,46041.01563,128
-14.17968919,-196608,5.834495525,80898,16355,1.179549239,128,5.483263193,76028,1408,46042.96875,128
5.760498734,79872,5.777014587,80101,15628,1.127116815,128,5.490258991,76125,1472,46044.92188,128
5.848487121,81092,5.81437359,80619,16128,1.163177629,128,5.490331112,76126,1536,46046.875,128
5.835144619,80907,5.838606458,80955,14336,1.03393567,128,5.511967601,76426,1600,46048.82813,128
-13.12757887,-182020,5.770379397,80009,15833,1.141901748,128,5.472877678,75884,1664,46050.78125,128
-13.13306011,-182096,5.877263651,81491,14373,1.03660417,128,5.489609896,76116,1728,46052.73438,128
5.926306358,82171,5.87235938,81423,14848,1.070861944,128,5.491773545,76146,1792,46054.6875,128
4.97350752,68960,5.735761015,79529,14720,1.061630376,128,5.481748638,76007,1856,46056.64063,128
5.167370459,71648,5.79309771,80324,16142,1.164187332,128,5.494442045,76183,1920,46058.59375,128
5.309810675,73623,5.802257157,80451,16370,1.180631063,128,5.492494761,76156,1984,46060.54688,128
5.769586059,79998,5.795694088,80360,16366,1.180342577,128,5.455496365,75643,2048,46062.5,128
-12.99812055,-180225,5.741170137,79604,14301,1.031411413,128,5.440783553,75439,2112,46064.45313,128
5.74174711,79612,5.734102217,79506,14236,1.026723507,128,5.468189772,75819,2176,46066.40625,128
-13.03785956,-180776,5.734390704,79510,15879,1.145219343,128,5.471867975,75870,2240,46068.35938,128
-11.81056581,-163759,5.79309771,80324,14847,1.070789822,128,5.491773545,76146,2304,46070.3125,128
7.3849663,102396,5.812642671,80595,14398,1.038407211,128,5.458669717,75687,2368,46072.26563,128
7.385038422,102397,5.871421799,81410,16372,1.180775306,128,5.470497664,75851,2432,46074.21875,128
-11.26251355,-156160,5.831682781,80859,14447,1.041941171,128,5.480522571,75990,2496,46076.17188,128
-10.77374527,-149383,5.823460916,80745,16379,1.181280158,128,5.478575287,75963,2560,46078.125,128
-10.63700266,-147487,5.716720905,79265,15423,1.112331881,128,5.491412937,76141,2624,46080.07813,128
8.259873779,114527,5.747372597,79690,15900,1.146733898,128,5.475906786,75926,2688,46082.03125,128
-10.78247199,-149504,5.746579259,79679,14109,1.01756406,128,5.462924893,75746,2752,46083.98438,128
8.271196875,114684,5.713475432,79220,15612,1.125962868,128,5.486869274,76078,2816,46085.9375,128
9.386197255,130144,5.793458318,80329,14724,1.061918862,128,5.502014816,76288,2880,46087.89063,128
-9.60025425,-133112,5.772543046,80039,14397,1.038335089,128,5.483046828,76025,2944,46089.84375,128
-9.598306966,-133085,5.749824733,79724,16129,1.163249751,128,5.454558784,75630,3008,46091.79688,128
-9.51789135,-131970,5.800598359,80428,16373,1.180847428,128,5.447418743,75531,3072,46093.75,128
9.45283764,131068,5.838822822,80958,14392,1.037974481,128,5.494730532,76187,3136,46095.70313,128
-9.522218647,-132030,5.723644581,79361,15623,1.126756206,128,5.484417139,76044,3200,46097.65625,128
-9.453198249,-131073,5.76165268,79888,16135,1.16368248,128,5.516871872,76494,3264,46099.60938,128
-4.7086769,-65288,5.733092515,79492,15987,1.153008479,128,5.47915226,75971,3328,46101.5625,128
-4.694180452,-65087,5.71737,79274,15475,1.116082205,128,5.449221784,75556,3392,46103.51563,128
-4.412761857,-61185,5.67222186,78648,13295,0.958857055,128,5.463501866,75754,3456,46105.46875,128
0.312791504,4337,5.749175638,79715,16382,1.181496523,128,5.48802322,76094,3520,46107.42188,128
-4.283015046,-59386,5.781341884,80161,14529,1.047855144,128,5.505837262,76341,3584,46109.375,128
0.535286729,7422,5.758262963,79841,14336,1.03393567,128,5.481532273,76004,3648,46111.32813,128
1.047494536,14524,5.836875538,80931,14480,1.044321185,128,5.497903883,76231,3712,46113.28125,128
-3.545138662,-49155,5.887360679,81631,15867,1.144353884,128,5.492062031,76150,3776,46115.23438,128
-3.58884437,-49761,5.864209636,81310,14831,1.069635876,128,5.528194967,76651,3840,46117.1875,128
-3.549538082,-49216,5.751988381,79754,15423,1.112331881,128,5.46898311,75830,3904,46119.14063,128
-4.597248983,-63743,5.744704097,79653,14305,1.0316999,128,5.463285501,75751,3968,46121.09375,128
-4.624150351,-64116,5.705974782,79116,15375,1.108870042,128,5.502519667,76295,4032,46123.04688,128
-4.421704939,-61309,5.685275875,78829,14395,1.038190846,128,5.444101148,75485,4096,46125,128
0.519131484,7198,5.754512638,79789,14324,1.033070211,128,5.492278396,76153,4160,46126.95313,128
0.590748261,8191,5.719461527,79303,16374,1.18091955,128,5.495812356,76202,4224,46128.90625,128
1.16721644,16184,5.836082201,80920,15352,1.107211245,128,5.535984103,76759,4288,46130.85938,128
-3.579540679,-49632,5.83384643,80889,15303,1.103677285,128,5.510453047,76405,4352,46132.8125,128
-3.60745175,-50019,5.83781312,80944,14815,1.06848193,128,5.483623801,76033,4416,46134.76563,128
1.128631369,15649,5.608754827,77768,12224,0.88161479,128,5.466170367,75791,4480,46136.71875,128
-2.321811595,-32193,5.735328285,79523,15961,1.151133317,128,5.500644505,76269,4544,46138.67188,128
-2.139992969,-29672,5.778096411,80116,14723,1.06184674,128,5.542402928,76848,4608,46140.625,128
0.440807395,6112,5.737564056,79554,16030,1.156109709,128,5.48182076,76008,4672,46142.57813,128
-1.310738481,-18174,5.838606458,80955,14783,1.066174038,128,5.519540372,76531,4736,46144.53125,128
-1.781259988,-24698,5.896159517,81753,16191,1.167721292,128,5.522064629,76566,4800,46146.48438,128
1.145868438,15888,5.663206656,78523,14384,1.037397508,128,5.50086087,76272,4864,46148.4375,128
1.149258155,15935,5.697103822,78993,14844,1.070573458,128,5.505909384,76342,4928,46150.39063,128
-1.198300862,-16615,5.710951175,79185,16383,1.181568644,128,5.510308803,76403,4992,46152.34375,128
1.163177629,16128,5.748021692,79699,14336,1.03393567,128,5.511390628,76418,5056,46154.29688,128
2.16E-04,3,5.77629337,80091,14392,1.037974481,128,5.522785845,76576,5120,46156.25,128
0.221774008,3075,5.782567952,80178,15870,1.144570249,128,5.573126742,77274,5184,46158.20313,128
0.553894109,7680,5.774923059,80072,16334,1.178034684,128,5.558269686,77068,5248,46160.15625,128
0.561827488,7790,5.786318277,80230,15360,1.107788218,128,5.544566577,76878,5312,46162.10938,128
0.461217816,6395,5.747084111,79686,15878,1.145147222,128,5.535046522,76746,5376,46164.0625,128
-5.77E-04,-8,5.759705396,79861,16383,1.181568644,128,5.549975699,76953,5440,46166.01563,128
-0.144387501,-2002,5.800670481,80429,15807,1.140026586,128,5.572766134,77269,5504,46167.96875,128
-0.110923065,-1538,5.622962788,77965,15971,1.151854533,128,5.588560771,77488,5568,46169.92188,128
1.172264954,16254,5.664432724,78540,15888,1.145868438,128,5.594402623,77569,5632,46171.875,128
-0.056615479,-785,5.391380238,74754,16283,1.174356481,128,5.604499651,77709,5696,46173.82813,128
-4.719639387,-65440,5.362098856,74348,15611,1.125890747,128,5.558702416,77074,5760,46175.78125,128
-4.717331495,-65408,5.343419354,74089,16321,1.177097103,128,5.569881269,77229,5824,46177.73438,128
-4.709253873,-65296,5.355103058,74251,16377,1.181135914,128,5.577598283,77336,5888,46179.6875,128
-4.417017033,-61244,4.855516536,67324,16319,1.17695286,128,5.602480245,77681,5952,46181.64063,128
0.242328673,3360,4.186299942,58045,12316,0.88824998,128,5.620366409,77929,6016,46183.59375,128
-0.26879731,-3727,4.457333023,61803,16127,1.163105507,128,5.565698214,77171,6080,46185.54688,128
-0.073996791,-1026,4.145046371,57473,15895,1.146373289,128,5.551706618,76977,6144,46187.5,128
0.589594315,8175,4.11136557,57006,16320,1.177024982,128,5.645032006,78271,6208,46189.45313,128
-0.590027045,-8181,4.166322251,57768,16147,1.16454794,128,5.741025894,79602,6272,46191.40625,128
-0.267499121,-3709,4.166538616,57771,16135,1.16368248,128,5.728693095,79431,6336,46193.35938,128
0.295626556,4099,3.973252651,55091,12288,0.886230574,128,5.616832449,77880,6400,46195.3125,128
0.553966231,7681,3.951760406,54793,12294,0.886663304,128,5.653037507,78382,6464,46197.26563,128
1.181640766,16384,3.989624261,55318,15456,1.114711894,128,5.694146835,78952,6528,46199.21875,128
-1.181640766,-16384,4.039388184,56008,15775,1.137718694,128,5.70676812,79127,6592,46201.17188,128
1.385240124,19207,4.008231641,55576,14334,1.033791427,128,5.759416909,79857,6656,46203.125,128
1.314344563,18224,3.886923061,53894,14336,1.03393567,128,5.748670786,79708,6720,46205.07813,128
-0.885725723,-12281,4.013640763,55651,14351,1.035017495,128,5.804565049,80483,6784,46207.03125,128
1.748877376,24249,4.067948349,56404,15328,1.105480326,128,5.8024014,80453,6848,46208.98438,128
-0.595508289,-8257,3.982844828,55224,16039,1.156758804,128,5.756532044,79817,6912,46210.9375,128
-0.593561005,-8230,4.029651765,55873,16355,1.179549239,128,5.771172735,80020,6976,46212.89063,128
-0.591108869,-8196,4.056769497,56249,14383,1.037325387,128,5.7793946,80134,7040,46214.84375,128
2.288491403,31731,4.038666968,55998,14396,1.038262968,128,5.744776219,79654,7104,46216.79688,128
-0.004760027,-66,3.973180529,55090,13823,0.996937275,128,5.713980283,79227,7168,46218.75,128
-0.073852548,-1024,4.026189926,55825,15367,1.108293069,128,5.709076012,79159,7232,46220.70313,128
2.326571623,32259,4.067155012,56393,16332,1.177890441,128,5.784082506,80199,7296,46222.65625,128
-0.12931408,-1793,3.934018485,54547,13263,0.956549162,128,5.657076318,78438,7360,46224.60938,128
3.581271598,49656,4.089368473,56701,16134,1.163610359,128,5.732659785,79486,7424,46226.5625,128
2.347054165,32543,4.025973562,55822,15448,1.114134921,128,5.665875157,78560,7488,46228.51563,128
-1.042662387,-14457,3.946062797,54714,12325,0.888899075,128,5.602985096,77688,7552,46230.46875,128
-1.105985177,-15335,3.936326377,54579,16135,1.16368248,128,5.602840853,77686,7616,46232.42188,128
-0.886302696,-12289,4.088142406,56684,15899,1.146661776,128,5.651667196,78363,7680,46234.375,128
-0.918613186,-12737,4.065784701,56374,16319,1.17695286,128,5.598369312,77624,7744,46236.32813,128
3.852953774,53423,3.926589957,54444,12224,0.88161479,128,5.581853459,77395,7808,46238.28125,128
3.835716705,53184,3.81292627,52868,15520,1.119327679,128,5.568943688,77216,7872,46240.23438,128
4.133434788,57312,3.893341886,53983,16376,1.181063793,128,5.570674607,77240,7936,46242.1875,128
4.135670559,57343,3.891178237,53953,15388,1.109807624,128,5.557476349,77057,8000,46244.14063,128
-0.289928948,-4020,3.879422412,53790,15361,1.10786034,128,5.556394524,77042,8064,46246.09375,128
4.726346699,65533,3.920892348,54365,15872,1.144714492,128,5.526391927,76626,8128,46248.04688,128
4.689708911,65025,3.930484525,54498,14342,1.0343684,128,5.504611195,76324,8192,46250,128
-0.290794407,-4032,3.963948961,54962,14343,1.034440522,128,5.526319805,76625,8256,46251.95313,128
-0.018463137,-256,3.991283058,55341,15167,1.093868744,128,5.507279695,76361,8320,46253.90625,128
4.498081743,62368,3.973396894,55093,14524,1.047494536,128,5.491196572,76138,8384,46255.85938,128
-0.145469325,-2017,4.008880736,55585,14909,1.075261363,128,5.528483454,76655,8448,46257.8125,128
3.545282906,49157,4.000514627,55469,16264,1.17298617,128,5.559351511,77083,8512,46259.76563,128
-1.111899151,-15417,3.95817923,54882,16375,1.180991671,128,5.514996709,76468,8576,46261.71875,128
-1.164331575,-16144,3.868099316,53633,14721,1.061702497,128,5.478647408,75964,8640,46263.67188,128
3.691906177,51190,3.99005699,55324,14352,1.035089616,128,5.526247683,76624,8704,46265.625,128
-0.870003208,-12063,3.950390095,54774,16351,1.179260752,128,5.496966302,76218,8768,46267.57813,128
-0.606975628,-8416,3.972892043,55086,14399,1.038479333,128,5.524805251,76604,8832,46269.53125,128
4.117279544,57088,3.969574448,55040,14336,1.03393567,128,5.52653617,76628,8896,46271.48438,128
4.095066082,56780,4.016309263,55688,16320,1.177024982,128,5.534902279,76744,8960,46273.4375,128
4.638574676,64316,4.047826415,56125,15344,1.106634272,128,5.536633198,76768,9024,46275.39063,128
4.503851474,62448,3.987316368,55286,15824,1.141252654,128,5.493937194,76176,9088,46277.34375,128
-0.114961876,-1594,3.872931465,53700,15399,1.110600962,128,5.486220179,76069,9152,46279.29688,128
4.723029104,65487,3.976137516,55131,15420,1.112115516,128,5.55221147,76984,9216,46281.25,128
-0.154773015,-2146,3.953635568,54819,16271,1.173491022,128,5.545936888,76897,9280,46283.20313,128
4.724255171,65504,3.975199935,55118,14374,1.036676292,128,5.527113143,76636,9344,46285.15625,128
4.578857968,63488,4.017823817,55709,15904,1.147022384,128,5.531584684,76698,9408,46287.10938,128
-0.145469325,-2017,4.050999767,56169,15239,1.099061501,128,5.531224076,76693,9472,46289.0625,128
4.717331495,65408,3.985513328,55261,14616,1.054129726,128,5.51283306,76438,9536,46291.01563,128
-7.21E-05,-1,3.921541443,54374,15267,1.101080907,128,5.51679975,76493,9600,46292.96875,128
0.163860341,2272,4.060952551,56307,15423,1.112331881,128,5.539878671,76813,9664,46294.92188,128
0.00223577,31,3.971810218,55071,16007,1.154450912,128,5.498264491,76236,9728,46296.875,128
0.23201528,3217,3.979815719,55182,15360,1.107788218,128,5.542763536,76853,9792,46298.82813,128
0.364791198,5058,3.996115207,55408,16363,1.180126212,128,5.520477953,76544,9856,46300.78125,128
0.582237909,8073,4.040686374,56026,16144,1.164331575,128,5.528194967,76651,9920,46302.73438,128
0.009159447,127,4.061096795,56309,15359,1.107716096,128,5.524949494,76606,9984,46304.6875,128
0.036565666,507,4.057274348,56256,15359,1.107716096,128,6.065645345,84103,10048,46306.64063,128
0.555913515,7708,3.957241649,54869,4803,0.346400183,128,7.510097326,104131,10112,46308.59375,128
0.516390862,7160,3.913608064,54264,13059,0.94183635,128,7.7374247,107283,10176,46310.54688,128
0.553894109,7680,4.041119104,56032,15931,1.148969668,128,7.795049881,108082,10240,46312.5,128
0.562765069,7803,4.033257846,55923,15634,1.127549544,128,7.774278852,107794,10304,46314.45313,128
0.461001451,6392,4.002461911,55496,14345,1.034584765,128,7.743771403,107371,10368,46316.40625,128
0.068948277,956,4.02900267,55864,14463,1.043095117,128,7.71751913,107007,10432,46318.35938,128
0.461506303,6399,4.036936049,55974,15391,1.110023988,128,7.756753296,107551,10496,46320.3125,128
0.055389411,768,4.03787363,55987,16260,1.172697684,128,7.797141409,108111,10560,46322.26563,128
5.05E-04,7,3.937408201,54594,13368,0.964121933,128,7.774783704,107801,10624,46324.21875,128
0.064837344,899,3.91432928,54274,12291,0.886446939,128,7.741463511,107339,10688,46326.17188,128
0.143594163,1991,4.011693479,55624,14841,1.070357093,128,7.743410795,107366,10752,46328.125,128
0,0,3.959333177,54898,12403,0.894524562,128,7.675039491,106418,10816,46330.07813,128
1.44E-04,2,4.049701577,56151,14340,1.034224157,128,7.726245847,107128,10880,46332.03125,128
0.008726717,121,4.069174417,56421,16131,1.163393994,128,7.70864817,106884,10944,46333.98438,128
1.44E-04,2,4.058716781,56276,14527,1.047710901,128,7.712398495,106936,11008,46335.9375,128
0.518338146,7187,4.085618149,56649,15263,1.10079242,128,7.728048888,107153,11072,46337.89063,128
0.590531896,8188,4.156225223,57628,16128,1.163177629,128,7.782717083,107911,11136,46339.84375,128
1.793087935,24862,4.057418592,56258,16345,1.178828022,128,7.741247146,107336,11200,46341.79688,128
1.326388875,18391,3.98515272,55256,12289,0.886302696,128,7.744925349,107387,11264,46343.75,128
1.253257543,17377,4.071193823,56449,16321,1.177097103,128,7.829812506,108564,11328,46345.70313,128
1.476978836,20479,4.040902739,56029,15408,1.111250056,128,7.789496516,108005,11392,46347.65625,128
1.772389027,24575,4.056841619,56250,15999,1.153873939,128,7.800459004,108157,11456,46349.60938,128
2.34503476,32515,4.080497513,56578,16295,1.175221941,128,7.969656345,110503,11520,46351.5625,128
2.077030787,28799,4.160913129,57693,15920,1.14817633,128,8.164456864,113204,11584,46353.51563,128
4.144830006,57470,4.153196115,57586,958,0.06909252,128,8.321537771,115382,11648,46355.46875,128
3.64733501,50572,4.092469703,56744,2142,0.154484529,128,8.425825647,116828,11712,46357.42188,128
3.831605772,53127,4.108480705,56966,2046,0.147560852,128,8.562856741,118728,11776,46359.375,128
4.091604244,56732,4.008592249,55581,5662,0.408352662,128,8.688781105,120474,11840,46361.32813,128
4.117207422,57087,3.945630067,54708,6777,0.488768278,128,8.833961944,122487,11904,46363.28125,128
4.670885166,64764,3.975272056,55119,12307,0.887600885,128,9.003592015,124839,11968,46365.23438,128
4.597248983,63743,4.010178925,55603,16380,1.181352279,128,9.076939711,125856,12032,46367.1875,128
4.661437233,64633,4.020348074,55744,15472,1.11586584,128,9.125621811,126531,12096,46369.14063,128
4.726274577,65532,4.079415688,56563,14365,1.036027197,128,9.171923896,127173,12160,46371.09375,128
4.709325994,65297,4.121246233,57143,15617,1.126323477,128,9.018593314,125047,12224,46373.04688,128
3.602547479,49951,4.084319959,56631,15328,1.105480326,128,8.809729077,122151,12288,46375,128
3.624544576,50256,4.063621052,56344,8035,0.579497287,128,8.578146527,118940,12352,46376.95313,128
4.107975853,56959,4.030589346,55886,2172,0.156648178,128,8.277976308,114778,12416,46378.90625,128
4.121895328,57152,4.014794709,55667,14343,1.034440522,128,7.984801887,110713,12480,46380.85938,128
4.100835812,56860,3.91786324,54323,13840,0.998163342,128,7.689680182,106621,12544,46382.8125,128
4.508467258,62512,3.917646875,54320,7199,0.519203606,128,7.617919161,105626,12608,46384.76563,128
4.72375032,65497,3.984792111,55251,6207,0.44765895,128,7.537070815,104505,12672,46386.71875,128
4.560250587,63230,3.967122312,55006,6024,0.434460692,128,7.526757422,104362,12736,46388.67188,128
4.652710516,64512,3.933080904,54534,8164,0.588800977,128,7.572482535,104996,12800,46390.625,128
0,0,3.971665975,55069,7871,0.56766934,128,7.619938567,105654,12864,46392.57813,128
0.590748261,8191,3.931926958,54518,15968,1.151638168,128,7.687877141,106596,12928,46394.53125,128
0.291299259,4039,4.091171514,56726,15422,1.112259759,128,7.688742601,106608,12992,46396.48438,128
0.572429368,7937,4.068453201,56411,15360,1.107788218,128,7.683549843,106536,13056,46398.4375,128
1.147238749,15907,4.179736874,57954,15896,1.146445411,128,7.732592551,107216,13120,46400.39063,128
1.185968064,16444,3.8443713,53304,9203,0.66373535,128,7.730501024,107187,13184,46402.34375,128
1.459597523,20238,3.855333788,53456,8731,0.629693941,128,7.758628459,107577,13248,46404.29688,128
1.698608601,23552,4.048403388,56133,16383,1.181568644,128,7.756609053,107549,13312,46406.25,128
1.767845365,24512,3.932792417,54530,15376,1.108942164,128,7.836447696,108656,13376,46408.20313,128
2.217812206,30751,3.911444415,54234,16381,1.181424401,128,7.849934441,108843,13440,46410.15625,128
2.326355258,32256,3.670918783,50899,15615,1.126179233,128,7.841135602,108721,13504,46412.10938,128
2.18297746,30268,3.648416835,50587,2,1.44E-04,128,7.868686064,109103,13568,46414.0625,128
2.326355258,32256,3.650724727,50619,14734,1.062640078,128,7.926311246,109902,13632,46416.01563,128
2.652921993,36784,3.440418057,47703,15872,1.144714492,128,7.896308648,109486,13696,46417.96875,128
2.917824735,40457,3.601609898,49938,14816,1.068554052,128,7.913834204,109729,13760,46419.92188,128
3.711379017,51460,3.541388338,49103,15843,1.142622965,128,7.935182206,110025,13824,46421.875,128
3.433205895,47603,3.415824582,47362,15984,1.152792114,128,7.956674451,110323,13888,46423.82813,128
2.62400122,36383,2.918545952,40467,15872,1.144714492,128,8.020213606,111204,13952,46425.78125,128
3.101662767,43006,3.078295359,42682,14621,1.054490334,128,7.996052861,110869,14016,46427.73438,128
2.494759261,34591,2.79449675,38747,14598,1.052831537,128,7.996124982,110870,14080,46429.6875,128
2.916598668,40440,2.826158145,39186,14593,1.052470929,128,7.996052861,110869,14144,46431.64063,128
2.659557183,36876,2.740117042,37993,16319,1.17695286,128,7.971315142,110526,14208,46433.59375,128
2.952226752,40934,2.802213764,38854,15745,1.135555045,128,7.995620131,110863,14272,46435.54688,128
3.545427149,49159,2.550148672,35359,248,0.017886164,128,8.026343945,111289,14336,46437.5,128
3.655701119,50688,2.774735424,38473,16227,1.17031767,128,8.020141485,111203,14400,46439.45313,128
3.553072042,49265,2.710979904,37589,13936,1.005087019,128,8.05800534,111728,14464,46441.40625,128
3.589060734,49764,2.610947205,36202,13308,0.959794636,128,8.028219107,111315,14528,46443.35938,128
2.356069369,32668,2.339337151,32436,14863,1.071943768,128,8.03499854,111409,14592,46445.3125,128
3.655917484,50691,2.65277775,36782,15233,1.098628771,128,8.040407662,111484,14656,46447.26563,128
3.561293907,49379,2.497716248,34632,16382,1.181496523,128,8.091902505,112198,14720,46449.21875,128
3.910146226,54216,2.519424858,34933,16320,1.177024982,128,8.096157681,112257,14784,46451.17188,128
4.133579032,57314,2.708167161,37550,16064,1.158561845,128,8.039686446,111474,14848,46453.125,128
3.60081656,49927,2.420834591,33566,15408,1.111250056,128,8.091181289,112188,14912,46455.07813,128
4.211903121,58400,2.416723659,33509,16129,1.163249751,128,8.07971395,112029,14976,46457.03125,128
4.209523107,58367,2.424080065,33611,15364,1.108076705,128,8.086998235,112130,15040,46458.98438,128
4.208874012,58358,2.433960728,33748,16136,1.163754602,128,8.107120169,112409,15104,46460.9375,128
2.36097364,32736,2.347414773,32548,14328,1.033358697,128,8.058077461,111729,15168,46462.89063,128
4.487047134,62215,2.406482387,33367,15367,1.108293069,128,8.073367247,111941,15232,46464.84375,128
4.503851474,62448,2.427253416,33655,16383,1.181568644,128,8.072646031,111931,15296,46466.79688,128
4.651484448,64495,2.407852698,33386,16175,1.166567345,128,8.071347841,111913,15360,46468.75,128
4.652710516,64512,2.384413169,33061,15840,1.1424066,128,8.075386652,111969,15424,46470.70313,128
4.717403617,65409,2.428551606,33673,15856,1.143560546,128,8.082526694,112068,15488,46472.65625,128
4.722235766,65476,2.488268314,34501,16383,1.181568644,128,8.11736144,112551,15552,46474.60938,128
0.110201849,1528,2.472906407,34288,15516,1.119039192,128,8.137411253,112829,15616,46476.5625,128
0.108975781,1511,2.462809379,34148,14343,1.034440522,128,8.133372442,112773,15680,46478.51563,128
7.21E-05,1,2.439081364,33819,16323,1.177241347,128,8.115342035,112523,15744,46480.46875,128
4.719495144,65438,2.411603023,33438,16334,1.178034684,128,8.111952318,112476,15808,46482.42188,128
4.33E-04,6,2.448168689,33945,14406,1.038984184,128,8.153566498,113053,15872,46484.375,128
4.695334398,65103,2.503702343,34715,16241,1.171327373,128,8.165394445,113217,15936,46486.32813,128
0.037863855,525,2.445283824,33905,14750,1.063794024,128,8.12132813,112606,16000,46488.28125,128
4.72418305,65503,2.476079759,34332,16351,1.179260752,128,8.13950278,112858,16064,46490.23438,128
0.009159447,127,2.562409349,35529,16382,1.181496523,128,8.160922904,113155,16128,46492.1875,128
0.25949362,3598,2.46857911,34228,15920,1.14817633,128,8.16604354,113226,16192,46494.14063,128
5.05E-04,7,2.538969819,35204,15891,1.146084803,128,8.169793864,113278,16256,46496.09375,128
0.078035602,1082,2.400424171,33283,16179,1.166855832,128,8.162581702,113178,16320,46498.04688,128
0.024737719,343,2.38801925,33111,15968,1.151638168,128,8.167630216,113248,16384,46500,128
0.03231049,448,2.460213001,34112,15840,1.1424066,128,8.233044533,114155,16448,46501.95313,128
0.007212163,100,2.368185802,32836,16271,1.173491022,128,8.17448177,113343,16512,46503.90625,128
0.017309191,240,2.380662844,33009,14339,1.034152035,128,8.167197486,113242,16576,46505.85938,128
0.016155245,224,2.435475282,33769,14860,1.071727404,128,8.166187783,113228,16640,46507.8125,128
0.004615784,64,2.479974327,34386,16353,1.179404995,128,8.196118259,113643,16704,46509.76563,128
1.44E-04,2,2.523247304,34986,16369,1.180558941,128,8.232323317,114145,16768,46511.71875,128
5.05E-04,7,2.538032238,35191,15864,1.144137519,128,8.228212384,114088,16832,46513.67188,128
0.145397204,2016,2.49252349,34560,15372,1.108653678,128,8.22273114,114012,16896,46515.625,128
0.046085721,639,2.562409349,35529,31,0.00223577,128,8.234486965,114175,16960,46517.57813,128
0.171288868,2375,2.53500313,35149,16159,1.165413399,128,8.204195881,113755,17024,46519.53125,128
0.001081824,15,2.428984336,33679,15388,1.109807624,128,8.203979517,113752,17088,46521.48438,128
0.146479028,2031,2.443769269,33884,15864,1.144137519,128,8.231529979,114134,17152,46523.4375,128
0,0,2.348785084,32567,15374,1.108797921,128,8.239246993,114241,17216,46525.39063,128
0.036637787,508,2.502332032,34696,64,0.004615784,128,8.316921987,115318,17280,46527.34375,128
0.001081824,15,2.367103978,32821,7,5.05E-04,128,8.226481465,114064,17344,46529.29688,128
0.001081824,15,2.43980258,33829,15360,1.107788218,128,8.280500565,114813,17408,46531.25,128
0.001803041,25,2.493461072,34573,195,0.014063718,128,8.309854068,115220,17472,46533.20313,128
0.14655115,2032,2.47745007,34351,1023,0.073780426,128,8.313243784,115267,17536,46535.15625,128
0.037935977,526,2.48408526,34443,479,0.03454626,128,8.297809756,115053,17600,46537.10938,128
0.145829933,2022,2.472617921,34284,254,0.018318894,128,8.285765444,114886,17664,46539.0625,128
0.055389411,768,2.426027349,33638,394,0.028415922,128,8.299901283,115082,17728,46541.01563,128
0.001009703,14,2.406554509,33368,511,0.036854152,128,8.303723729,115135,17792,46542.96875,128
0.001730919,24,2.484445868,34448,80,0.00576973,128,8.314253487,115281,17856,46544.92188,128
0.110778822,1536,2.483291922,34432,969,0.069885858,128,8.332139651,115529,17920,46546.875,128
0.147416609,2044,2.492235004,34556,1555,0.112149133,128,8.388178156,116306,17984,46548.82813,128
0.009231568,128,2.48675376,34480,495,0.035700206,128,8.378730223,116175,18048,46550.78125,128
0.14525296,2014,2.503630221,34714,1409,0.101619375,128,8.373393222,116101,18112,46552.73438,128
0.235404996,3264,2.521227899,34958,1055,0.076088318,128,8.35911314,115903,18176,46554.6875,128
0.006923676,96,2.564356633,35556,1904,0.137319581,128,8.372167155,116084,18240,46556.64063,128
0.073564061,1020,2.564428754,35557,2047,0.147632974,128,8.415007402,116678,18304,46558.59375,128
0.040965085,568,2.403092671,33320,1614,0.116404309,128,8.387745427,116300,18368,46560.54688,128
0.526632133,7302,2.318133392,32142,127,0.009159447,128,8.342885774,115678,18432,46562.5,128
0.071544656,992,2.493893801,34579,2304,0.166168233,128,8.496504843,117808,18496,46564.45313,128
0.027694705,384,2.501322329,34682,3991,0.28783742,128,8.459001596,117288,18560,46566.40625,128
0.073564061,1020,2.493533193,34574,3072,0.221557644,128,8.46981984,117438,18624,46568.35938,128
0.036926274,512,2.527863089,35050,3872,0.279254947,128,8.500471532,117863,18688,46570.3125,128
0.290866529,4033,2.555702037,35436,4067,0.293318664,128,8.500327289,117861,18752,46572.26563,128
0.221557644,3072,2.482137976,34416,2935,0.21167698,128,8.457991893,117274,18816,46574.21875,128
0.02877653,399,2.49338895,34572,3015,0.217446711,128,8.462247069,117333,18880,46576.17188,128
0.147705096,2048,2.524978223,35010,3840,0.276947054,128,8.464554961,117365,18944,46578.125,128
0.15628757,2167,2.51949698,34934,3040,0.219249751,128,8.491744815,117742,19008,46580.07813,128
0.223865536,3104,2.528007332,35052,3584,0.258483918,128,8.538191144,118386,19072,46582.03125,128
0.294833218,4088,2.542792266,35257,3583,0.258411796,128,8.528671089,118254,19136,46583.98438,128
0.25725785,3567,2.546470469,35308,3654,0.263532432,128,8.536171739,118358,19200,46585.9375,128
0.11424066,1584,2.439946823,33831,2032,0.14655115,128,8.522180143,118164,19264,46587.89063,128
0.00223577,31,2.401794481,33302,1950,0.140637176,128,8.522468629,118168,19328,46589.84375,128
0.055389411,768,2.420978835,33568,3662,0.264109405,128,8.536604468,118364,19392,46591.79688,128
0.007933379,110,2.518775763,34924,8191,0.590748261,128,8.609807922,119379,19456,46593.75,128
0.018391015,255,2.523535791,34990,7992,0.576396057,128,8.607932759,119353,19520,46595.70313,128
0.115033998,1595,2.492090761,34554,4002,0.288630758,128,8.541941469,118438,19584,46597.65625,128
0.073780426,1023,2.510770263,34813,7299,0.526415768,128,8.577497432,118931,19648,46599.60938,128
0.06108702,847,2.498076856,34637,3955,0.285241042,128,8.553192443,118594,19712,46601.5625,128
0.036854152,511,2.475863394,34329,3976,0.286755596,128,8.523622575,118184,19776,46603.51563,128
0.225740698,3130,2.589382838,35903,3696,0.26656154,128,8.555139727,118621,19840,46605.46875,128
0.063467033,880,2.537311022,35181,3890,0.280553136,128,8.552110619,118579,19904,46607.42188,128
0.027694705,384,2.456029946,34054,4076,0.293967759,128,8.562568255,118724,19968,46609.375,128
0.05625487,780,2.424368551,33615,2040,0.147128123,128,8.551028794,118564,20032,46611.32813,128
0.006995798,97,2.458193595,34084,4095,0.29533807,128,8.544105118,118468,20096,46613.28125,128
0.067000993,929,2.421627929,33577,2044,0.147416609,128,8.510929169,118008,20160,46615.23438,128
0.073852548,1024,2.449539,33964,3836,0.276658568,128,8.544177239,118469,20224,46617.1875,128
2.16E-04,3,2.478892503,34371,6256,0.45119291,128,8.572665283,118864,20288,46619.14063,128
2.16E-04,3,2.39112048,33154,128,0.009231568,128,8.448616081,117144,20352,46621.09375,128
1.178034684,16334,2.314527311,32092,7,5.05E-04,128,8.419695308,116743,20416,46623.04688,128
5.77E-04,8,2.388091372,33112,2496,0.180015585,128,8.475228962,117513,20480,46625,128
0.009159447,127,2.406770874,33371,3324,0.239732294,128,8.507178844,117956,20544,46626.95313,128
0.073780426,1023,2.412973334,33457,2947,0.21254244,128,8.459794934,117299,20608,46628.90625,128
0.029858354,414,2.466271218,34196,3135,0.226101306,128,8.423734119,116799,20672,46630.85938,128
0.082723508,1147,2.462665136,34146,1148,0.08279563,128,8.354280991,115836,20736,46632.8125,128
1.18048682,16368,2.359963937,32722,1585,0.114312782,128,8.353631896,115827,20800,46634.76563,128
1.179404995,16353,2.349506301,32577,256,0.018463137,128,8.401015806,116484,20864,46636.71875,128
0.034618382,480,2.398981738,33263,2,1.44E-04,128,8.363945289,115970,20928,46638.67188,128
1.111827029,15416,2.315969743,32112,782,0.056399114,128,8.314037122,115278,20992,46640.625,128
1.143632667,15857,2.320657649,32177,0,0,128,8.314758338,115288,21056,46642.57813,128
0.590748261,8191,2.324768582,32234,67,0.004832149,128,8.300983107,115097,21120,46644.53125,128
1.144786614,15873,2.403309036,33323,7,5.05E-04,128,8.335745732,115579,21184,46646.48438,128
0.041325693,573,2.322749176,32206,1023,0.073780426,128,8.311080135,115237,21248,46648.4375,128
0.526199404,7296,2.330105582,32308,31,0.00223577,128,8.31793169,115332,21312,46650.39063,128
0.589666437,8176,2.404174495,33335,963,0.069453129,128,8.324783245,115427,21376,46652.34375,128
0.002884865,40,2.375542209,32938,262,0.018895867,128,8.290958201,114958,21440,46654.29688,128
0.572357246,7936,2.289861714,31750,16272,1.173563143,128,8.217249896,113936,21504,46656.25,128
7.21E-04,10,2.405544806,33354,16382,1.181496523,128,8.271341118,114686,21568,46658.20313,128
0.055677897,772,2.405184198,33349,384,0.027694705,128,8.289948498,114944,21632,46660.15625,128
1.181063793,16376,2.307315148,31992,16352,1.179332874,128,8.246675521,114344,21696,46662.10938,128
1.174572846,16286,2.355492396,32660,16319,1.17695286,128,8.266220482,114615,21760,46664.0625,128
0.553172893,7670,2.325634042,32246,16375,1.180991671,128,8.258070738,114502,21824,46666.01563,128
0.576396057,7992,2.330538312,32314,15932,1.14904179,128,8.242925196,114292,21888,46667.96875,128
0.581516693,8063,2.353184504,32628,16239,1.17118313,128,8.242276101,114283,21952,46669.92188,128
1.17962136,16356,2.359026356,32709,16129,1.163249751,128,8.259729536,114525,22016,46671.875,128
0.003461838,48,2.385278629,33073,16352,1.179332874,128,8.25814286,114503,22080,46673.82813,128
0.018463137,256,2.386576818,33091,15983,1.152719993,128,8.242131858,114281,22144,46675.78125,128
0.006995798,97,2.397972035,33249,16383,1.181568644,128,8.259296806,114519,22208,46677.73438,128
1.181568644,16383,2.360036058,32723,16378,1.181208036,128,8.234126357,114170,22272,46679.6875,128
1.144930857,15875,2.327653447,32274,3,2.16E-04,128,8.272855672,114707,22336,46681.64063,128
1.180414698,16367,2.336308043,32394,15937,1.149402398,128,8.239535479,114245,22400,46683.59375,128
0,0,2.391264724,33156,15487,1.116947665,128,8.235857276,114194,22464,46685.54688,128
0.027045611,375,2.398981738,33263,16026,1.155821223,128,8.262181671,114559,22528,46687.5,128
0.055389411,768,2.401938725,33304,16364,1.180198333,128,8.264128955,114586,22592,46689.45313,128
0.072698602,1008,2.415497591,33492,16258,1.172553441,128,8.244511872,114314,22656,46691.40625,128
0.129169837,1791,2.486681639,34479,16383,1.181568644,128,8.26434532,114589,22720,46693.35938,128
0.013775231,191,2.393788981,33191,16368,1.18048682,128,8.244944602,114320,22784,46695.3125,128
0.589666437,8176,2.33219711,32337,200,0.014424326,128,8.281293903,114824,22848,46697.26563,128
1.163177629,16128,2.330105582,32308,15993,1.153441209,128,8.250786454,114401,22912,46699.21875,128
1.181568644,16383,2.349217814,32573,16346,1.178900144,128,8.249704629,114386,22976,46701.17188,128
0.001081824,15,2.373306438,32907,16368,1.18048682,128,8.265931996,114611,23040,46703.125,128
0.590748261,8191,2.340995948,32459,15558,1.1220683,128,8.226769951,114068,23104,46705.07813,128
0.567741462,7872,2.267720374,31443,15921,1.148248452,128,8.236939101,114209,23168,46707.03125,128
1.115577354,15468,2.239520817,31052,16357,1.179693482,128,8.251651913,114413,23232,46708.98438,128
0.563125677,7808,2.29988662,31889,16323,1.177241347,128,8.230736641,114123,23296,46710.9375,128
0.064620979,896,2.400279927,33281,139,0.010024906,128,8.281510267,114827,23360,46712.89063,128
1.146445411,15896,2.328158299,32281,24,0.001730919,128,8.291679417,114968,23424,46714.84375,128
1.071078309,14851,2.261950643,31363,16128,1.163177629,128,8.180612109,113428,23488,46716.79688,128
0.588584612,8161,2.291953241,31779,14951,1.078290472,128,8.177294514,113382,23552,46718.75,128
0.554759569,7692,2.33529834,32380,16383,1.181568644,128,8.241050034,114266,23616,46720.70313,128
0.572357246,7936,2.344818395,32512,62,0.004471541,128,8.308123148,115196,23680,46722.65625,128
1.172409197,16256,2.323614636,32218,16256,1.172409197,128,8.249632508,114385,23744,46724.60938,128
0.576035449,7987,2.27550951,31551,16255,1.172337076,128,8.227130559,114073,23808,46726.5625,128
1.059899456,14696,2.320441284,32174,15859,1.143776911,128,8.228572992,114093,23872,46728.51563,128
7.21E-05,1,2.363930626,32777,15901,1.146806019,128,8.250209481,114393,23936,46730.46875,128
0.012765528,177,2.376191303,32947,511,0.036854152,128,8.303579486,115133,24000,46732.42188,128
0.00223577,31,2.42032974,33559,16512,1.190872334,128,8.336394827,115588,24064,46734.375,128
0.147632974,2047,2.455236608,34043,16655,1.201185727,128,8.330264488,115503,24128,46736.32813,128
0.55439896,7687,2.262167008,31366,63,0.004543663,128,8.280500565,114813,24192,46738.28125,128
0.517544808,7176,2.144825118,29739,16184,1.16721644,128,8.21919718,113963,24256,46740.23438,128
1.032998089,14323,2.214638855,30707,16336,1.178178928,128,8.263551982,114578,24320,46742.1875,128
1.050090915,14560,2.264042171,31392,195,0.014063718,128,8.285837565,114887,24384,46744.14063,128
0.032022003,444,2.39508717,33209,16511,1.190800213,128,8.295285499,115018,24448,46746.09375,128
1.16764917,16190,2.349289936,32574,16383,1.181568644,128,8.271052631,114682,24512,46748.04688,128
0.582959125,8083,2.263393076,31383,16383,1.181568644,128,8.256556184,114481,24576,46750,128
1.174572846,16286,2.319287338,32158,14,0.001009703,128,8.272206577,114698,24640,46751.95313,128
0.52958912,7343,2.301689661,31914,16320,1.177024982,128,8.267302307,114630,24704,46753.90625,128
1.145147222,15878,2.336019556,32390,259,0.018679502,128,8.335745732,115579,24768,46755.85938,128
0.563053556,7807,2.261590035,31358,477,0.034402017,128,8.296655809,115037,24832,46757.8125,128
1.171760103,16247,2.277096185,31573,12,8.65E-04,128,8.273504767,114716,24896,46759.76563,128
0.521511498,7231,2.293972646,31807,16263,1.172914049,128,8.265066536,114599,24960,46761.71875,128
0.002019406,28,2.364723964,32788,831,0.059933074,128,8.334591786,115563,25024,46763.67188,128
0.008077622,112,2.387514399,33104,16496,1.189718388,128,8.330841462,115511,25088,46765.625,128
0.001658797,23,2.36941187,32853,16,0.001153946,128,8.300406134,115089,25152,46767.57813,128
0.519203606,7199,2.293179309,31796,57,0.004110933,128,8.28958789,114939,25216,46769.53125,128
1.151854533,15971,2.333495299,32355,127,0.009159447,128,8.332860867,115539,25280,46771.48438,128
1.172914049,16263,2.354554815,32647,257,0.018535259,128,8.329543272,115493,25344,46773.4375,128
0.580434868,8048,2.259642751,31331,120,0.008654595,128,8.306897081,115179,25408,46775.39063,128
1.068842538,14820,2.236635952,31012,998,0.071977386,128,8.334663908,115564,25472,46777.34375,128
1.116875543,15486,2.29721812,31852,1016,0.073275575,128,8.33033661,115504,25536,46779.29688,128
0.565289326,7838,2.337750475,32414,263,0.018967988,128,8.328533569,115479,25600,46781.25,128
0.554110474,7683,2.29368416,31803,224,0.016155245,128,8.304084337,115140,25664,46783.20313,128
0.553894109,7680,2.194372677,30426,504,0.036349301,128,8.300910986,115096,25728,46785.15625,128
1.122212544,15560,2.225529221,30858,255,0.018391015,128,8.357959194,115887,25792,46787.10938,128
0.590748261,8191,2.293972646,31807,1151,0.083011995,128,8.359690113,115911,25856,46789.0625,128
0.445278936,6174,2.270821604,31486,252,0.01817465,128,8.308123148,115196,25920,46791.01563,128
1.098773014,15235,2.265051873,31406,568,0.040965085,128,8.315335311,115296,25984,46792.96875,128
1.177024982,16320,2.258056075,31309,624,0.045003896,128,8.32456688,115424,26048,46794.92188,128
1.061341889,14716,2.24009779,31060,136,0.009808542,128,8.318292298,115337,26112,46796.875,128
1.151638168,15968,2.259931238,31335,606,0.043705707,128,8.314614095,115286,26176,46798.82813,128
1.144714492,15872,2.252863318,31237,28,0.002019406,128,8.347429436,115741,26240,46800.78125,128
1.108076705,15364,2.217018869,30740,368,0.026540759,128,8.29802612,115056,26304,46802.73438,128
1.033719305,14333,2.213052179,30685,31,0.00223577,128,8.310286797,115226,26368,46804.6875,128
1.140026586,15807,2.236419587,31009,705,0.050845748,128,8.318869271,115345,26432,46806.64063,128
1.052326685,14591,2.226683167,30874,639,0.046085721,128,8.314974703,115291,26496,46808.59375,128
1.033358697,14328,2.193867826,30419,384,0.027694705,128,8.299468553,115076,26560,46810.54688,128
1.034152035,14339,2.273490104,31523,1056,0.07616044,128,8.348655504,115758,26624,46812.5,128
1.069131025,14824,2.248463899,31176,1025,0.073924669,128,8.34584276,115719,26688,46814.45313,128
0.479680953,6651,2.246444493,31148,1032,0.074429521,128,8.334086935,115556,26752,46816.40625,128
0.445134693,6172,2.266999157,31433,248,0.017886164,128,8.317282595,115323,26816,46818.35938,128
0.505500496,7009,2.260075481,31337,127,0.009159447,128,8.316417136,115311,26880,46820.3125,128
0.505500496,7009,2.188098095,30339,127,0.009159447,128,8.306392229,115172,26944,46822.26563,128
0.567741462,7872,2.260508211,31343,1264,0.091161739,128,8.361565275,115937,27008,46824.21875,128
0.297645962,4127,2.11568798,29335,513,0.036998396,128,8.323485055,115409,27072,46826.17188,128
0.441312246,6119,2.258128197,31310,5,3.61E-04,128,8.398563671,116450,27136,46828.125,128
0.441312246,6119,2.253512413,31246,5,3.61E-04,128,8.355002207,115846,27200,46830.07813,128
0.574665138,7968,2.20425334,30563,527,0.038008098,128,8.318580785,115341,27264,46832.03125,128
0.574665138,7968,2.152470011,29845,527,0.038008098,128,8.320239582,115364,27328,46833.98438,128
0.30464176,4224,2.171293756,30106,124,0.008943082,128,8.304733432,115149,27392,46835.9375,128
0.494393765,6855,2.267287644,31437,1921,0.138545649,128,8.400799441,116481,27456,46837.89063,128
1.061630376,14720,2.235049276,30990,1635,0.117918863,128,8.389404224,116323,27520,46839.84375,128
0.5171842,7171,2.148863929,29795,7,5.05E-04,128,8.351612491,115799,27584,46841.79688,128
0.296492016,4111,2.100975168,29131,0,0,128,8.290092741,114946,27648,46843.75,128
0.295915043,4103,2.107393993,29220,894,0.064476736,128,8.316921987,115318,27712,46845.70313,128
0.576900909,7999,2.16437008,30010,959,0.069164642,128,8.338919084,115623,27776,46847.65625,128
0.367459699,5095,2.14049782,29679,483,0.034834747,128,8.331706921,115523,27840,46849.60938,128
0.406189013,5632,2.181174419,30243,15,0.001081824,128,8.322908082,115401,27904,46851.5625,128
0.517761173,7179,2.174755594,30154,404,0.029137138,128,8.367623492,116021,27968,46853.51563,128
0.075583467,1048,8.363224073,115960,0,0,0,-302.5000361,-4194304,28032,46855.46875,128
14.18877652,196734,-28.35115652,-393102,452,0.032598976,13,0.032526855,451,28096,46857.42188,0
0.004038811,56,-28.35115652,-393102,6144,0.443115287,13,0.032526855,451,28160,46859.375,156
2.16E-04,3,8.346996706,115735,0,0,0,-302.5000361,-4194304,28224,46861.32813,0
0,0,8.346996706,115735,0,0,0,-302.5000361,-4194304,28288,46863.28125,128
0,0,46.08398987,638976,448,0.03231049,0,-42.53084571,-589710,28352,46865.23438,0
0,0,7.21E-05,1,240,0.017309191,138,536.6818496,7441344,28416,46867.1875,128
7.21E-05,1,7.21E-05,1,15872,1.144714492,138,536.6818496,7441344,28480,46869.14063,0
0,0,206.787134,2867200,1984,0.143089311,0,-151.2416519,-2097036,28544,46871.09375,128
-151.250018,-2097152,2.124054089,29451,3,2.16E-04,128,8.415728619,116688,28608,46873.04688,0
0.332336465,4608,2.162927647,29990,15808,1.140098708,128,8.38522117,116265,28672,46875,0
0.886230574,12288,2.155931849,29893,1920,0.138473527,128,8.422652295,116784,28736,46876.95313,128
0.435037665,6032,2.102778209,29156,2052,0.147993582,128,8.415007402,116678,28800,46878.90625,128
0.286467109,3972,2.018179538,27983,1810,0.130540148,128,8.380749629,116203,28864,46880.85938,128
0.146767515,2035,2.106600655,29209,991,0.071472534,128,8.438158445,116999,28928,46882.8125,128
0.507808388,7041,2.14049782,29679,3335,0.240525632,128,8.455251271,117236,28992,46884.76563,128
0.362122698,5021,2.114101304,29313,2552,0.184054397,128,8.454530055,117226,29056,46886.71875,128
0.590748261,8191,2.104220641,29176,3071,0.221485522,128,8.488932072,117703,29120,46888.67188,128
0.588584612,8161,2.15773489,29918,3587,0.258700282,128,8.477897463,117550,29184,46890.625,128
1.038190846,14395,2.20158484,30526,16393,1.182289861,128,8.517780723,118103,29248,46892.57813,128
0.89488517,12408,2.2051188,30575,16400,1.182794712,128,8.493908464,117772,29312,46894.53125,128
0.586637328,8134,2.183049581,30269,3588,0.258772404,128,8.522540751,118169,29376,46896.48438,128
0.581588814,8064,2.182761095,30265,3580,0.258195431,128,8.522684994,118171,29440,46898.4375,128
0.517039957,7169,2.117779507,29364,3587,0.258700282,128,8.490662991,117727,29504,46900.39063,128
0.581660936,8065,2.099604857,29112,3276,0.236270456,128,8.506385506,117945,29568,46902.34375,128
0.893154251,12384,2.13559355,29611,3183,0.229563144,128,8.524127427,118191,29632,46904.29688,128
0.556129879,7711,2.086190234,28926,3615,0.260719688,128,8.555139727,118621,29696,46906.25,128
0.576900909,7999,2.150522727,29818,4088,0.294833218,128,8.587378095,119068,29760,46908.20313,128
0.59024341,8184,2.108908547,29241,7164,0.516679349,128,8.620193436,119523,29824,46910.15625,128
0.572357246,7936,2.191776298,30390,8160,0.588512491,128,8.617020085,119479,29888,46912.10938,128
1.025785926,14223,2.184636257,30291,7920,0.5712033,128,8.616587355,119473,29952,46914.0625,128
0.95777523,13280,2.176414392,30177,8135,0.58670945,128,8.631588654,119681,30016,46916.01563,128
1.032781724,14320,2.195670866,30444,8128,0.586204599,128,8.643632966,119848,30080,46917.96875,128
1.161374588,16103,2.190189623,30368,8178,0.58981068,128,8.625530437,119597,30144,46919.92188,128
1.115577354,15468,2.167687674,30056,7367,0.531320039,128,8.599494529,119236,30208,46921.875,128
0.996360302,13815,2.171077391,30103,6593,0.475497899,128,8.595383596,119179,30272,46923.82813,128
0.886230574,12288,2.090589653,28987,6150,0.443548017,128,8.586224149,119052,30336,46925.78125,128
0.523963633,7265,2.078833828,28824,4035,0.291010772,128,8.551966375,118577,30400,46927.73438,128
0.921065321,12771,2.124270454,29454,4081,0.294328367,128,8.546052402,118495,30464,46929.6875,128
0.964121933,13368,2.162855525,29989,3584,0.258483918,128,8.533935968,118327,30528,46931.64063,128
0.979628084,13583,2.137757199,29641,3859,0.278317365,128,8.536171739,118358,30592,46933.59375,128
0.581588814,8064,2.081285963,28858,3586,0.258628161,128,8.5043661,117917,30656,46935.54688,128
1.038623576,14401,2.074290165,28761,3008,0.216941859,128,8.452727014,117201,30720,46937.5,128
0.8953179,12414,2.080420504,28846,2432,0.175399801,128,8.457775528,117271,30784,46939.45313,128
0.627097562,8695,2.028853539,28131,2048,0.147705096,128,8.418324997,116724,30848,46941.40625,128
0.606975628,8416,2.078833828,28824,1023,0.073780426,128,8.420055916,116748,30912,46943.35938,128
1.043095117,14463,2.125280157,29468,3591,0.258988769,128,8.430729917,116896,30976,46945.3125,128
0.931306592,12913,2.096287262,29066,1986,0.143233555,128,8.408083726,116582,31040,46947.26563,128
1.070789822,14847,2.189540528,30359,16447,1.186184428,128,8.470324692,117445,31104,46949.21875,128
1.145147222,15878,2.14179601,29697,4080,0.294256245,128,8.424094728,116804,31168,46951.17188,128
0.960011001,13311,2.1227559,29433,2016,0.145397204,128,8.416089227,116693,31232,46953.125,128
0.905198563,12551,2.04702819,28383,127,0.009159447,128,8.369570776,116048,31296,46955.07813,128
0.291299259,4039,2.039671783,28281,16,0.001153946,128,8.353559775,115826,31360,46957.03125,128
0.8953179,12414,2.076237449,28788,255,0.018391015,128,8.356228275,115863,31424,46958.98438,128
0.902457941,12513,2.084387193,28901,1474,0.106307281,128,8.373753831,116106,31488,46960.9375,128
0.887961493,12312,2.134367482,29594,1584,0.11424066,128,8.38478844,116259,31552,46962.89063,128
1.051100618,14574,2.147782105,29780,1791,0.129169837,128,8.343967598,115693,31616,46964.84375,128
0.959794636,13308,2.101191533,29134,1055,0.076088318,128,8.353559775,115826,31680,46966.79688,128
0.903467644,12527,2.079915652,28839,961,0.069308885,128,8.303651607,115134,31744,46968.75,128
0.890557872,12348,2.115543737,29333,63,0.004543663,128,8.388538765,116311,31808,46970.70313,128
0.960587974,13319,2.098595154,29098,2047,0.147632974,128,8.389115738,116319,31872,46972.65625,128
0.703762854,9758,2.010534645,27877,19,0.001370311,128,8.312234081,115253,31936,46974.60938,128
0.606398655,8408,2.048542744,28404,764,0.055100924,128,8.335385124,115574,32000,46976.5625,128
1.04367209,14471,2.145906943,29754,16511,1.190800213,128,8.363584681,115965,32064,46978.51563,128
0.924527159,12819,2.082079301,28869,1024,0.073852548,128,8.348727625,115759,32128,46980.46875,128
0.895029413,12410,2.060947664,28576,255,0.018391015,128,8.347068828,115736,32192,46982.42188,128
0.702753151,9744,2.054961569,28493,1016,0.073275575,128,8.309204973,115211,32256,46984.375,128
0.890269386,12344,2.113884939,29310,671,0.048393613,128,8.348367017,115754,32320,46986.32813,128
0.886230574,12288,2.128020779,29506,899,0.064837344,128,8.297521269,115049,32384,46988.28125,128
1.112331881,15423,2.160980363,29963,16399,1.18272259,128,8.293987309,115000,32448,46990.23438,128
0.891423332,12360,2.143526929,29721,764,0.055100924,128,8.333582083,115549,32512,46992.1875,128
0.886446939,12291,2.223942545,30836,17203,1.24070838,128,8.335024516,115569,32576,46994.14063,128
1.034440522,14343,2.187160514,30326,16496,1.189718388,128,8.315407433,115297,32640,46996.09375,128
0.890269386,12344,2.09044541,28985,255,0.018391015,128,8.302569783,115119,32704,46998.04688,128
0.886230574,12288,2.067943462,28673,829,0.05978883,128,8.311368622,115241,32768,47000,128
0.604884101,8387,1.948654288,27019,768,0.055389411,128,8.326946894,115457,32832,47001.95313,128
0.61901994,8583,2.023949268,28063,527,0.038008098,128,8.318580785,115341,32896,47003.90625,128
0.630054549,8736,2.02755535,28113,512,0.036926274,128,8.307546175,115188,32960,47005.85938,128
0.293102299,4064,2.009957672,27869,7,5.05E-04,128,8.264705928,114594,33024,47007.8125,128
0.265479716,3681,2.057197339,28524,0,0,128,8.288866674,114929,33088,47009.76563,128
0.724606004,10047,2.114173426,29314,16375,1.180991671,128,8.299107945,115071,33152,47011.71875,128
0.994701504,13792,2.126506224,29485,16384,1.181640766,128,8.334952394,115568,33216,47013.67188,128
0.664384444,9212,2.041114216,28301,780,0.05625487,128,8.31216196,115252,33280,47015.625,128
0.92236351,12789,2.126938954,29491,989,0.071328291,128,8.317138352,115321,33344,47017.57813,128
0.904693711,12544,2.075516233,28778,31,0.00223577,128,8.316056528,115306,33408,47019.53125,128
1.035955076,14364,2.129318968,29524,993,0.071616777,128,8.354641599,115841,33472,47021.48438,128
0.960804339,13322,2.140425699,29678,2042,0.147272366,128,8.332139651,115529,33536,47023.4375,128
0.886230574,12288,2.167759796,30057,16415,1.183876536,128,8.369354411,116045,33600,47025.39063,128
0.923084727,12799,2.149585146,29805,1822,0.131405608,128,8.374979898,116123,33664,47027.34375,128
0.960227366,13314,2.18297746,30268,2018,0.145541447,128,8.351468247,115797,33728,47029.29688,128
1.029752616,14278,2.14359905,29722,515,0.037142639,128,8.280500565,114813,33792,47031.25,128
0.887456642,12305,2.10018183,29120,6,4.33E-04,128,8.279779348,114803,33856,47033.20313,128
0.909237374,12607,2.082151423,28870,7,5.05E-04,128,8.256628306,114482,33920,47035.15625,128
0.886230574,12288,2.076598057,28793,16258,1.172553441,128,8.263840468,114582,33984,47037.10938,128
1.052110321,14588,2.08114172,28856,16323,1.177241347,128,8.268816861,114651,34048,47039.0625,128
0.888466345,12319,2.070107111,28703,16257,1.172481319,128,8.264633806,114593,34112,47041.01563,128
0.89401971,12396,2.082584153,28876,15747,1.135699288,128,8.216312315,113923,34176,47042.96875,128
0.923084727,12799,2.14136328,29691,16383,1.181568644,128,8.259441049,114521,34240,47044.92188,128
0.890774237,12351,2.118861332,29379,24,0.001730919,128,8.234414844,114174,34304,47046.875,128
0.886519061,12292,2.1537682,29863,16133,1.163538237,128,8.280067835,114807,34368,47048.82813,128
1.033719305,14333,2.243775993,31111,16883,1.217629459,128,8.302497661,115118,34432,47050.78125,128
1.179332874,16352,2.236058979,31004,16636,1.199815416,128,8.28915516,114933,34496,47052.73438,128
1.126684085,15622,2.230217127,30923,16866,1.216403391,128,8.316561379,115313,34560,47054.6875,128
0.90462159,12543,2.117130413,29355,899,0.064837344,128,8.322331109,115393,34624,47056.64063,128
0.922651997,12793,2.155426998,29886,1059,0.076376805,128,8.452871257,117203,34688,47058.59375,128
1.126251355,15616,2.242477804,31093,16447,1.186184428,128,8.643055992,119840,34752,47060.54688,128
1.033863549,14335,2.195238137,30438,8178,0.58981068,128,8.724048582,120963,34816,47062.5,128
1.179404995,16353,2.090733897,28989,7377,0.532041255,128,8.864757879,122914,34880,47064.45313,128
1.034440522,14343,2.128165022,29508,16127,1.163105507,128,9.050398952,125488,34944,47066.40625,128
0.919334402,12747,2.130184428,29536,16375,1.180991671,128,9.1809391,127298,35008,47068.35938,128
1.163249751,16129,2.100686681,29127,16131,1.163393994,128,9.334413926,129426,35072,47070.3125,128
1.106634272,15344,2.056259758,28511,15363,1.108004583,128,9.427811435,130721,35136,47072.26563,128
0.885653601,12280,2.060514934,28570,195,0.014063718,128,9.486806928,131539,35200,47074.21875,128
1.070861944,14848,2.107682479,29224,1023,0.073780426,128,9.598883939,133093,35264,47076.17188,128
0.854569179,11849,2.045441514,28361,2051,0.147921461,128,9.64367147,133714,35328,47078.125,128
1.172841927,16262,2.042340284,28318,3009,0.217013981,128,9.64763816,133769,35392,47080.07813,128
1.158056993,16057,2.081358085,28859,116,0.008366109,128,9.49841851,131700,35456,47082.03125,128
0.890269386,12344,2.107105506,29216,16256,1.172409197,128,9.261571081,128416,35520,47083.98438,128
1.144786614,15873,2.130040184,29534,16135,1.16368248,128,9.078742752,125881,35584,47085.9375,128
1.149258155,15935,2.06433738,28623,15376,1.108942164,128,8.765879126,121543,35648,47087.89063,128
0.833004812,11550,2.04349423,28334,6392,0.461001451,128,8.43924027,117014,35712,47089.84375,128
1.067327984,14799,2.070467719,28708,511,0.036854152,128,8.233909992,114167,35776,47091.79688,128
0.815262892,11304,1.987960576,27564,14588,1.052110321,128,8.090099465,112173,35840,47093.75,128
0.844616395,11711,2.061813123,28588,16146,1.164475818,128,8.082093964,112062,35904,47095.70313,128
0.870003208,12063,1.968127128,27289,15376,1.108942164,128,8.049350744,111608,35968,47097.65625,128
0.59997983,8319,1.981109021,27469,16143,1.164259453,128,8.089522492,112165,36032,47099.60938,128
0.702464664,9740,2.036570553,28238,16135,1.16368248,128,8.11865963,112569,36096,47101.5625,128
0.850386125,11791,2.010606767,27878,15375,1.108870042,128,8.163158675,113186,36160,47103.51563,128
0.773648712,10727,1.989691495,27588,15352,1.107211245,128,8.159768958,113139,36224,47105.46875,128
0.886158453,12287,2.00851524,27849,16369,1.180558941,128,8.235424547,114188,36288,47107.42188,128
0.706142867,9791,2.065779813,28643,16139,1.163970967,128,8.202104354,113726,36352,47109.375,128
1.034440522,14343,2.048542744,28404,16227,1.17031767,128,8.199507976,113690,36416,47111.32813,128
0.849376422,11777,2.046883946,28381,16,0.001153946,128,8.235857276,114194,36480,47113.28125,128
1.051316983,14577,2.082223544,28871,16191,1.167721292,128,8.261388333,114548,36544,47115.23438,128
0.87808083,12175,2.052653677,28461,16352,1.179332874,128,8.22850087,114092,36608,47117.1875,128
1.038551454,14400,2.082007179,28868,16479,1.188492321,128,8.278192673,114781,36672,47119.14063,128
0.943855756,13087,2.109124912,29244,999,0.072049507,128,8.316345014,115310,36736,47121.09375,128
1.045114523,14491,2.09751333,29083,769,0.055461533,128,8.308483757,115201,36800,47123.04688,128
1.112908854,15431,2.083305369,28886,509,0.036709909,128,8.342525165,115673,36864,47125,128
0.721721139,10007,2.025391701,28083,416,0.030002598,128,8.369570776,116048,36928,47126.95313,128
0.7359291,10204,2.079555044,28834,1084,0.078179846,128,8.354497356,115839,36992,47128.90625,128
1.181063793,16376,2.155571241,29888,16518,1.191305064,128,8.358968897,115901,37056,47130.85938,128
1.107788218,15360,2.182472608,30261,16895,1.218494918,128,8.391207265,116348,37120,47132.8125,128
1.181568644,16383,2.1794435,30219,16385,1.181712887,128,8.445659095,117103,37184,47134.76563,128
1.0627122,14735,2.098234546,29093,3561,0.25682512,128,8.421137741,116763,37248,47136.71875,128
1.090406905,15119,2.127588049,29500,1984,0.143089311,128,8.430225066,116889,37312,47138.67188,128
1.105985177,15335,2.091238748,28996,3072,0.221557644,128,8.411257078,116626,37376,47140.625,128
1.035089616,14352,2.117851629,29365,1984,0.143089311,128,8.419262578,116737,37440,47142.57813,128
1.107643975,15358,2.12455894,29458,3604,0.25992635,128,8.420849254,116759,37504,47144.53125,128
1.099710596,15248,2.100470316,29124,3132,0.225884941,128,8.438879661,117009,37568,47146.48438,128
1.03393567,14336,2.171870729,30114,4083,0.29447261,128,8.473281678,117486,37632,47148.4375,128
0.88738452,12304,2.237068681,31018,17154,1.23717442,128,8.504654587,117921,37696,47150.39063,128
1.041796928,14445,2.223437694,30829,16407,1.183299563,128,8.499245465,117846,37760,47152.34375,128
1.125313774,15603,2.157157917,29910,2541,0.183261059,128,8.450130636,117165,37824,47154.29688,128
0.914934983,12686,2.12499167,29464,3832,0.276370081,128,8.471839246,117466,37888,47156.25,128
1.160653372,16093,2.189396285,30357,3855,0.278028879,128,8.482296882,117611,37952,47158.20313,128
1.099061501,15239,2.132997171,29575,3902,0.281418595,128,8.483234463,117624,38016,47160.15625,128
1.107788218,15360,2.169418594,30080,4088,0.294833218,128,8.508116425,117969,38080,47162.10938,128
1.016049506,14088,2.16083612,29961,3854,0.277956757,128,8.479051409,117566,38144,47164.0625,128
0.95777523,13280,2.156003971,29894,3855,0.278028879,128,8.50213033,117886,38208,47166.01563,128
1.047999388,14531,2.282144699,31643,16449,1.186328672,128,8.571511337,118848,38272,47167.96875,128
1.069852241,14834,2.242622047,31095,16631,1.199454808,128,8.470613178,117449,38336,47169.92188,128
1.052903658,14599,2.244929939,31127,16388,1.181929252,128,8.491023599,117732,38400,47171.875,128
1.034440522,14343,2.224447396,30843,3956,0.285313163,128,8.49196118,117745,38464,47173.82813,128
1.178683779,16343,2.204541827,30567,3968,0.286178623,128,8.475373206,117515,38528,47175.78125,128
1.171327373,16241,2.15686943,29906,3840,0.276947054,128,8.514030399,118051,38592,47177.73438,128
1.177024982,16320,2.228197721,30895,3585,0.258556039,128,8.55485124,118617,38656,47179.6875,128
1.068409809,14814,2.251132399,31213,4089,0.29490534,128,8.516626777,118087,38720,47181.64063,128
1.136925356,15764,2.212691571,30680,3324,0.239732294,128,8.502635181,117893,38784,47183.59375,128
1.181568644,16383,2.284596835,31677,16384,1.181640766,128,8.561558552,118710,38848,47185.54688,128
1.051821834,14584,2.269018563,31461,3904,0.281562839,128,8.571006485,118841,38912,47187.5,128
1.107716096,15359,2.288202916,31727,16391,1.182145617,128,8.583411405,119013,38976,47189.45313,128
1.179260752,16351,2.258344562,31313,3584,0.258483918,128,8.506024898,117940,39040,47191.40625,128
1.109951867,15390,2.309911526,32028,16504,1.190295361,128,8.591705393,119128,39104,47193.35938,128
1.172914049,16263,2.225745586,30861,3843,0.277163419,128,8.548865145,118534,39168,47195.3125,128
1.052110321,14588,2.25163725,31220,7648,0.551586217,128,8.586368392,119054,39232,47197.26563,128
1.181568644,16383,2.232813505,30959,6207,0.44765895,128,8.571150729,118843,39296,47199.21875,128
1.181352279,16380,2.196824813,30460,4071,0.293607151,128,8.560260363,118692,39360,47201.17188,128
1.163393994,16131,2.278033767,31586,8165,0.588873099,128,8.601874542,119269,39424,47203.125,128
1.06978012,14833,2.235265641,30993,6145,0.443187409,128,8.57518954,118899,39488,47205.07813,128
1.163249751,16129,2.253512413,31246,4088,0.294833218,128,8.557447619,118653,39552,47207.03125,128
1.156398196,16034,2.397106576,33237,16579,1.195704483,128,8.599061799,119230,39616,47208.98438,128
1.164908548,16152,2.254233629,31256,8160,0.588512491,128,8.559539146,118682,39680,47210.9375,128
1.034152035,14339,2.321811595,32193,3711,0.267643364,128,8.562568255,118724,39744,47212.89063,128
0.034690503,481,2.35614149,32669,16388,1.181929252,128,8.576487729,118917,39808,47214.84375,128
1.18048682,16368,2.206056381,30588,6259,0.451409275,128,8.58449323,119028,39872,47216.79688,128
1.107788218,15360,2.120159521,29397,4099,0.295626556,128,8.582401703,118999,39936,47218.75,128
0.902385819,12512,2.100253952,29121,2047,0.147632974,128,8.570285269,118831,40000,47220.70313,128
0.886230574,12288,2.207498814,30608,7679,0.553821987,128,8.604038191,119299,40064,47222.65625,128
1.128487125,15647,2.254377872,31258,16390,1.182073496,128,8.602740002,119281,40128,47224.60938,128
1.174644968,16287,2.26800886,31447,16387,1.181857131,128,8.622645572,119557,40192,47226.5625,128
1.111250056,15408,2.293323552,31798,16631,1.199454808,128,8.614712192,119447,40256,47228.51563,128
1.164331575,16144,2.274788293,31541,8093,0.583680342,128,8.623799518,119573,40320,47230.46875,128
1.051389104,14578,2.229568032,30914,8136,0.586781572,128,8.623078301,119563,40384,47232.42188,128
1.112331881,15423,2.298011458,31863,17022,1.227654365,128,8.612332179,119414,40448,47234.375,128
1.126756206,15623,2.316474595,32119,16399,1.18272259,128,8.648537236,119916,40512,47236.32813,128
1.043311482,14466,2.244857817,31126,7247,0.522665444,128,8.646301466,119885,40576,47238.28125,128
0.890846359,12352,2.202594543,30540,8092,0.58360822,128,8.642190533,119828,40640,47240.23438,128
1.073097715,14879,2.254449994,31259,8191,0.590748261,128,8.656831224,120031,40704,47242.1875,128
1.1734189,16270,2.280918632,31626,7936,0.572357246,128,8.702484215,120664,40768,47244.14063,128
1.172625562,16259,2.307098783,31989,16447,1.186184428,128,8.727654663,121013,40832,47246.09375,128
1.106850637,15347,2.279187713,31602,8068,0.581877301,128,8.620554044,119528,40896,47248.04688,128
1.179260752,16351,2.315537013,32106,16639,1.200031781,128,8.633391694,119706,40960,47250,128
1.110168232,15393,2.296280539,31839,8092,0.58360822,128,8.660004575,120075,41024,47251.95313,128
1.179837725,16359,2.260580332,31344,7839,0.565361448,128,8.718278851,120883,41088,47253.90625,128
1.116947665,15487,2.30652181,31981,8071,0.582093666,128,8.72354373,120956,41152,47255.85938,128
1.180414698,16367,2.275797996,31555,8179,0.589882802,128,8.685319267,120426,41216,47257.8125,128
1.046124225,14505,2.216225531,30729,7719,0.556706853,128,8.684814416,120419,41280,47259.76563,128
1.068554052,14816,2.276591334,31566,8176,0.589666437,128,8.768980356,121586,41344,47261.71875,128
1.177024982,16320,2.323037663,32210,16414,1.183804415,128,8.797324156,121979,41408,47263.67188,128
1.181496523,16382,2.31539277,32104,8129,0.58627672,128,8.78506348,121809,41472,47265.625,128
1.108293069,15367,2.297939336,31862,8160,0.588512491,128,8.751526922,121344,41536,47267.57813,128
0.018391015,255,2.376407668,32950,17297,1.247487813,128,8.77136037,121619,41600,47269.53125,128
0,0,2.363281532,32768,16412,1.183660171,128,8.808430887,122133,41664,47271.48438,128
1.181568644,16383,2.344241422,32504,16449,1.186328672,128,8.813190915,122199,41728,47273.4375,128
1.18048682,16368,2.362271829,32754,7889,0.568967529,128,8.803526617,122065,41792,47275.39063,128
1.125169531,15601,2.302338755,31923,8064,0.581588814,128,8.770567032,121608,41856,47277.34375,128
1.179837725,16359,2.324912825,32236,7740,0.558221407,128,8.806122995,122101,41920,47279.29688,128
1.163177629,16128,2.326355258,32256,8083,0.582959125,128,8.847448688,122674,41984,47281.25,128
1.125890747,15611,2.299958742,31890,7932,0.572068759,128,8.836414079,122521,42048,47283.20313,128
2.314887919,32097,2.313157,32073,7783,0.561322637,128,8.832807998,122471,42112,47285.15625,128
1.15394606,16000,2.343375962,32492,8131,0.586420964,128,8.839154701,122559,42176,47287.10938,128
0,0,2.404967833,33346,24593,1.773687216,128,8.888990747,123250,42240,47289.0625,128
0.073780426,1023,2.358305139,32699,24767,1.78623638,128,8.849684459,122705,42304,47291.01563,128
0.019400718,269,2.412756969,33454,24735,1.783928488,128,8.938394062,123935,42368,47292.96875,128
0.033897166,470,2.352102679,32613,16368,1.18048682,128,8.933778278,123871,42432,47294.92188,128
1.179404995,16353,2.411242415,33433,16368,1.18048682,128,8.910915722,123554,42496,47296.875,128
0.072698602,1008,2.3928514,33178,25076,1.808521963,128,8.91704606,123639,42560,47298.82813,128
0.007140041,99,2.415425469,33491,24607,1.774696919,128,8.893318044,123310,42624,47300.78125,128
1.177097103,16321,2.296424782,31841,15352,1.107211245,128,8.915531506,123618,42688,47302.73438,128
1.144065397,15863,2.316474595,32119,16373,1.180847428,128,8.915747871,123621,42752,47304.6875,128
0.036926274,512,2.405184198,33349,24636,1.776788447,128,8.959020848,124221,42816,47306.64063,128
0.036854152,511,2.436340742,33781,24694,1.780971501,128,8.961833592,124260,42880,47308.59375,128
0.004543663,63,2.453649933,34021,24633,1.776572082,128,8.972723958,124411,42944,47310.54688,128
1.17962136,16356,2.285101686,31684,8174,0.589522194,128,8.861007555,122862,43008,47312.5,128
0.015866758,220,2.397611427,33244,16366,1.180342577,128,8.916108479,123626,43072,47314.45313,128
0.012621285,175,2.394365954,33199,16336,1.178178928,128,8.877307043,123088,43136,47316.40625,128
1.181568644,16383,2.363137288,32766,14847,1.070789822,128,8.894544112,123327,43200,47318.35938,128
1.181568644,16383,2.314599432,32093,15363,1.108004583,128,8.88560103,123203,43264,47320.3125,128
0.027694705,384,2.385711358,33079,24628,1.776211473,128,8.912213911,123572,43328,47322.26563,128
0.06685675,927,2.4292007,33682,24695,1.781043623,128,8.926205507,123766,43392,47324.21875,128
5.05E-04,7,2.375109479,32932,15874,1.144858735,128,8.864757879,122914,43456,47326.17188,128
0.03231049,448,2.394510197,33201,8112,0.585050653,128,8.83778439,122540,43520,47328.125,128
0.008510352,118,2.351165098,32600,8191,0.590748261,128,8.838433485,122549,43584,47330.07813,128
1.173491022,16271,2.355276031,32657,7484,0.53975827,128,8.812036969,122183,43648,47332.03125,128
7.21E-05,1,2.41326182,33461,8188,0.590531896,128,8.826100686,122378,43712,47333.98438,128
0.129386202,1794,2.419464281,33547,16870,1.216691877,128,8.807132698,122115,43776,47335.9375,128
1.179332874,16352,2.238727479,31041,7201,0.519347849,128,8.773163411,121644,43840,47337.89063,128
1.063721903,14749,2.266999157,31433,6144,0.443115287,128,8.762994261,121503,43904,47339.84375,128
1.116947665,15487,2.311786689,32054,8067,0.581805179,128,8.753402085,121370,43968,47341.79688,128
1.179332874,16352,2.313157,32073,7436,0.536296432,128,8.738545029,121164,44032,47343.75,128
1.181568644,16383,2.304574526,31954,7695,0.554975933,128,8.715682473,120847,44096,47345.70313,128
0,0,2.406266022,33364,16875,1.217052486,128,8.749940246,121322,44160,47347.65625,128
0.072914967,1011,2.434104971,33750,16524,1.191737794,128,8.724769798,120973,44224,47349.60938,128
1.112404002,15424,2.313661851,32080,7182,0.517977538,128,8.660076697,120076,44288,47351.5625,128
1.108653678,15372,2.217307355,30744,7790,0.561827488,128,8.68546351,120428,44352,47353.51563,128
2.290294443,31756,2.30298785,31932,8117,0.585411261,128,8.690728389,120501,44416,47355.46875,128
1.171255251,16240,2.279259834,31603,7231,0.521511498,128,8.653946358,119991,44480,47357.42188,128
1.178106806,16335,2.319287338,32158,8079,0.582670639,128,8.669452509,120206,44544,47359.375,128
1.125169531,15601,2.29988662,31889,7199,0.519203606,128,8.646589952,119889,44608,47361.32813,128
1.038479333,14399,2.273345861,31521,7875,0.567957827,128,8.617813422,119490,44672,47363.28125,128
1.071727404,14860,2.257983954,31308,7683,0.554110474,128,8.611538841,119403,44736,47365.23438,128
1.140964167,15820,2.260219724,31339,7137,0.514732065,128,8.60353334,119292,44800,47367.1875,128
1.160869737,16096,2.339697759,32441,8185,0.590315532,128,8.632165627,119689,44864,47369.14063,128
1.172914049,16263,2.339986246,32445,16855,1.215610053,128,8.613053395,119424,44928,47371.09375,128
1.16058125,16092,2.361839099,32748,16624,1.198949957,128,8.59379692,119157,44992,47373.04688,128
1.181496523,16382,2.297290241,31853,16416,1.183948658,128,8.576199243,118913,45056,47375,128
1.174428603,16284,2.273634347,31525,4087,0.294761097,128,8.589902352,119103,45120,47376.95313,128
1.172625562,16259,2.160475512,29956,6915,0.498721063,128,8.618029787,119493,45184,47378.90625,128
1.109951867,15390,2.157590646,29916,6351,0.458044464,128,8.582545946,119001,45248,47380.85938,128
1.049225455,14548,2.281639848,31636,8190,0.59067614,128,8.60353334,119292,45312,47382.8125,128
1.034512643,14344,2.235914735,31002,4032,0.290794407,128,8.553192443,118594,45376,47384.76563,128
1.179332874,16352,2.342943232,32486,18044,1.30136267,128,8.686112605,120437,45440,47386.71875,128
0.006851555,95,2.397034454,33236,16768,1.209335471,128,8.669596752,120208,45504,47388.67188,128
1.178178928,16336,2.355492396,32660,16447,1.186184428,128,8.612620665,119418,45568,47390.625,128
1.145579951,15884,2.301545417,31912,3901,0.281346474,128,8.552543348,118585,45632,47392.57813,128
1.153873939,15999,2.335370461,32381,16624,1.198949957,128,8.584348987,119026,45696,47394.53125,128
1.179549239,16355,2.340418975,32451,7872,0.567741462,128,8.580887148,118978,45760,47396.48438,128
1.108004583,15363,2.31272427,32067,3680,0.265407594,128,8.498524248,117836,45824,47398.4375,128
1.181496523,16382,2.346982044,32542,16632,1.19952693,128,8.525425616,118209,45888,47400.39063,128
1.035955076,14364,2.272768888,31513,3888,0.280408893,128,8.550740308,118560,45952,47402.34375,128
1.09502269,15183,2.128741995,29516,1984,0.143089311,128,8.554346389,118610,46016,47404.29688,128
1.181208036,16378,2.203027273,30546,4056,0.292525326,128,8.564154931,118746,46080,47406.25,128
1.145219343,15879,2.244352966,31119,7792,0.561971731,128,8.54598028,118494,46144,47408.20313,128
1.03393567,14336,2.344674152,32510,3999,0.288414393,128,8.620554044,119528,46208,47410.15625,128
0.071616777,993,2.358665747,32704,17852,1.287515317,128,8.633175329,119703,46272,47412.10938,128
1.06848193,14815,2.213845517,30696,6425,0.463381465,128,8.575910756,118909,46336,47414.0625,128
1.051172739,14575,2.251925737,31224,7171,0.5171842,128,8.5557167,118629,46400,47416.01563,128
1.038479333,14399,2.219398882,30773,3592,0.259060891,128,8.523766818,118186,46464,47417.96875,128
1.038551454,14400,2.220336463,30786,3239,0.233601956,128,8.523334089,118180,46528,47419.92188,128
1.171471616,16243,2.275725874,31554,16384,1.181640766,128,8.550884551,118562,46592,47421.875,128
1.181496523,16382,2.320152798,32170,16641,1.200176024,128,8.591344785,119123,46656,47423.82813,128
1.177962563,16333,2.235842614,31001,7295,0.526127282,128,8.575910756,118909,46720,47425.78125,128
1.149186033,15934,2.292602336,31788,16646,1.200536633,128,8.589253257,119094,46784,47427.73438,128
1.181568644,16383,2.342438381,32479,16865,1.216331269,128,8.59466238,119169,46848,47429.6875,128
1.110023988,15391,2.293395673,31799,4033,0.290866529,128,8.554995484,118619,46912,47431.64063,128
1.159715791,16080,2.267720374,31443,4095,0.29533807,128,8.561053701,118703,46976,47433.59375,128
2.297434485,31855,2.297001755,31849,4095,0.29533807,128,8.557519741,118654,47040,47435.54688,128
1.034007792,14337,2.259498508,31329,7168,0.516967835,128,8.581896851,118992,47104,47437.5,128
1.069707998,14832,2.251709372,31221,7556,0.544951027,128,8.596032691,119188,47168,47439.45313,128
1.105985177,15335,2.26223913,31367,7360,0.530815188,128,8.57742531,118930,47232,47441.40625,128
1.166639467,16176,2.205335165,30578,3599,0.259565742,128,8.541436618,118431,47296,47443.35938,128
1.181568644,16383,2.205912138,30586,3990,0.287765299,128,8.540787523,118422,47360,47445.3125,128
1.103749407,15304,2.304286039,31950,16387,1.181857131,128,8.567039796,118786,47424,47447.26563,128
2.290438687,31758,2.282433186,31647,16449,1.186328672,128,8.574107715,118884,47488,47449.21875,128
1.181496523,16382,2.275437388,31550,3967,0.286106501,128,8.55925066,118678,47552,47451.17188,128
1.172697684,16260,2.263104589,31379,4071,0.293607151,128,8.55485124,118617,47616,47453.125,128
1.036171441,14367,2.255099089,31268,4095,0.29533807,128,8.569924661,118826,47680,47455.07813,128
1.145435708,15882,2.265484603,31412,7888,0.568895408,128,8.589397501,119096,47744,47457.03125,128
1.070140728,14838,2.288707768,31734,16445,1.186040185,128,8.598412704,119221,47808,47458.98438,128
1.180703185,16371,2.300030863,31891,16633,1.199599051,128,8.602163029,119273,47872,47460.9375,128
2.33089892,32319,2.32909588,32294,16440,1.185679577,128,8.607283665,119344,47936,47462.89063,128
2.36320941,32767,2.32599465,32251,16384,1.181640766,128,8.608798219,119365,48000,47464.84375,128
1.180558941,16369,2.269884022,31473,7695,0.554975933,128,8.607211543,119343,48064,47466.79688,128
1.144714492,15872,2.294333255,31812,7735,0.557860799,128,8.649258453,119926,48128,47468.75,128
1.1680819,16196,2.240746884,31069,8185,0.590315532,128,8.620770409,119531,48192,47470.70313,128
1.107716096,15359,2.289356862,31743,8152,0.587935518,128,8.586656879,119058,48256,47472.65625,128
1.066606768,14789,2.234400181,30981,6399,0.461506303,128,8.579661081,118961,48320,47474.60938,128
1.108004583,15363,2.232741384,30958,7615,0.549206203,128,8.598989677,119229,48384,47476.5625,128
2.215576436,30720,2.274427685,31536,8160,0.588512491,128,8.636997776,119756,48448,47478.51563,128
1.10302819,15294,2.282938037,31654,7952,0.573511192,128,8.607427908,119346,48512,47480.46875,128
1.126179233,15615,2.307098783,31989,16447,1.186184428,128,8.607211543,119343,48576,47482.42188,128
1.121058598,15544,2.300968444,31904,8128,0.586204599,128,8.656110007,120021,48640,47484.375,128
1.111754908,15415,2.293179309,31796,7904,0.570049354,128,8.657480318,120040,48704,47486.32813,128
1.181352279,16380,2.265412481,31411,8188,0.590531896,128,8.610096408,119383,48768,47488.28125,128
1.144786614,15873,2.232813505,30959,7423,0.53535885,128,8.613053395,119424,48832,47490.23438,128
1.112331881,15423,2.198844218,30488,7694,0.554903812,128,8.614207341,119440,48896,47492.1875,128
1.172625562,16259,2.175404689,30163,6169,0.444918328,128,8.614063098,119438,48960,47494.14063,128
1.033358697,14328,2.205767894,30584,7392,0.53312308,128,8.601658178,119266,49024,47496.09375,128
1.108653678,15372,2.216441896,30732,8184,0.59024341,128,8.627621964,119626,49088,47498.04688,128
1.044032698,14476,2.246516615,31149,8142,0.587214301,128,8.650845128,119948,49152,47500,128
2.216225531,30729,2.271614942,31497,7967,0.574593016,128,8.642911749,119838,49216,47501.95313,128
0.997081518,13825,2.196031475,30449,7936,0.572357246,128,8.62257345,119556,49280,47503.90625,128
1.181568644,16383,2.197762394,30473,7168,0.516967835,128,8.64204629,119826,49344,47505.85938,128
1.178972266,16347,2.249762088,31194,16387,1.181857131,128,8.637430505,119762,49408,47507.8125,128
1.163249751,16129,2.290655052,31761,16792,1.21106639,128,8.670173725,120216,49472,47509.76563,128
1.107932461,15362,2.317267933,32130,16419,1.184165023,128,8.736092894,121130,49536,47511.71875,128
1.053480632,14607,2.274067077,31531,7776,0.560817785,128,8.647671777,119904,49600,47513.67188,128
1.029824737,14279,2.184275649,30286,3837,0.27673069,128,8.547927564,118521,49664,47515.625,128
1.038479333,14399,2.218966153,30767,7844,0.565722056,128,8.616298868,119469,49728,47517.57813,128
1.177024982,16320,2.193651461,30416,7728,0.557355947,128,8.689502321,120484,49792,47519.53125,128
0.904910076,12547,2.127227441,29495,6216,0.448308044,128,8.627621964,119626,49856,47521.48438,128
1.070789822,14847,2.098811519,29101,6542,0.471819695,128,8.632381991,119692,49920,47523.4375,128
1.016842844,14099,2.161773701,29974,7271,0.524396363,128,8.667144617,120174,49984,47525.39063,128
1.176736495,16316,2.191487812,30386,7680,0.553894109,128,8.620409801,119526,50048,47527.34375,128
1.179404995,16353,2.209950949,30642,8144,0.587358545,128,8.66418763,120133,50112,47529.29688,128
1.026939872,14239,2.163216134,29994,7793,0.562043853,128,8.636565046,119750,50176,47531.25,128
1.025713804,14222,2.178938649,30212,7943,0.572862097,128,8.642839628,119837,50240,47533.20313,128
1.177024982,16320,2.188458704,30344,7809,0.563197799,128,8.650340277,119941,50304,47535.15625,128
0.895390021,12415,2.146988767,29769,7728,0.557355947,128,8.61680372,119476,50368,47537.10938,128
1.172409197,16256,2.164009471,30005,7389,0.532906715,128,8.65668698,120029,50432,47539.0625,128
2.077102909,28800,2.208075787,30616,16448,1.18625655,128,8.682578645,120388,50496,47541.01563,128
2.0714053,28721,2.214494612,30705,16384,1.181640766,128,8.648897844,119921,50560,47542.96875,128
1.018934371,14128,2.20555153,30581,8049,0.58050699,128,8.667505225,120179,50624,47544.92188,128
1.181568644,16383,2.210095192,30644,16385,1.181712887,128,8.632021383,119687,50688,47546.875,128
2.215792801,30723,2.27111009,31490,16576,1.195488119,128,8.668514927,120193,50752,47548.82813,128
2.231443194,30940,2.230938343,30933,8128,0.586204599,128,8.645436006,119873,50816,47550.78125,128
1.160869737,16096,2.194805407,30432,7680,0.553894109,128,8.644354182,119858,50880,47552.73438,128
1.171255251,16240,2.149801511,29808,7687,0.55439896,128,8.613558246,119431,50944,47554.6875,128
0.905847657,12560,2.163648863,30000,7951,0.57343907,128,8.624015882,119576,51008,47556.64063,128
1.137862937,15777,2.172087094,30117,7887,0.568823286,128,8.619616463,119515,51072,47558.59375,128
1.038479333,14399,2.274067077,31531,17283,1.24647811,128,8.687122308,120451,51136,47560.54688,128
1.034945373,14350,2.253368169,31244,16822,1.213230039,128,8.709263648,120758,51200,47562.5,128
1.056437618,14648,2.131482617,29554,7905,0.570121475,128,8.654667575,120001,51264,47564.45313,128
0.895390021,12415,2.120592251,29403,7152,0.515813889,128,8.637718992,119766,51328,47566.40625,128
1.11586584,15472,2.166100999,30034,7294,0.52605516,128,8.653729994,119988,51392,47568.35938,128
1.144930857,15875,2.155931849,29893,7680,0.553894109,128,8.648609358,119917,51456,47570.3125,128
1.110023988,15391,2.159826417,29947,8191,0.590748261,128,8.637574749,119764,51520,47572.26563,128
1.165485521,16160,2.185718082,30306,8176,0.589666437,128,8.636492924,119749,51584,47574.21875,128
1.148104208,15919,2.181607149,30249,7872,0.567741462,128,8.655388791,120011,51648,47576.17188,128
0.890557872,12348,2.135377185,29608,8191,0.590748261,128,8.651494223,119957,51712,47578.125,128
1.153008479,15987,2.150017875,29811,8191,0.590748261,128,8.640387492,119803,51776,47580.07813,128
1.181496523,16382,2.247742682,31166,17152,1.237030177,128,8.622357085,119553,51840,47582.03125,128
1.032998089,14323,2.175404689,30163,7683,0.554110474,128,8.653369385,119983,51904,47583.98438,128
0.918829551,12740,2.174394986,30149,7692,0.554759569,128,8.650628764,119945,51968,47585.9375,128
1.172409197,16256,2.271037969,31489,16887,1.217917945,128,8.671111306,120229,52032,47587.89063,128
2.342510503,32480,2.338255327,32421,16399,1.18272259,128,8.758378477,121439,52096,47589.84375,128
1.166567345,16175,2.149657267,29806,7703,0.555552906,128,8.683948956,120407,52160,47591.79688,128
2.141940253,29699,2.158095498,29923,8135,0.58670945,128,8.627261356,119621,52224,47593.75,128
2.270605239,31483,2.265917333,31418,16895,1.218494918,128,8.665774306,120155,52288,47595.70313,128
2.215576436,30720,2.269523414,31468,16384,1.181640766,128,8.692675673,120528,52352,47597.65625,128
1.163105507,16127,2.117418899,29359,8176,0.589666437,128,8.692675673,120528,52416,47599.60938,128
2.123116508,29438,2.120231643,29398,8185,0.590315532,128,8.701546633,120651,52480,47601.5625,128
1.163466115,16132,2.145474213,29748,7385,0.532618229,128,8.674861631,120281,52544,47603.51563,128
1.052398807,14592,2.238150506,31033,16385,1.181712887,128,8.664043386,120131,52608,47605.46875,128
1.10656215,15343,2.259210021,31325,16415,1.183876536,128,8.730323163,121050,52672,47607.42188,128
2.141074793,29687,2.143166321,29716,8164,0.588800977,128,8.673996171,120269,52736,47609.375,128
1.108942164,15376,2.078401098,28818,7183,0.518049659,128,8.661374886,120094,52800,47611.32813,128
1.14594056,15889,2.152181524,29841,8191,0.590748261,128,8.682073794,120381,52864,47613.28125,128
0.889692413,12336,2.163648863,30000,8093,0.583680342,128,8.706883634,120725,52928,47615.23438,128
1.024920467,14211,2.172159215,30118,7937,0.572429368,128,8.698517525,120609,52992,47617.1875,128
2.083954463,28895,2.176198027,30174,8185,0.590315532,128,8.73904988,121171,53056,47619.14063,128
1.145219343,15879,2.223581937,30831,16640,1.200103903,128,8.773524019,121649,53120,47621.09375,128
1.145796316,15887,2.180813811,30238,8191,0.590748261,128,8.751454801,121343,53184,47623.04688,128
2.0687368,28684,2.167687674,30056,7423,0.53535885,128,8.724914041,120975,53248,47625,128
1.181568644,16383,2.215504314,30719,16655,1.201185727,128,8.741069286,121199,53312,47626.95313,128
1.16368248,16135,2.330105582,32308,17920,1.292419588,128,8.795953845,121960,53376,47628.90625,128
2.252430588,31231,2.241540222,31080,16399,1.18272259,128,8.736309258,121133,53440,47630.85938,128
2.217595842,30748,2.268080982,31448,16398,1.182650469,128,8.790472602,121884,53504,47632.8125,128
2.224519518,30844,2.266927036,31432,16607,1.197723889,128,8.804247833,122075,53568,47634.76563,128
1.114711894,15456,2.148936051,29796,6299,0.45429414,128,8.74655053,121275,53632,47636.71875,128
1.173491022,16271,2.200214529,30507,7802,0.562692948,128,8.759171815,121450,53696,47638.67188,128
1.035666589,14360,2.254377872,31258,16447,1.186184428,128,8.847232324,122671,53760,47640.625,128
1.035955076,14364,2.249906331,31196,16412,1.183660171,128,8.818167307,122268,53824,47642.57813,128
1.167793413,16192,2.239809303,31056,8191,0.590748261,128,8.769485208,121593,53888,47644.53125,128
1.180991671,16375,2.265628846,31414,16604,1.197507524,128,8.818239429,122269,53952,47646.48438,128
2.252430588,31231,2.288707768,31734,16415,1.183876536,128,8.832231025,122463,54016,47648.4375,128
2.344818395,32512,2.279836807,31611,16507,1.190511726,128,8.842905026,122611,54080,47650.39063,128
2.236275343,31007,2.24276629,31097,7928,0.571780273,128,8.84218381,122601,54144,47652.34375,128
2.216586139,30734,2.241684466,31082,15927,1.148681182,128,8.86612819,122933,54208,47654.29688,128
1.163177629,16128,2.285606538,31691,24591,1.773542973,128,8.870383366,122992,54272,47656.25,128
1.16368248,16135,2.235121397,30991,8177,0.589738558,128,8.850982648,122723,54336,47658.20313,128
1.108870042,15375,2.316835203,32124,15568,1.122789517,128,8.935220711,123891,54400,47660.15625,128
1.149835128,15943,2.332485596,32341,24638,1.77693269,128,8.9391874,123946,54464,47662.10938,128
1.149835128,15943,2.317844906,32138,24638,1.77693269,128,8.915603628,123619,54528,47664.0625,128
1.181352279,16380,2.286904727,31709,24576,1.772461149,128,8.941928022,123984,54592,47666.01563,128
1.179332874,16352,2.310704864,32039,24627,1.776139352,128,8.958299632,124211,54656,47667.96875,128
2.359747572,32719,2.285822902,31694,15873,1.144786614,128,8.973445174,124421,54720,47669.92188,128
2.359531207,32716,2.313373365,32076,16375,1.180991671,128,8.963203903,124279,54784,47671.875,128
2.344890516,32513,2.314022459,32085,16371,1.180703185,128,8.990610122,124659,54848,47673.82813,128
1.144786614,15873,2.257046373,31295,16360,1.179909847,128,8.989888905,124649,54912,47675.78125,128
2.244352966,31119,2.28127924,31631,16127,1.163105507,128,8.98967254,124646,54976,47677.73438,128
2.293756282,31804,2.321450987,32188,24688,1.780538771,128,9.006549002,124880,55040,47679.6875,128
1.181280158,16379,2.316113987,32114,16380,1.181352279,128,8.978637931,124493,55104,47681.64063,128
1.125097409,15600,2.318421879,32146,16359,1.179837725,128,8.953251118,124141,55168,47683.59375,128
1.145219343,15879,2.2928187,31791,16136,1.163754602,128,8.919498196,123673,55232,47685.54688,128
0.009231568,128,2.352679652,32621,24607,1.774696919,128,8.894832599,123331,55296,47687.5,128
1.112259759,15422,2.376840398,32956,15503,1.118101611,128,8.887259828,123226,55360,47689.45313,128
14.1880553,196724,562.4694428,7798901,71,0.005120636,153,0.03454626,479,55424,47691.40625,0
0.03454626,479,0.03454626,479,0,0,30,145.3418142,2015232,55488,47693.35938,128
10.56091434,146432,-153.5948364,-2129664,0,0,144,7.21E-05,1,55552,47695.3125,144
0,0,-302.5000361,-4194304,0,0,3,2.242622047,31095,55616,47697.26563,128
0.53535885,7423,8.804824806,122083,0,0,0,-302.5000361,-4194304,55680,47699.21875,0
0,0,7.21E-05,1,0,0,155,571.3740839,7922368,55744,47701.17188,128
0.016155245,224,7.21E-05,1,448,0.03231049,155,571.3740839,7922368,55808,47703.125,128
0,0,2.291159903,31768,102,0.007356406,128,8.806195117,122102,55872,47705.07813,128
0,0,-15.36132996,-212992,7,5.05E-04,0,496.2980647,6881404,55936,47707.03125,0
0.004615784,64,2.30075208,31901,16505,1.190367483,128,8.788092588,121851,56000,47708.98438,128
0,0,2.31229154,32061,16583,1.19599297,128,8.739987462,121184,56064,47710.9375,128
1.172409197,16256,2.219398882,30773,7182,0.517977538,128,8.723832217,120960,56128,47712.89063,128
1.071727404,14860,2.13516082,29605,6144,0.443115287,128,8.718927946,120892,56192,47714.84375,128
1.144714492,15872,2.220841315,30793,7936,0.572357246,128,8.754700274,121388,56256,47716.79688,128
1.036748414,14375,2.214783098,30709,8095,0.583824585,128,8.747704476,121291,56320,47718.75,128
1.038335089,14397,2.225384978,30856,7822,0.56413538,128,8.743809908,121237,56384,47720.70313,128
1.170101305,16224,2.252863318,31237,8184,0.59024341,128,8.752897233,121363,56448,47722.65625,128
1.140098708,15808,2.255531818,31274,16384,1.181640766,128,8.725563136,120984,56512,47724.60938,128
2.289428984,31744,2.294765984,31818,16892,1.218278553,128,8.738833516,121168,56576,47726.5625,128
1.153585452,15995,2.351525706,32605,16504,1.190295361,128,8.742439597,121218,56640,47728.51563,128
1.144858735,15874,2.307459391,31994,16385,1.181712887,128,8.718423095,120885,56704,47730.46875,128
2.307315148,31992,2.291953241,31779,16504,1.190295361,128,8.709480013,120761,56768,47732.42188,128
1.107283367,15353,2.2901502,31754,16390,1.182073496,128,8.729818312,121043,56832,47734.375,128
2.289573227,31746,2.305367864,31965,16577,1.19556024,128,8.727582541,121012,56896,47736.32813,128
1.107499731,15356,2.276014361,31558,8191,0.590748261,128,8.725491014,120983,56960,47738.28125,128
2.293107187,31795,2.261085184,31351,8179,0.589882802,128,8.714384283,120829,57024,47740.23438,128
1.172409197,16256,2.222716477,30819,7736,0.55793292,128,8.765230032,121534,57088,47742.1875,128
1.181280158,16379,2.210023071,30643,7182,0.517977538,128,8.719721284,120903,57152,47744.14063,128
1.135410802,15743,2.260652454,31345,8062,0.581444571,128,8.709624256,120763,57216,47746.09375,128
2.275797996,31555,2.304574526,31954,16884,1.21770158,128,8.729169217,121034,57280,47748.04688,128
2.289140497,31740,2.260868819,31348,8065,0.581660936,128,8.733640758,121096,57344,47750,128
2.354049963,32640,2.271254333,31492,8129,0.58627672,128,8.751671165,121346,57408,47751.95313,128
2.233967451,30975,2.203315759,30550,7295,0.526127282,128,8.696209633,120577,57472,47753.90625,128
2.215504314,30719,2.226683167,30874,8188,0.590531896,128,8.709480013,120761,57536,47755.85938,128
2.214350368,30703,2.221851018,30807,8079,0.582670639,128,8.695776903,120571,57600,47757.8125,128
1.163970967,16139,2.280918632,31626,16867,1.216475513,128,8.733208028,121090,57664,47759.76563,128
2.291664754,31775,2.311570324,32051,16952,1.222605851,128,8.781241033,121756,57728,47761.71875,128
2.290005957,31752,2.291159903,31768,16697,1.204214836,128,8.773091289,121643,57792,47763.67188,128
2.298588431,31871,2.325057068,32238,16480,1.188564442,128,8.767898532,121571,57856,47765.625,128
1.181568644,16383,2.300679958,31900,8184,0.59024341,128,8.786722277,121832,57920,47767.57813,128
2.280197415,31616,2.22992864,30919,7682,0.554038352,128,8.71380731,120821,57984,47769.53125,128
2.224519518,30844,2.295847809,31833,16497,1.18979051,128,8.760830612,121473,58048,47771.48438,128
2.36320941,32767,2.338904421,32430,16400,1.182794712,128,8.707821215,120738,58112,47773.4375,128
2.288852011,31736,2.212547328,30678,8184,0.59024341,128,8.685247145,120425,58176,47775.39063,128
2.095782411,29059,2.207715178,30611,7743,0.558437772,128,8.697579944,120596,58240,47777.34375,128
2.21665826,30735,2.259786994,31333,8024,0.578703949,128,8.738112299,121158,58304,47779.29688,128
2.326355258,32256,2.21975949,30778,7552,0.544662541,128,8.736525623,121136,58368,47781.25,128
2.141146915,29688,2.223654058,30832,8147,0.58757491,128,8.761407585,121481,58432,47783.20313,128
2.228846816,30904,2.297073877,31850,16675,1.20262816,128,8.727582541,121012,58496,47785.15625,128
2.358665747,32704,2.325273433,32241,16399,1.18272259,128,8.706739391,120723,58560,47787.10938,128
1.180991671,16375,2.223077085,30824,8064,0.581588814,128,8.711787905,120793,58624,47789.0625,128
2.330971042,32320,2.267648252,31442,8176,0.589666437,128,8.674789509,120280,58688,47791.01563,128
2.354049963,32640,2.262311251,31368,8064,0.581588814,128,8.676520428,120304,58752,47792.96875,128
2.362993045,32764,2.310272135,32033,16864,1.216259148,128,8.704575742,120693,58816,47794.92188,128
1.163177629,16128,2.310704864,32039,16387,1.181857131,128,8.674573144,120277,58880,47796.875,128
2.292890822,31792,2.300896323,31903,8065,0.581660936,128,8.683155618,120396,58944,47798.82813,128
2.289933835,31751,2.342077773,32474,16512,1.190872334,128,8.680703483,120362,59008,47800.78125,128
2.345323246,32519,2.346405071,32534,16463,1.187338375,128,8.684093199,120409,59072,47802.73438,128
2.307243026,31991,2.304935134,31959,8163,0.588728856,128,8.691738092,120515,59136,47804.6875,128
2.349866909,32582,2.331403772,32326,16771,1.209551836,128,8.698661768,120611,59200,47806.64063,128
0,0,2.38888471,33123,17404,1.255204827,128,8.740636556,121193,59264,47808.59375,128
2.356862707,32679,2.315609135,32107,7953,0.573583314,128,8.783548925,121788,59328,47810.54688,128
2.359891815,32721,2.309406675,32021,8032,0.579280922,128,8.809224225,122144,59392,47812.5,128
2.354122085,32641,2.326283136,32255,16135,1.16368248,128,8.926061264,123764,59456,47814.45313,128
2.332052866,32335,2.340418975,32451,16355,1.179549239,128,9.08617128,125984,59520,47816.40625,128
2.324047366,32224,2.328518907,32286,16000,1.15394606,128,9.241953998,128144,59584,47818.35938,128
2.349362057,32575,2.256541521,31288,16322,1.177169225,128,9.364777132,129847,59648,47820.3125,128
2.36320941,32767,2.198699975,30486,16121,1.162672777,128,9.516521039,131951,59712,47822.26563,128
2.217379477,30745,2.271614942,31497,3198,0.230644969,128,9.697979057,134467,59776,47824.21875,128
2.326355258,32256,2.264691265,31401,3954,0.28516892,128,9.789140795,135731,59840,47826.17188,128
2.267504009,31440,2.248103291,31171,7960,0.574088165,128,9.93504285,137754,59904,47828.125,128
2.234039573,30976,2.235842614,31001,8159,0.588440369,128,9.959203596,138089,59968,47830.07813,128
2.215576436,30720,2.269667658,31470,7688,0.554471082,128,10.05707265,139446,60032,47832.03125,128
2.317267933,32130,2.338111083,32419,15,0.001081824,128,10.13640644,140546,60096,47833.98438,128
2.36320941,32767,2.300607836,31899,8092,0.58360822,128,9.924224606,137604,60160,47835.9375,128
2.315969743,32112,2.289356862,31743,7951,0.57343907,128,9.757767887,135296,60224,47837.89063,128
2.354266328,32643,2.311353959,32048,3968,0.286178623,128,9.54270119,132314,60288,47839.84375,128
2.328735272,32289,2.301329053,31909,16256,1.172409197,128,9.417065313,130572,60352,47841.79688,128
2.330682556,32316,2.256253035,31284,16127,1.163105507,128,9.064174183,125679,60416,47843.75,128
2.36097364,32736,2.250483304,31204,7935,0.572285124,128,8.76292214,121502,60480,47845.70313,128
2.101912749,29144,2.212763692,30681,4094,0.295265948,128,8.566030093,118772,60544,47847.65625,128
2.169418594,30080,2.186295055,30314,2928,0.211172129,128,8.482801733,117618,60608,47849.60938,128
2.206344868,30592,2.114245548,29315,3135,0.226101306,128,8.522324386,118166,60672,47851.5625,128
2.104869736,29185,2.141002672,29686,3587,0.258700282,128,8.534729306,118338,60736,47853.51563,128
2.289933835,31751,2.151965159,29838,3599,0.259565742,128,8.551028794,118564,60800,47855.46875,128
2.142589348,29708,2.121818319,29420,4065,0.293174421,128,8.551533646,118571,60864,47857.42188,128
2.183698676,30278,2.202594543,30540,4064,0.293102299,128,8.592859339,119144,60928,47859.375,128
2.215504314,30719,2.187160514,30326,8135,0.58670945,128,8.608149124,119356,60992,47861.32813,128
2.223509815,30830,2.257118494,31296,17407,1.255421192,128,8.649402696,119928,61056,47863.28125,128
2.363065167,32765,2.261157305,31352,16580,1.195776605,128,8.639377789,119789,61120,47865.23438,128
2.215792801,30723,2.339120786,32433,16385,1.181712887,128,8.658994872,120061,61184,47867.1875,128
0.05755306,798,2.395375657,33213,16416,1.183948658,128,8.70096966,120643,61248,47869.14063,128
2.358737869,32705,2.283442889,31661,16452,1.186545037,128,8.668803414,120197,61312,47871.09375,128
2.291664754,31775,2.223437694,30829,7692,0.554759569,128,8.713663067,120819,61376,47873.04688,128
2.345972341,32528,2.298083579,31864,16561,1.194406294,128,8.724192825,120965,61440,47875,128
2.354554815,32647,2.242910533,31099,7983,0.575746963,128,8.755277247,121396,61504,47876.95313,128
2.330826799,32318,2.233318357,30966,8066,0.581733058,128,8.782827709,121778,61568,47878.90625,128
2.327004352,32265,2.334072272,32363,16837,1.214311864,128,8.821124294,122309,61632,47880.85938,128
2.345828098,32526,2.297362363,31854,16387,1.181857131,128,8.814056374,122211,61696,47882.8125,128
2.359819694,32720,2.323109784,32211,17159,1.237535028,128,8.827038267,122391,61760,47884.76563,128
0.045508748,631,2.40749209,33381,25085,1.809171058,128,8.888341652,123241,61824,47886.71875,128
0.018967988,263,2.356213612,32670,24701,1.781476352,128,8.870167002,122989,61888,47888.67188,128
2.326571623,32259,2.340274732,32449,8176,0.589666437,128,8.80323813,122061,61952,47890.625,128
0.010385515,144,2.412179996,33446,16647,1.200608754,128,8.871176704,123003,62016,47892.57813,128
0.017309191,240,2.402010846,33305,24632,1.77649996,128,8.871609434,123009,62080,47894.53125,128
2.362993045,32764,2.334793488,32373,8191,0.590748261,128,8.875504002,123063,62144,47896.48438,128
2.348280233,32560,2.363137288,32766,16371,1.180703185,128,8.88646649,123215,62208,47898.4375,128
0.008943082,124,2.384196804,33058,24607,1.774696919,128,8.884374962,123186,62272,47900.39063,128
0.045508748,631,2.416507294,33506,25059,1.807295895,128,8.90110718,123418,62336,47902.34375,128
2.362632437,32759,2.328158299,32281,15815,1.140603559,128,8.900385964,123408,62400,47904.29688,128
0.001153946,16,2.425883106,33636,25056,1.807079531,128,8.891226517,123281,62464,47906.25,128
0.139555352,1935,2.48675376,34480,24692,1.780827258,128,8.916108479,123626,62528,47908.20313,128
0.004543663,63,2.457039649,34068,25540,1.841986399,128,8.92101275,123694,62592,47910.15625,128
0.039089923,542,2.356502099,32674,15488,1.117019786,128,8.863964541,122903,62656,47912.10938,128
2.34460203,32509,2.387370156,33102,16129,1.163249751,128,8.900025356,123403,62720,47914.0625,128
0.003461838,48,2.399342346,33268,16345,1.178828022,128,8.937528603,123923,62784,47916.01563,128
0,0,2.374820992,32928,16307,1.1760874,128,8.92014729,123682,62848,47917.96875,128
7.21E-04,10,2.479397354,34378,25584,1.845159751,128,8.933994643,123874,62912,47919.92188,128
0.145613568,2019,2.469660934,34243,24624,1.775922987,128,8.967314835,124336,62976,47921.875,128
0.036854152,511,2.4265322,33645,16382,1.181496523,128,8.931254021,123836,63040,47923.82813,128
0.033175949,460,2.471463975,34268,25280,1.823234775,128,8.914882411,123609,63104,47925.78125,128
0.143089311,1984,2.508173884,34777,24576,1.772461149,128,8.9391874,123946,63168,47927.73438,128
0.277451906,3847,2.495336234,34599,25084,1.809098936,128,8.938682549,123939,63232,47929.6875,128
0.110201849,1528,2.456895406,34066,16380,1.181352279,128,8.946399563,124046,63296,47931.64063,128
0.001081824,15,2.414055158,33472,15387,1.109735502,128,8.935364954,123893,63360,47933.59375,128
0.134939567,1871,2.456102068,34055,16283,1.174356481,128,8.930100075,123820,63424,47935.54688,128
0.018391015,255,2.397827792,33247,16136,1.163754602,128,8.943370455,124004,63488,47937.5,128
0.082939873,1150,2.466848191,34204,24576,1.772461149,128,8.977123377,124472,63552,47939.45313,128
0.115322484,1599,2.449250513,33960,16360,1.179909847,128,8.965656038,124313,63616,47941.40625,128
0.078612575,1090,2.438215904,33807,15999,1.153873939,128,8.989816784,124648,63680,47943.35938,128
0.036782031,510,2.437206201,33793,16368,1.18048682,128,8.95245778,124130,63744,47945.3125,128
0,0,2.495696842,34604,25071,1.808161355,128,8.99940896,124781,63808,47947.26563,128
0.016011002,222,2.522309723,34973,24800,1.788616394,128,9.015852692,125009,63872,47949.21875,128
0.147632974,2047,2.419247916,33544,16312,1.176448009,128,8.940629833,123966,63936,47951.17188,128
0.027550462,382,2.437206201,33793,16381,1.181424401,128,8.954116577,124153,64000,47953.125,128
0.03231049,448,2.507236303,34764,24703,1.781620596,128,8.978637931,124493,64064,47955.07813,128
0.036926274,512,2.414199402,33474,16383,1.181568644,128,8.981450675,124532,64128,47957.03125,128
0.008510352,118,2.397178697,33238,16268,1.173274657,128,8.98433554,124572,64192,47958.98438,128
0.056471235,783,2.421772173,33579,16368,1.18048682,128,9.009001137,124914,64256,47960.9375,128
0.036709909,509,2.387875007,33109,15617,1.126323477,128,8.958443875,124213,64320,47962.89063,128
0.032094125,445,2.468074258,34221,25152,1.814003207,128,8.987653135,124618,64384,47964.84375,128
0.145613568,2019,2.490431963,34531,24589,1.77339873,128,9.01181388,124953,64448,47966.79688,128
0.129818932,1800,2.434898309,33761,16151,1.164836426,128,8.994216203,124709,64512,47968.75,128
0.002163649,30,2.468002137,34220,16135,1.16368248,128,9.015924813,125010,64576,47970.70313,128
0.016083123,223,2.468002137,34220,16239,1.17118313,128,8.99940896,124781,64640,47972.65625,128
0.018391015,255,2.41679578,33510,16253,1.172192832,128,8.969189998,124362,64704,47974.60938,128
0.01817465,252,2.448601419,33951,16128,1.163177629,128,9.004529596,124852,64768,47976.5625,128
0.004615784,64,2.506010235,34747,24588,1.773326608,128,9.038426761,125322,64832,47978.51563,128
0.035988693,499,2.603879285,36104,24815,1.789698218,128,9.112423553,126348,64896,47980.46875,128
0.034474139,478,2.542792266,35257,25072,1.808233477,128,9.087902199,126008,64960,47982.42188,128
0.018679502,259,2.43936985,33823,16124,1.162889142,128,9.057322628,125584,65024,47984.375,128
0.036854152,511,2.509616317,34797,16368,1.18048682,128,9.087108861,125997,65088,47986.32813,128
2.16E-04,3,2.494182288,34583,16337,1.178251049,128,9.039292221,125334,65152,47988.28125,128
0.001153946,16,2.483436165,34434,16374,1.18091955,128,9.043908005,125398,65216,47990.23438,128
0.137968676,1913,2.493100464,34568,24607,1.774696919,128,9.054798371,125549,65280,47992.1875,128
0.041397815,574,2.477954921,34358,16136,1.163754602,128,9.06713117,125720,65344,47994.14063,128
0.035988693,499,2.435258917,33766,16383,1.181568644,128,9.083791266,125951,65408,47996.09375,128
0.133929865,1857,2.460429366,34115,16368,1.18048682,128,9.092445861,126071,65472,47998.04688,128
0.073275575,1016,2.436557107,33784,16295,1.175221941,128,9.049749857,125479,0,48000,128
0.09166659,1271,2.450332338,33975,24775,1.786813353,128,9.056673534,125575,64,48001.95313,128
0.00223577,31,2.526492778,35031,24847,1.79200611,128,9.104129565,126233,128,48003.90625,128
0.064260371,891,2.575246999,35707,26369,1.901775229,128,9.083935509,125953,192,48005.85938,128
0.258483918,3584,2.626381233,36416,25486,1.838091831,128,9.140983718,126744,256,48007.8125,128
0.009159447,127,2.404607225,33341,15873,1.144786614,128,9.10831262,126291,320,48009.76563,128
0.065125831,903,2.443625026,33882,15481,1.116514935,128,9.093167078,126081,384,48011.71875,128
0.089935671,1247,2.498509586,34643,24655,1.778158757,128,9.12605454,126537,448,48013.67188,128
0.138689892,1923,2.459203298,34098,15872,1.144714492,128,9.148917097,126854,512,48015.625,128
0.138978379,1927,2.439297728,33822,16191,1.167721292,128,9.137305514,126693,576,48017.57813,128
0.020771029,288,2.53060371,35088,28799,2.077030787,128,9.1836076,127335,640,48019.53125,128
0.184054397,2552,2.555269308,35430,28798,2.076958665,128,9.168389936,127124,704,48021.48438,128
0.009520055,132,2.572073647,35663,28807,2.07760776,128,9.185266398,127358,768,48023.4375,128
0.069885858,969,2.559524484,35489,28911,2.08510841,128,9.194858574,127491,832,48025.39063,128
0.017381313,241,2.560750551,35506,28897,2.084098707,128,9.214115049,127758,896,48027.34375,128
0.111860646,1551,2.606403542,36139,28879,2.082800517,128,9.23185697,128004,960,48029.29688,128
0.147416609,2044,2.420041254,33555,16321,1.177097103,128,9.24512735,128188,1024,48031.25,128
0.001803041,25,2.422781875,33593,15886,1.145724195,128,9.202575589,127598,1088,48033.20313,128
0.014063718,195,2.48805195,34498,16231,1.170606157,128,9.183463357,127333,1152,48035.15625,128
0.017309191,240,2.448889905,33955,15375,1.108870042,128,9.233443646,128026,1216,48037.10938,128
0.18463137,2560,2.548489874,35336,29501,2.127660171,128,9.270874771,128545,1280,48039.0625,128
0.23071709,3199,2.592700433,35949,29443,2.123477116,128,9.288833057,128794,1344,48041.01563,128
0.017814042,247,2.471103367,34263,15503,1.118101611,128,9.260128648,128396,1408,48042.96875,128
0.142945068,1982,2.468434866,34226,28672,2.06787134,128,9.298569476,128929,1472,48044.92188,128
0.064620979,896,2.64967652,36739,32655,2.355131788,128,9.343284886,129549,1536,48046.875,128
0.06108702,847,2.553466267,35405,30972,2.233751086,128,9.320710816,129236,1600,48048.82813,128
0.046013599,638,2.571496674,35655,30720,2.215576436,128,9.302319801,128981,1664,48050.78125,128
0.013847353,192,2.552672929,35394,28673,2.067943462,128,9.307728923,129056,1728,48052.73438,128
0.189175032,2623,2.530098859,35081,16376,1.181063793,128,9.33239452,129398,1792,48054.6875,128
0.073203453,1015,2.485022841,34456,15806,1.139954464,128,9.330014507,129365,1856,48056.64063,128
0.004615784,64,2.555557794,35434,30976,2.234039573,128,9.319124141,129214,1920,48058.59375,128
0.018391015,255,2.535868589,35161,16184,1.16721644,128,9.305132545,129020,1984,48060.54688,128
0.073275575,1016,2.5292334,35069,30848,2.224808004,128,9.328139344,129339,2048,48062.5,128
0.111211552,1542,2.489350139,34516,16128,1.163177629,128,9.279457245,128664,2112,48064.45313,128
0.155638475,2158,2.610370232,36194,30782,2.220047977,128,9.367085024,129879,2176,48066.40625,128
0.235837726,3270,2.574020931,35690,31520,2.273273739,128,9.344583076,129567,2240,48068.35938,128
0.064548858,895,2.575030634,35704,30745,2.217379477,128,9.321071425,129241,2304,48070.3125,128
0.03497899,485,2.604239893,36109,30783,2.220120099,128,9.346890968,129599,2368,48072.26563,128
0.152248758,2111,2.561399646,35515,30972,2.233751086,128,9.316095032,129172,2432,48074.21875,128
0.184342883,2556,2.547047442,35316,16159,1.165413399,128,9.291357314,128829,2496,48076.17188,128
0.153330583,2126,2.516179385,34888,16383,1.181568644,128,9.26373473,128446,2560,48078.125,128
0.073780426,1023,2.503702343,34715,16319,1.17695286,128,9.216999914,127798,2624,48080.07813,128
0.037503247,520,2.554259605,35416,30727,2.216081287,128,9.306502856,129039,2688,48082.03125,128
0.267427,3708,2.593565892,35961,31119,2.244352966,128,9.336072723,129449,2752,48083.98438,128
0.219826725,3048,2.576256702,35721,28721,2.0714053,128,9.28587607,128753,2816,48085.9375,128
0.275793108,3824,2.565294214,35569,16377,1.181135914,128,9.267557176,128499,2880,48087.89063,128
0,0,2.582314918,35805,28727,2.07183803,128,9.218658712,127821,2944,48089.84375,128
0.25415662,3524,2.576977918,35731,29199,2.105879439,128,9.178054235,127258,3008,48091.79688,128
0.138473527,1920,2.488484679,34504,15391,1.110023988,128,9.186925195,127381,3072,48093.75,128
0.115322484,1599,2.444346242,33892,14767,1.065020092,128,9.169039031,127133,3136,48095.70313,128
0.00223577,31,2.456318433,34058,14598,1.052831537,128,9.164206882,127066,3200,48097.65625,128
0.039162044,543,2.481921611,34413,16128,1.163177629,128,9.12692,126549,3264,48099.60938,128
2.16E-04,3,2.442254715,33863,16065,1.158633966,128,9.11675085,126408,3328,48101.5625,128
0.115250363,1598,2.482498584,34421,15476,1.116154327,128,9.101316822,126194,3392,48103.51563,128
0.287260447,3983,2.539330428,35209,24839,1.791429137,128,9.099153173,126164,3456,48105.46875,128
0.016155245,224,2.505938113,34746,24584,1.773038122,128,9.097999227,126148,3520,48107.42188,128
0.003461838,48,2.482137976,34416,15872,1.144714492,128,9.085089455,125969,3584,48109.375,128
0.007356406,102,2.490648328,34534,16367,1.180414698,128,9.082420955,125932,3648,48111.32813,128
2.16E-04,3,2.495047747,34595,16191,1.167721292,128,9.073694238,125811,3712,48113.28125,128
0.147632974,2047,2.499230802,34653,16358,1.179765604,128,9.063525088,125670,3776,48115.23438,128
0.110129727,1527,2.47211307,34277,15868,1.144426005,128,9.042104965,125373,3840,48117.1875,128
5.05E-04,7,2.437494688,33797,15423,1.112331881,128,9.042177086,125374,3904,48119.14063,128
0.008654595,120,2.42696493,33651,15587,1.124159828,128,9.042465573,125378,3968,48121.09375,128
0.145902055,2023,2.500528991,34671,24603,1.774408433,128,9.055735952,125562,4032,48123.04688,128
0.002019406,28,2.526276413,35028,25072,1.808233477,128,9.041600113,125366,4096,48125,128
0.004687906,65,2.580583999,35781,24582,1.772893879,128,9.047946816,125454,4160,48126.95313,128
0.133785621,1855,2.500528991,34671,15423,1.112331881,128,9.023786071,125119,4224,48128.90625,128
0.10847093,1504,2.495696842,34604,16382,1.181496523,128,8.997461676,124754,4288,48130.85938,128
0.018391015,255,2.484157382,34444,16260,1.172697684,128,8.983325837,124558,4352,48132.8125,128
0.009159447,127,2.475286421,34321,16352,1.179332874,128,8.971425768,124393,4416,48134.76563,128
0.036349301,504,2.472906407,34288,15679,1.130795018,128,8.982244013,124543,4480,48136.71875,128
0.072049507,999,2.423142484,33598,16334,1.178034684,128,9.007414461,124892,4544,48138.67188,128
2.307315148,31992,2.35390572,32638,14332,1.033647184,128,8.993494987,124699,4608,48140.625,128
0.004543663,63,2.476079759,34332,16128,1.163177629,128,9.01931453,125057,4672,48142.57813,128
0.037070517,514,2.466343339,34197,16368,1.18048682,128,9.002654434,124826,4736,48144.53125,128
0.014063718,195,2.494470774,34587,24599,1.774119946,128,8.990393757,124656,4800,48146.48438,128
7.21E-05,1,2.479469476,34379,16159,1.165413399,128,8.975103971,124444,4864,48148.4375,128
0.075078616,1041,2.4522075,34001,16358,1.179765604,128,8.962554808,124270,4928,48150.39063,128
0.129169837,1791,2.491297423,34543,24830,1.790780043,128,8.991259216,124668,4992,48152.34375,128
0.147416609,2044,2.452135378,34000,15879,1.145219343,128,9.022487881,125101,5056,48154.29688,128
0.073780426,1023,2.416867902,33511,16301,1.175654671,128,8.985273121,124585,5120,48156.25,128
0.041758423,579,2.478892503,34371,24764,1.786020015,128,8.985200999,124584,5184,48158.20313,128
0.147632974,2047,2.510626019,34811,24576,1.772461149,128,9.014770867,124994,5248,48160.15625,128
0.1390505,1928,2.504784167,34730,24703,1.781620596,128,9.016862394,125023,5312,48162.10938,128
0.036421423,505,2.616067841,36273,24635,1.776716325,128,9.018232705,125042,5376,48164.0625,128
7.21E-05,1,2.550292915,35361,24606,1.774624798,128,9.013472678,124976,5440,48166.01563,128
0.092243563,1279,2.469156083,34236,16358,1.179765604,128,8.971642133,124396,5504,48167.96875,128
0.059644587,827,2.529089156,35067,16382,1.181496523,128,9.013977529,124983,5568,48169.92188,128
0.213263656,2957,2.664389332,36943,25060,1.807368017,128,9.104850782,126243,5632,48171.875,128
0.146767515,2035,2.571929404,35661,24791,1.787967299,128,9.026310328,125154,5696,48173.82813,128
0.260647566,3614,2.486248909,34473,16380,1.181352279,128,8.98476827,124578,5760,48175.78125,128
0.005192757,72,2.561327524,35514,24598,1.774047825,128,9.011741759,124952,5824,48177.73438,128
0.29533807,4095,2.597316217,36013,24703,1.781620596,128,9.004529596,124852,5888,48179.6875,128
0.276947054,3840,2.61650057,36279,25549,1.842635494,128,8.994721054,124716,5952,48181.64063,128
0.291010772,4035,2.45574146,34050,16380,1.181352279,128,9.005034447,124859,6016,48183.59375,128
0.01817465,252,2.453000838,34012,15419,1.112043394,128,9.022271517,125098,6080,48185.54688,128
0.027550462,382,2.460645731,34118,15920,1.14817633,128,8.98476827,124578,6144,48187.5,128
0.166673084,2311,2.532767359,35118,25407,1.832394222,128,8.999625325,124784,6208,48189.45313,128
0.065270074,905,2.624722436,36393,24818,1.789914583,128,9.100162876,126178,6272,48191.40625,128
0.001226068,17,2.551446861,35377,24639,1.777004811,128,9.033017639,125247,6336,48193.35938,128
0,0,2.546254104,35305,16380,1.181352279,128,9.041167383,125360,6400,48195.3125,128
0.147705096,2048,2.530387346,35085,16335,1.178106806,128,8.97416639,124431,6464,48197.26563,128
0.291659867,4044,2.609649016,36184,24640,1.777076933,128,9.024146679,125124,6528,48199.21875,128
0.018391015,255,2.581305216,35791,24588,1.773326608,128,9.015275719,125001,6592,48201.17188,128
0.182828329,2535,2.54430682,35278,16368,1.18048682,128,9.004241109,124848,6656,48203.125,128
0.21917763,3039,2.567962714,35606,24577,1.77253327,128,9.010948421,124941,6720,48205.07813,128
0.224081901,3107,2.605826569,36131,24828,1.790635799,128,9.027608517,125172,6784,48207.03125,128
0.217374589,3014,2.581088851,35788,24588,1.773326608,128,9.024435165,125128,6848,48208.98438,128
0.036854152,511,2.588012527,35884,24819,1.789986705,128,9.023209098,125111,6912,48210.9375,128
0.05755306,798,2.533344332,35126,15373,1.108725799,128,9.007198096,124889,6976,48212.89063,128
0.018391015,255,2.5372389,35180,16370,1.180631063,128,9.009289623,124918,7040,48214.84375,128
0.220908549,3063,2.633809761,36519,24631,1.776427838,128,9.039003734,125330,7104,48216.79688,128
0.475353655,6591,2.65811475,36856,24591,1.773542973,128,9.051769263,125507,7168,48218.75,128
0.185136221,2567,2.483147679,34430,14816,1.068554052,128,9.041960721,125371,7232,48220.70313,128
0.132559554,1838,2.546831077,35313,15367,1.108293069,128,9.021478179,125087,7296,48222.65625,128
0.073275575,1016,2.578564594,35753,24576,1.772461149,128,9.013833286,124981,7360,48224.60938,128
0.279759798,3879,2.58815677,35886,24627,1.776139352,128,8.977051255,124471,7424,48226.5625,128
7.21E-05,1,2.484806476,34453,16373,1.180847428,128,9.009217502,124917,7488,48228.51563,128
0.069813737,968,2.497788369,34633,16360,1.179909847,128,8.994432568,124712,7552,48230.46875,128
0.222134617,3080,2.586570094,35864,25053,1.806863166,128,9.044412857,125405,7616,48232.42188,128
0.00223577,31,2.517405452,34905,16383,1.181568644,128,8.995370149,124725,7680,48234.375,128
0,0,2.513871493,34856,16320,1.177024982,128,9.033161883,125249,7744,48236.32813,128
0.148137826,2054,2.582964013,35814,24863,1.793160056,128,9.067419656,125724,7808,48238.28125,128
0.031300787,434,2.579502175,35766,24774,1.786741231,128,9.079680333,125894,7872,48240.23438,128
0.006995798,97,2.555197186,35429,16369,1.180558941,128,9.057683236,125589,7936,48242.1875,128
0.29533807,4095,2.57618458,35720,24888,1.794963097,128,9.035397653,125280,8000,48244.14063,128
0.112149133,1555,2.595441055,35987,25072,1.808233477,128,9.043980127,125399,8064,48246.09375,128
0.05755306,798,2.551951713,35384,16099,1.161086102,128,9.026382449,125155,8128,48248.04688,128
0.14878692,2063,2.545388644,35293,15896,1.146445411,128,9.03525341,125278,8192,48250,128
0.147632974,2047,2.631141261,36482,25596,1.84602521,128,9.093960416,126092,8256,48251.95313,128
0.222423103,3084,2.547768658,35326,24604,1.774480554,128,9.056240804,125569,8320,48253.90625,128
0.152176637,2110,2.60099442,36064,16383,1.181568644,128,9.087757956,126006,8384,48255.85938,128
0.258988769,3591,2.606187177,36136,25568,1.844005805,128,9.061072953,125636,8448,48257.8125,128
0.223793414,3103,2.602653218,36087,24591,1.773542973,128,9.088551293,126017,8512,48259.76563,128
0.129818932,1800,2.646719533,36698,24585,1.773110243,128,9.105427755,126251,8576,48261.71875,128
0.148137826,2054,2.512573303,34838,15884,1.145579951,128,9.056745655,125576,8640,48263.67188,128
0.036854152,511,2.581882189,35799,24701,1.781476352,128,9.052778966,125521,8704,48265.625,128
0.020554664,285,2.567602106,35601,16249,1.171904346,128,9.055808074,125563,8768,48267.57813,128
0.027622584,383,2.609937502,36188,25116,1.811406828,128,9.053355939,125529,8832,48269.53125,128
0.55793292,7736,2.69972893,37433,26623,1.920094123,128,9.132257,126623,8896,48271.48438,128
0.572357246,7936,2.71523508,37648,25600,1.846313697,128,9.103480471,126224,8960,48273.4375,128
0.518626633,7191,2.660134156,36884,24700,1.781404231,128,9.055952317,125565,9024,48275.39063,128
0.295626556,4099,2.664966305,36951,24831,1.790852164,128,9.041383748,125363,9088,48277.34375,128
0.26302758,3647,2.561688132,35519,15331,1.105696691,128,9.08263732,125935,9152,48279.29688,128
0.230861334,3201,2.538753455,35201,16380,1.181352279,128,9.079824576,125896,9216,48281.25,128
0.293030178,4063,2.573155471,35678,16323,1.177241347,128,9.070737251,125770,9280,48283.20313,128
0.143161433,1985,2.63597341,36549,25583,1.845087629,128,9.077805171,125868,9344,48285.15625,128
0.306949652,4256,2.707157458,37536,24656,1.778230879,128,9.099153173,126164,9408,48287.10938,128
0.022646191,314,2.612101151,36218,15887,1.145796316,128,9.054437763,125544,9472,48289.0625,128
0.284808312,3949,2.616861179,36284,16380,1.181352279,128,9.065760859,125701,9536,48291.01563,128
0.087772022,1217,2.610875083,36201,16321,1.177097103,128,9.061649926,125644,9600,48292.96875,128
0.110995187,1539,2.510986627,34816,16144,1.164331575,128,9.070448765,125766,9664,48294.92188,128
0.001153946,16,2.657321412,36845,16353,1.179404995,128,9.096484673,126127,9728,48296.875,128
0.521511498,7231,2.62003453,36328,24579,1.772677514,128,9.065256007,125694,9792,48298.82813,128
0.009447933,131,2.613038732,36231,24583,1.772966,128,9.074559697,125823,9856,48300.78125,128
0.286394988,3971,2.641021924,36619,24583,1.772966,128,9.038571005,125324,9920,48302.73438,128
0.294256245,4080,2.633449153,36514,16383,1.181568644,128,9.112495674,126349,9984,48304.6875,128
0.295265948,4094,2.634603099,36530,24583,1.772966,128,9.10167743,126199,10048,48306.64063,128
0.073347696,1017,2.570054241,35635,15481,1.116514935,128,9.036046748,125289,10112,48308.59375,128
0.142512338,1976,2.607341124,36152,16339,1.178395293,128,9.053211695,125527,10176,48310.54688,128
0.266273053,3692,2.599624109,36045,16280,1.174140116,128,9.06713117,125720,10240,48312.5,128
0.004543663,63,2.615923597,36271,16353,1.179404995,128,9.074703941,125825,10304,48314.45313,128
0.286178623,3968,2.624217585,36386,25054,1.806935287,128,9.081411252,125918,10368,48316.40625,128
0.184559248,2559,2.583973716,35828,16130,1.163321872,128,9.066409953,125710,10432,48318.35938,128
0.07839621,1087,2.58815677,35886,16111,1.161951561,128,9.063741453,125673,10496,48320.3125,128
0.037431125,519,2.552961415,35398,16380,1.181352279,128,9.073189387,125804,10560,48322.26563,128
0.541128581,7503,2.682419739,37193,24639,1.777004811,128,9.082925806,125939,10624,48324.21875,128
0.007789136,108,2.682347617,37192,24629,1.776283595,128,9.091147672,126053,10688,48326.17188,128
0.018246772,253,2.596450758,36001,16144,1.164331575,128,9.069078454,125747,10752,48328.125,128
0.29533807,4095,2.675928792,37103,24697,1.781187866,128,9.107807768,126284,10816,48330.07813,128
0.286322866,3970,2.602004123,36078,24671,1.779312704,128,9.071386346,125779,10880,48332.03125,128
0.149940866,2079,2.530820075,35091,15396,1.110384597,128,9.019675138,125062,10944,48333.98438,128
0.275793108,3824,2.576040337,35718,15368,1.108365191,128,9.057899601,125592,11008,48335.9375,128
0.443115287,6144,2.709104742,37563,26142,1.885403619,128,9.152811665,126908,11072,48337.89063,128
0.553749866,7678,2.695185267,37370,26399,1.903938878,128,9.147907394,126840,11136,48339.84375,128
0.072698602,1008,2.657609899,36849,24654,1.778086636,128,9.126270905,126540,11200,48341.79688,128
0.183405302,2543,2.581233094,35790,16143,1.164259453,128,9.103264106,126221,11264,48343.75,128
0.286106501,3967,2.647008019,36702,24624,1.775922987,128,9.096989524,126134,11328,48345.70313,128
0.293607151,4071,2.657321412,36845,24964,1.800444341,128,9.112423553,126348,11392,48347.65625,128
0.283870731,3936,2.647945601,36715,24579,1.772677514,128,9.13975765,126727,11456,48349.60938,128
0.073708305,1022,2.657105047,36842,24759,1.785659407,128,9.13268973,126629,11520,48351.5625,128
0.261945756,3632,2.588301014,35888,15614,1.126107112,128,9.120645418,126462,11584,48353.51563,128
0.073708305,1022,2.580511878,35780,15867,1.144353884,128,9.120429053,126459,11648,48355.46875,128
0.132703797,1840,2.591762852,35936,16382,1.181496523,128,9.132184879,126622,11712,48357.42188,128
0.294688975,4086,2.642969208,36646,28687,2.068953165,128,9.166586896,127099,11776,48359.375,128
0.146767515,2035,2.624506071,36390,16377,1.181135914,128,9.152739543,126907,11840,48361.32813,128
0.259565742,3599,2.637848572,36575,24830,1.790780043,128,9.13622369,126678,11904,48363.28125,128
0.586060355,8126,2.755334706,38204,28903,2.084531437,128,9.188728236,127406,11968,48365.23438,128
0.332264344,4607,2.684439145,37221,28687,2.068953165,128,9.177982113,127257,12032,48367.1875,128
0.015866758,220,2.688405834,37276,28721,2.0714053,128,9.23539093,128053,12096,48369.14063,128
0.013847353,192,2.694175565,37356,28672,2.06787134,128,9.24693039,128213,12160,48371.09375,128
0.443115287,6144,2.622630909,36364,16142,1.164187332,128,9.246353417,128205,12224,48373.04688,128
0.001730919,24,2.598614406,36031,15329,1.105552448,128,9.227529672,127944,12288,48375,128
0.147272366,2042,2.649027425,36730,16352,1.179332874,128,9.241449146,128137,12352,48376.95313,128
0.027983192,388,2.567818471,35604,16256,1.172409197,128,9.250103742,128257,12416,48378.90625,128
0.295265948,4094,2.596811366,36006,15904,1.147022384,128,9.243180066,128161,12480,48380.85938,128
0.461578424,6400,2.679030023,37146,30953,2.232380775,128,9.319917479,129225,12544,48382.8125,128
0.073708305,1022,2.721726027,37738,31231,2.252430588,128,9.337298791,129466,12608,48384.76563,128
0.29180411,4046,2.650469858,36750,16368,1.18048682,128,9.261643203,128417,12672,48386.71875,128
0.002307892,32,2.707301701,37538,30975,2.233967451,128,9.3226581,129263,12736,48388.67188,128
0.566371151,7853,2.744732826,38057,31200,2.250194818,128,9.328932682,129350,12800,48390.625,128
0.5171842,7171,2.746607989,38083,31227,2.252142102,128,9.339606683,129498,12864,48392.57813,128
0.461434181,6398,2.677010617,37118,16383,1.181568644,128,9.300733125,128959,12928,48394.53125,128
0.519203606,7199,2.739251583,37981,31176,2.248463899,128,9.338308494,129480,12992,48396.48438,128
0.3011078,4175,2.664100845,36939,16367,1.180414698,128,9.301454342,128969,13056,48398.4375,128
0.258483918,3584,2.557288713,35458,15728,1.134328977,128,9.256161959,128341,13120,48400.39063,128
0.278173122,3857,2.591113757,35927,16121,1.162672777,128,9.28544334,128747,13184,48402.34375,128
0.001081824,15,2.614336921,36249,15999,1.153873939,128,9.277654204,128639,13248,48404.29688,128
0.017886164,248,2.637343721,36568,16368,1.18048682,128,9.263951095,128449,13312,48406.25,128
0.064620979,896,2.723889676,37768,30271,2.183193825,128,9.280899677,128684,13376,48408.20313,128
0.07262648,1007,2.728577581,37833,29183,2.104725493,128,9.264383824,128455,13440,48410.15625,128
